id,Pamp,Ramp,Tamp,PR,QRS,QT,RRI,dRRI,label
1,-0.215,0.565,0.920,158.333,113.889,394.444,886.111,19.444,/
2,-0.160,0.535,0.600,163.889,113.889,372.222,855.556,30.556,/
3,-0.225,0.955,-0.170,175.000,100.000,336.111,825.000,30.556,f
4,-0.380,0.225,0.725,152.778,113.889,372.222,827.778,2.778,/
5,-0.375,0.310,0.900,77.778,116.667,380.556,808.333,19.444,/
6,-0.315,0.305,0.890,58.333,116.667,372.222,844.444,36.111,/
7,-0.265,0.585,0.950,66.667,116.667,391.667,827.778,16.667,/
8,-0.220,0.495,0.985,55.556,108.333,388.889,858.333,30.556,/
9,-0.175,0.590,0.990,55.556,113.889,386.111,858.333,0.000,/
10,-0.180,0.540,0.915,147.222,116.667,391.667,866.667,8.333,/
11,-0.105,0.550,1.220,50.000,108.333,358.333,825.000,41.667,/
12,-0.075,0.495,1.040,58.333,113.889,363.889,783.333,41.667,/
13,-0.165,0.430,0.840,166.667,116.667,405.556,791.667,8.333,/
14,-0.170,0.455,0.955,55.556,108.333,375.000,838.889,47.222,/
15,-0.125,0.400,0.955,63.889,116.667,405.556,875.000,36.111,/
16,-0.120,0.560,0.910,72.222,116.667,397.222,908.333,33.333,/
17,-0.080,0.395,0.970,116.667,116.667,388.889,844.444,63.889,/
18,-0.200,0.440,0.670,144.444,116.667,363.889,811.111,33.333,/
19,-0.545,0.250,0.665,83.333,116.667,375.000,802.778,8.333,/
20,-0.265,0.410,1.005,75.000,108.333,375.000,841.667,38.889,/
21,-0.100,0.510,1.035,72.222,116.667,402.778,830.556,11.111,/
22,-0.030,0.640,1.010,69.444,116.667,405.556,863.889,33.333,/
23,-0.040,0.590,1.085,69.444,116.667,388.889,866.667,2.778,/
24,-0.105,0.430,0.955,66.667,116.667,388.889,847.222,19.444,/
25,-0.160,0.395,0.805,52.778,102.778,358.333,838.889,8.333,/
26,-0.175,0.335,0.805,66.667,116.667,361.111,811.111,27.778,/
27,-0.255,0.345,0.855,69.444,113.889,386.111,786.111,25.000,/
28,-0.255,0.335,0.820,63.889,116.667,375.000,830.556,44.444,/
29,-0.275,0.445,0.780,66.667,116.667,405.556,833.333,2.778,/
30,-0.265,0.350,0.795,108.333,111.111,397.222,908.333,75.000,/
31,-0.360,0.335,0.905,152.778,116.667,388.889,858.333,50.000,/
32,-0.285,0.285,0.735,180.556,116.667,375.000,830.556,27.778,/
33,-0.390,0.090,0.485,194.444,113.889,377.778,797.222,33.333,/
34,-0.720,-0.055,0.410,72.222,111.111,366.667,808.333,11.111,/
35,-0.565,0.065,0.605,61.111,113.889,372.222,811.111,2.778,/
36,-0.380,0.265,0.665,66.667,113.889,402.778,866.667,55.556,/
37,-0.345,0.370,0.715,166.667,116.667,388.889,902.778,36.111,/
38,-0.335,0.285,0.810,130.556,113.889,375.000,844.444,58.333,/
39,-0.315,0.325,0.790,100.000,116.667,375.000,836.111,8.333,/
40,-0.260,0.260,0.835,150.000,116.667,375.000,819.444,16.667,/
41,-0.265,0.340,0.730,175.000,108.333,372.222,788.889,30.556,/
42,-0.505,0.070,0.520,166.667,113.889,358.333,838.889,50.000,/
43,-0.355,0.410,-0.630,197.222,116.667,405.556,588.889,250.000,V
44,-0.125,0.490,0.860,58.333,113.889,394.444,891.667,302.778,/
45,-0.150,0.470,0.955,58.333,108.333,388.889,863.889,27.778,/
46,-0.240,0.440,0.780,61.111,113.889,391.667,855.556,8.333,/
47,-0.295,0.335,0.450,80.556,113.889,355.556,833.333,22.222,/
48,-0.450,0.090,0.640,177.778,113.889,363.889,794.444,38.889,/
49,-0.575,0.085,0.715,161.111,116.667,377.778,786.111,8.333,/
50,-0.360,0.200,0.795,55.556,108.333,391.667,827.778,41.667,/
51,-0.285,0.350,0.845,66.667,116.667,405.556,891.667,63.889,/
52,-0.255,0.345,0.855,83.333,116.667,391.667,883.333,8.333,/
53,-0.170,0.485,0.955,55.556,113.889,386.111,819.444,63.889,/
54,-0.195,0.335,0.955,72.222,111.111,380.556,836.111,16.667,/
55,-0.205,0.460,0.915,55.556,105.556,358.333,800.000,36.111,/
56,-0.155,0.510,0.935,102.778,116.667,388.889,797.222,2.778,/
57,-0.150,0.480,0.960,63.889,116.667,383.333,861.111,63.889,/
58,-0.225,0.375,0.805,127.778,111.111,391.667,847.222,13.889,/
59,-0.275,0.325,0.755,66.667,116.667,391.667,855.556,8.333,/
60,-0.315,0.280,0.800,61.111,113.889,388.889,863.889,8.333,/
61,-0.375,0.335,0.745,100.000,116.667,377.778,836.111,27.778,/
62,-0.265,0.240,0.730,183.333,113.889,375.000,811.111,25.000,/
63,-0.335,0.275,0.725,63.889,116.667,388.889,786.111,25.000,/
64,-0.490,0.115,0.690,197.222,116.667,394.444,816.667,30.556,/
65,-0.390,0.325,0.765,63.889,111.111,391.667,850.000,33.333,/
66,-0.240,0.340,0.920,58.333,116.667,386.111,888.889,38.889,/
67,-0.260,0.420,0.930,66.667,116.667,388.889,863.889,25.000,/
68,-0.260,0.375,0.845,58.333,116.667,375.000,833.333,30.556,/
69,-0.240,0.345,0.870,158.333,111.111,358.333,808.333,25.000,/
70,-0.305,0.305,0.890,136.111,116.667,388.889,777.778,30.556,/
71,-0.310,0.375,0.800,108.333,108.333,391.667,852.778,75.000,/
72,-0.305,0.310,0.875,58.333,116.667,397.222,869.444,16.667,/
73,-0.305,0.370,0.880,58.333,111.111,391.667,883.333,13.889,/
74,-0.320,0.310,0.750,63.889,116.667,391.667,855.556,27.778,/
75,-0.365,0.260,0.750,63.889,116.667,377.778,847.222,8.333,/
76,-0.405,0.235,0.845,72.222,108.333,361.111,811.111,36.111,/
77,-0.385,0.320,0.740,63.889,116.667,405.556,805.556,5.556,/
78,-0.280,0.275,0.640,66.667,113.889,372.222,836.111,30.556,/
79,-0.210,0.505,0.955,88.889,116.667,388.889,822.222,13.889,/
80,-0.445,0.120,0.420,172.222,116.667,402.778,863.889,41.667,/
81,-0.635,-0.060,0.610,58.333,116.667,400.000,872.222,8.333,/
82,-0.530,0.115,0.820,77.778,111.111,391.667,852.778,19.444,/
83,-0.280,0.410,0.425,69.444,105.556,341.667,822.222,30.556,/
84,-0.200,0.415,0.445,136.111,105.556,352.778,786.111,36.111,/
85,-0.185,0.510,0.955,130.556,113.889,375.000,811.111,25.000,/
86,-0.270,0.340,0.965,58.333,113.889,394.444,830.556,19.444,/
87,-0.265,0.445,0.865,61.111,111.111,394.444,866.667,36.111,/
88,-0.400,0.285,0.290,72.222,105.556,372.222,877.778,11.111,/
89,-0.520,0.180,0.490,58.333,116.667,383.333,850.000,27.778,/
90,-0.335,0.430,0.795,61.111,111.111,372.222,805.556,44.444,/
91,-0.165,0.540,0.885,58.333,111.111,375.000,813.889,8.333,/
92,-0.115,0.560,0.435,50.000,97.222,325.000,825.000,11.111,/
93,-0.065,1.505,0.130,55.556,83.333,94.444,822.222,2.778,f
94,0.570,2.220,-0.475,58.333,116.667,116.667,580.556,241.667,V
95,0.125,1.520,1.185,94.444,83.333,100.000,891.667,311.111,f
96,0.795,2.255,-0.340,58.333,116.667,116.667,666.667,225.000,V
97,0.215,0.880,1.170,61.111,111.111,372.222,883.333,216.667,/
98,-0.025,0.520,0.955,161.111,113.889,369.444,830.556,52.778,/
99,-0.195,0.385,0.890,69.444,113.889,369.444,794.444,36.111,/
100,-0.235,0.440,0.850,52.778,108.333,358.333,819.444,25.000,/
101,-0.290,1.190,0.360,133.333,108.333,108.333,794.444,25.000,f
102,0.460,1.955,-0.710,58.333,116.667,116.667,611.111,183.333,V
103,-0.090,1.365,0.605,125.000,111.111,111.111,930.556,319.444,f
104,0.555,1.970,-0.675,58.333,116.667,116.667,686.111,244.444,V
105,-0.200,1.180,0.440,61.111,86.111,97.222,850.000,163.889,f
106,0.140,1.990,-0.770,58.333,116.667,116.667,652.778,197.222,V
107,-0.080,1.425,0.120,63.889,91.667,102.778,852.778,200.000,f
108,0.565,2.215,-0.455,58.333,116.667,116.667,627.778,225.000,V
109,0.065,0.610,0.935,55.556,108.333,380.556,894.444,266.667,/
110,-0.265,0.380,0.655,194.444,111.111,391.667,886.111,8.333,/
111,-0.455,-0.090,0.720,141.667,111.111,391.667,816.667,69.444,/
112,-0.270,0.370,0.885,58.333,111.111,377.778,866.667,50.000,/
113,-0.205,0.445,0.865,75.000,105.556,358.333,830.556,36.111,/
114,-0.170,0.125,0.980,61.111,105.556,361.111,805.556,25.000,/
115,-0.205,0.510,0.935,122.222,116.667,369.444,808.333,2.778,/
116,-0.270,0.360,0.675,119.444,113.889,386.111,813.889,5.556,/
117,-0.375,0.295,0.820,58.333,116.667,405.556,838.889,25.000,/
118,-0.170,0.540,1.100,83.333,116.667,391.667,858.333,19.444,/
119,-0.230,0.430,0.965,61.111,113.889,375.000,863.889,5.556,/
120,-0.210,0.420,0.845,58.333,111.111,361.111,830.556,33.333,/
121,-0.330,0.330,0.700,58.333,111.111,363.889,797.222,33.333,/
122,-0.285,0.275,0.810,63.889,111.111,372.222,788.889,8.333,/
123,-0.270,0.455,0.970,55.556,111.111,394.444,811.111,22.222,/
124,-0.260,0.470,0.920,69.444,116.667,402.778,900.000,88.889,/
125,-0.180,0.600,1.020,150.000,116.667,394.444,875.000,25.000,/
126,-0.075,0.630,1.020,80.556,113.889,391.667,830.556,44.444,/
127,-0.080,0.675,1.015,180.556,116.667,377.778,836.111,5.556,/
128,-0.140,0.500,0.890,172.222,113.889,355.556,805.556,30.556,/
129,-0.360,0.230,0.720,180.556,111.111,375.000,808.333,2.778,/
130,-0.470,0.255,0.680,191.667,116.667,400.000,844.444,36.111,/
131,-0.290,0.415,0.820,58.333,111.111,391.667,852.778,8.333,/
132,-0.250,0.340,0.900,58.333,116.667,386.111,877.778,25.000,/
133,-0.275,0.415,0.905,55.556,108.333,377.778,850.000,27.778,/
134,0.345,2.025,-0.765,58.333,113.889,113.889,686.111,163.889,V
135,-0.155,1.415,0.505,147.222,88.889,105.556,838.889,152.778,f
136,-0.145,0.460,1.005,61.111,111.111,358.333,830.556,8.333,/
137,-0.390,0.235,0.655,80.556,113.889,375.000,802.778,27.778,/
138,-0.495,0.165,0.650,69.444,116.667,402.778,858.333,55.556,/
139,-0.485,0.155,0.735,100.000,116.667,391.667,877.778,19.444,/
140,-0.320,0.250,0.845,55.556,108.333,391.667,858.333,19.444,/
141,-0.250,0.345,0.855,130.556,113.889,377.778,855.556,2.778,/
142,-0.325,0.180,0.835,194.444,108.333,355.556,813.889,41.667,/
143,-0.230,0.175,0.845,58.333,111.111,372.222,780.556,33.333,/
144,-0.220,0.370,0.940,58.333,113.889,391.667,838.889,58.333,/
145,-0.200,0.345,0.840,58.333,108.333,388.889,897.222,58.333,/
146,-0.285,0.310,0.810,63.889,116.667,400.000,919.444,22.222,/
147,-0.225,0.445,0.850,61.111,113.889,388.889,852.778,66.667,/
148,-0.270,0.295,0.880,63.889,116.667,375.000,850.000,2.778,/
149,-0.270,0.430,0.725,61.111,113.889,372.222,800.000,50.000,/
150,-0.300,0.140,0.825,58.333,111.111,391.667,811.111,11.111,/
151,-0.245,0.360,0.915,72.222,116.667,388.889,861.111,50.000,/
152,-0.225,0.380,0.905,108.333,108.333,377.778,869.444,8.333,/
153,-0.185,0.370,0.880,58.333,116.667,402.778,869.444,0.000,/
154,-0.110,0.475,0.945,63.889,116.667,388.889,875.000,5.556,/
155,-0.160,0.400,0.885,144.444,113.889,377.778,858.333,16.667,/
156,-0.160,0.460,0.905,61.111,116.667,355.556,822.222,36.111,/
157,-0.205,0.470,1.010,69.444,108.333,361.111,772.222,50.000,/
158,-0.075,0.505,0.970,55.556,105.556,375.000,800.000,27.778,/
159,-0.105,0.410,0.950,55.556,111.111,377.778,836.111,36.111,/
160,-0.125,0.440,0.995,58.333,113.889,397.222,872.222,36.111,/
161,-0.210,0.420,0.805,136.111,116.667,386.111,888.889,16.667,/
162,-0.260,0.330,0.775,58.333,116.667,375.000,850.000,38.889,/
163,-0.335,0.285,0.730,191.667,108.333,361.111,805.556,44.444,/
164,-0.445,0.155,0.585,100.000,113.889,372.222,808.333,2.778,/
165,-0.420,0.240,0.765,152.778,116.667,375.000,836.111,27.778,/
166,-0.330,0.320,0.870,61.111,116.667,394.444,844.444,8.333,/
167,-0.220,0.440,0.800,58.333,113.889,397.222,863.889,19.444,/
168,-0.410,0.300,0.745,58.333,116.667,386.111,861.111,2.778,/
169,-0.215,0.425,0.865,127.778,108.333,372.222,838.889,22.222,/
170,-0.255,0.390,0.775,136.111,116.667,386.111,841.667,2.778,/
171,-0.345,0.265,0.580,86.111,116.667,355.556,816.667,25.000,/
172,-0.465,0.135,0.710,186.111,116.667,388.889,800.000,16.667,/
173,-0.365,0.210,0.575,88.889,116.667,386.111,836.111,36.111,/
174,-0.340,0.380,0.800,100.000,113.889,388.889,861.111,25.000,/
175,-0.225,0.395,0.945,58.333,116.667,386.111,888.889,27.778,/
176,-0.130,0.460,0.905,158.333,111.111,383.333,852.778,36.111,/
177,-0.210,0.300,0.845,58.333,111.111,361.111,816.667,36.111,/
178,-0.265,0.385,0.820,183.333,116.667,375.000,791.667,25.000,/
179,-0.260,0.200,0.755,55.556,102.778,361.111,805.556,13.889,/
180,-0.265,0.275,0.710,111.111,111.111,391.667,822.222,16.667,/
181,-0.250,0.340,0.760,58.333,116.667,405.556,886.111,63.889,/
182,-0.255,0.250,0.800,63.889,116.667,388.889,886.111,0.000,/
183,-0.255,0.305,0.700,52.778,108.333,363.889,836.111,50.000,/
184,-0.270,0.270,0.865,58.333,108.333,375.000,838.889,2.778,/
185,-0.245,0.210,0.740,52.778,105.556,361.111,827.778,11.111,/
186,-0.310,0.325,0.760,66.667,116.667,391.667,797.222,30.556,/
187,-0.260,0.230,0.815,58.333,105.556,372.222,825.000,27.778,/
188,-0.280,0.185,0.705,61.111,111.111,388.889,836.111,11.111,/
189,-0.295,0.210,0.390,58.333,111.111,358.333,875.000,38.889,/
190,-0.225,1.435,0.080,69.444,91.667,105.556,850.000,25.000,f
191,0.460,1.785,-0.560,58.333,116.667,116.667,563.889,286.111,V
192,0.100,1.245,0.575,75.000,105.556,105.556,855.556,291.667,f
193,0.105,1.265,-0.110,163.889,77.778,158.333,750.000,105.556,N
194,0.075,0.950,0.455,152.778,116.667,372.222,813.889,63.889,f
195,-0.195,0.225,0.785,188.889,116.667,400.000,869.444,55.556,/
196,-0.500,0.095,0.515,166.667,116.667,391.667,894.444,25.000,/
197,-0.745,-0.215,0.320,197.222,113.889,375.000,880.556,13.889,/
198,-0.745,-0.100,0.570,66.667,116.667,377.778,836.111,44.444,/
199,-0.495,0.080,0.830,58.333,113.889,375.000,827.778,8.333,/
200,-0.285,0.360,0.915,58.333,113.889,366.667,794.444,33.333,/
201,-0.125,0.425,1.040,80.556,116.667,388.889,811.111,16.667,/
202,-0.090,0.420,1.115,55.556,111.111,375.000,858.333,47.222,/
203,-0.150,0.380,0.995,63.889,116.667,388.889,858.333,0.000,/
204,-0.080,0.435,0.910,69.444,116.667,375.000,850.000,8.333,/
205,-0.130,0.410,0.920,58.333,113.889,394.444,861.111,11.111,/
206,-0.220,0.155,0.865,58.333,111.111,369.444,844.444,16.667,/
207,-0.245,0.275,0.870,119.444,116.667,372.222,797.222,47.222,/
208,-0.165,0.140,0.945,61.111,116.667,363.889,808.333,11.111,/
209,-0.165,0.350,0.415,58.333,111.111,369.444,811.111,2.778,/
210,-0.155,0.265,0.870,52.778,111.111,391.667,855.556,44.444,/
211,-0.230,0.210,0.765,61.111,111.111,386.111,900.000,44.444,/
212,-0.330,0.075,0.225,102.778,102.778,352.778,858.333,41.667,/
213,-0.270,0.220,0.775,66.667,116.667,375.000,830.556,27.778,/
214,-0.240,0.895,0.060,105.556,77.778,88.889,786.111,44.444,f
215,-0.205,1.645,0.100,61.111,111.111,111.111,775.000,11.111,f
216,-0.140,1.045,-0.275,58.333,80.556,144.444,797.222,22.222,N
217,0.565,1.815,-0.470,58.333,116.667,119.444,550.000,247.222,V
218,0.115,0.520,1.005,63.889,113.889,375.000,955.556,405.556,/
219,-0.100,0.260,0.885,197.222,113.889,375.000,850.000,105.556,/
220,-0.240,0.320,0.810,169.444,116.667,372.222,855.556,5.556,/
221,-0.260,0.155,0.700,150.000,113.889,375.000,811.111,44.444,/
222,-0.315,0.670,0.005,94.444,105.556,344.444,797.222,13.889,f
223,-0.250,0.940,-0.395,55.556,72.222,391.667,727.778,69.444,N
224,-0.210,1.005,-0.295,113.889,80.556,122.222,708.333,19.444,N
225,0.270,1.325,-0.315,58.333,116.667,405.556,530.556,177.778,V
226,0.140,0.645,0.975,63.889,113.889,388.889,902.778,372.222,/
227,0.000,0.530,0.970,86.111,113.889,386.111,869.444,33.333,/
228,-0.160,0.450,0.930,61.111,111.111,375.000,844.444,25.000,/
229,-0.080,0.380,0.750,161.111,108.333,344.444,816.667,27.778,/
230,-0.270,0.220,0.750,191.667,105.556,352.778,780.556,36.111,/
231,-0.365,0.240,0.675,100.000,116.667,372.222,811.111,30.556,/
232,-0.320,0.365,0.680,58.333,116.667,405.556,819.444,8.333,/
233,-0.280,0.425,0.815,72.222,116.667,402.778,866.667,47.222,/
234,-0.275,0.480,0.885,63.889,116.667,394.444,875.000,8.333,/
235,-0.160,0.540,0.850,197.222,116.667,375.000,850.000,25.000,/
236,-0.170,0.485,0.875,188.889,116.667,372.222,805.556,44.444,/
237,-0.295,0.375,0.685,191.667,111.111,377.778,805.556,0.000,/
238,-0.370,0.330,0.625,166.667,116.667,375.000,825.000,19.444,/
239,-0.400,0.320,0.745,66.667,116.667,386.111,836.111,11.111,/
240,-0.400,0.335,0.640,55.556,113.889,400.000,855.556,19.444,/
241,-0.345,0.440,0.695,86.111,116.667,397.222,855.556,0.000,/
242,-0.250,0.315,0.715,69.444,116.667,388.889,838.889,16.667,/
243,-0.285,0.575,0.050,130.556,113.889,361.111,827.778,11.111,f
244,-0.405,0.210,0.730,194.444,113.889,361.111,830.556,2.778,/
245,-0.355,0.895,0.430,158.333,86.111,105.556,766.667,63.889,f
246,-0.235,0.695,0.025,47.222,94.444,341.667,819.444,52.778,f
247,-0.180,1.015,-0.335,97.222,80.556,105.556,800.000,19.444,N
248,0.585,1.715,-0.475,58.333,116.667,116.667,605.556,194.444,V
249,0.120,1.450,0.280,58.333,91.667,108.333,927.778,322.222,f
250,0.035,1.625,0.210,188.889,116.667,116.667,822.222,105.556,f
251,-0.130,1.540,0.085,125.000,105.556,105.556,802.778,19.444,f
252,0.290,1.555,-0.415,58.333,116.667,405.556,527.778,275.000,V
253,0.040,0.515,0.865,63.889,116.667,375.000,850.000,322.222,/
254,-0.065,0.390,0.795,197.222,116.667,391.667,830.556,19.444,/
255,-0.205,0.160,0.530,55.556,108.333,375.000,908.333,77.778,/
256,-0.350,0.175,0.655,55.556,113.889,391.667,855.556,52.778,/
257,-0.355,0.260,0.665,63.889,111.111,377.778,833.333,22.222,/
258,-0.390,0.195,0.725,163.889,116.667,380.556,833.333,0.000,/
259,-0.415,0.145,0.665,133.333,116.667,358.333,822.222,11.111,/
260,-0.360,0.600,-0.005,194.444,108.333,358.333,791.667,30.556,f
261,-0.305,0.250,0.820,61.111,116.667,383.333,833.333,41.667,/
262,-0.255,0.400,0.735,52.778,108.333,391.667,847.222,13.889,/
263,-0.305,0.190,0.650,177.778,113.889,377.778,872.222,25.000,/
264,-0.375,0.180,0.690,175.000,108.333,375.000,861.111,11.111,/
265,-0.420,0.150,0.625,61.111,113.889,377.778,836.111,25.000,/
266,-0.395,0.160,0.645,58.333,108.333,372.222,800.000,36.111,/
267,-0.365,0.210,0.735,105.556,113.889,366.667,811.111,11.111,/
268,-0.330,0.230,0.745,61.111,111.111,388.889,808.333,2.778,/
269,-0.335,0.175,0.705,61.111,111.111,400.000,880.556,72.222,/
270,-0.235,0.310,0.850,119.444,113.889,402.778,891.667,11.111,/
271,-0.270,0.225,0.765,86.111,116.667,372.222,850.000,41.667,/
272,-0.255,0.345,0.780,130.556,116.667,377.778,827.778,22.222,/
273,-0.275,0.195,0.780,172.222,113.889,355.556,822.222,5.556,/
274,-0.285,0.320,0.800,113.889,113.889,391.667,794.444,27.778,/
275,-0.240,0.295,0.745,147.222,113.889,394.444,833.333,38.889,/
276,-0.285,0.260,0.755,75.000,113.889,391.667,880.556,47.222,/
277,-0.345,0.225,0.765,147.222,113.889,372.222,886.111,5.556,/
278,-0.375,0.120,0.590,158.333,111.111,377.778,841.667,44.444,/
279,-0.425,0.040,0.405,61.111,111.111,375.000,852.778,11.111,/
280,-0.450,0.195,0.790,194.444,116.667,377.778,822.222,30.556,/
281,-0.355,0.240,0.780,50.000,108.333,361.111,825.000,2.778,/
282,-0.325,0.145,0.560,138.889,111.111,363.889,816.667,8.333,/
283,-0.385,1.740,-0.005,55.556,108.333,108.333,833.333,16.667,f
284,0.280,1.750,-0.770,58.333,116.667,116.667,569.444,263.889,V
285,-0.125,1.000,0.185,66.667,116.667,355.556,908.333,338.889,f
286,0.485,2.010,-0.740,58.333,116.667,116.667,713.889,194.444,V
287,-0.055,2.260,0.310,72.222,116.667,116.667,855.556,141.667,f
288,0.065,0.590,1.105,55.556,111.111,338.889,825.000,30.556,/
289,0.025,0.500,1.030,180.556,116.667,377.778,800.000,25.000,/
290,-0.195,0.280,0.890,61.111,111.111,394.444,863.889,63.889,/
291,-0.225,0.230,0.750,58.333,111.111,391.667,900.000,36.111,/
292,-0.255,0.315,0.840,141.667,116.667,380.556,863.889,36.111,/
293,-0.290,0.275,0.815,58.333,108.333,375.000,850.000,13.889,/
294,-0.300,0.095,0.810,80.556,111.111,358.333,838.889,11.111,/
295,-0.305,0.255,0.890,97.222,113.889,355.556,800.000,38.889,/
296,-0.080,0.380,1.190,80.556,116.667,402.778,819.444,19.444,/
297,0.025,0.330,1.115,77.778,113.889,366.667,827.778,8.333,/
298,0.070,0.400,0.965,172.222,108.333,366.667,861.111,33.333,/
299,-0.335,0.135,0.730,136.111,111.111,383.333,863.889,2.778,/
300,-0.725,-0.145,0.410,152.778,108.333,380.556,869.444,5.556,/
301,-0.765,-0.190,0.415,55.556,111.111,375.000,836.111,33.333,/
302,-0.635,-0.125,0.540,86.111,113.889,355.556,811.111,25.000,/
303,-0.525,-0.020,0.675,161.111,116.667,363.889,791.667,19.444,/
304,-0.325,0.355,0.840,63.889,116.667,391.667,838.889,47.222,/
305,-0.270,0.330,0.910,58.333,116.667,402.778,858.333,19.444,/
306,-0.340,0.245,0.740,58.333,116.667,386.111,897.222,38.889,/
307,-0.385,0.190,0.675,55.556,108.333,377.778,852.778,44.444,/
308,-0.400,0.215,0.695,111.111,116.667,375.000,838.889,13.889,/
309,-0.455,0.765,-0.380,172.222,105.556,169.444,775.000,63.889,f
310,-0.270,1.540,0.120,58.333,111.111,111.111,805.556,30.556,f
311,0.470,2.235,-0.445,58.333,116.667,405.556,533.333,272.222,V
312,0.055,0.415,1.040,58.333,105.556,377.778,897.222,363.889,/
313,0.665,2.270,-0.495,58.333,116.667,116.667,652.778,244.444,V
314,0.045,1.705,1.025,61.111,88.889,105.556,902.778,250.000,f
315,-0.070,1.245,-0.235,141.667,77.778,91.667,794.444,108.333,N
316,-0.115,1.195,-0.230,86.111,69.444,108.333,794.444,0.000,N
317,-0.070,1.285,-0.195,155.556,83.333,102.778,786.111,8.333,N
318,0.070,1.980,0.370,63.889,116.667,116.667,808.333,22.222,f
319,0.055,1.445,-0.045,105.556,72.222,91.667,741.667,66.667,N
320,0.010,1.100,-0.035,91.667,116.667,166.667,502.778,238.889,V
321,0.175,0.685,1.040,61.111,116.667,397.222,936.111,433.333,/
322,0.085,0.650,1.035,52.778,108.333,375.000,877.778,58.333,/
323,-0.070,0.470,0.960,61.111,113.889,358.333,858.333,19.444,/
324,-0.185,0.420,0.890,69.444,116.667,355.556,805.556,52.778,/
325,-0.260,0.245,0.835,55.556,108.333,366.667,786.111,19.444,/
326,-0.335,0.220,0.710,75.000,116.667,394.444,805.556,19.444,/
327,-0.360,0.205,0.680,55.556,111.111,377.778,847.222,41.667,/
328,-0.475,0.080,0.490,141.667,111.111,391.667,916.667,69.444,/
329,-0.510,0.070,0.665,58.333,113.889,391.667,869.444,47.222,/
330,-0.440,0.160,0.670,55.556,111.111,377.778,830.556,38.889,/
331,-0.280,0.245,0.775,58.333,113.889,377.778,836.111,5.556,/
332,-0.230,0.235,0.760,66.667,116.667,358.333,822.222,13.889,/
333,-0.220,0.190,0.845,58.333,113.889,380.556,822.222,0.000,/
334,-0.235,0.360,0.825,55.556,113.889,400.000,816.667,5.556,/
335,-0.260,0.265,0.790,63.889,116.667,405.556,875.000,58.333,/
336,-0.200,0.335,0.880,63.889,113.889,388.889,866.667,8.333,/
337,-0.165,0.455,0.910,116.667,116.667,391.667,869.444,2.778,/
338,-0.205,0.505,0.910,63.889,113.889,375.000,844.444,25.000,/
339,-0.140,0.550,1.010,61.111,113.889,358.333,802.778,41.667,/
340,-0.055,0.600,0.935,52.778,105.556,375.000,788.889,13.889,/
341,-0.330,0.320,0.770,194.444,116.667,405.556,827.778,38.889,/
342,-0.390,0.280,0.590,58.333,113.889,402.778,913.889,86.111,/
343,-0.360,0.230,0.600,55.556,111.111,391.667,897.222,16.667,/
344,-0.290,0.290,0.700,58.333,113.889,394.444,833.333,63.889,/
345,-0.265,0.355,0.800,58.333,113.889,372.222,822.222,11.111,/
346,-0.305,0.365,0.700,186.111,116.667,369.444,805.556,16.667,/
347,-0.360,0.255,0.665,77.778,113.889,375.000,808.333,2.778,/
348,-0.410,0.285,0.620,188.889,116.667,405.556,844.444,36.111,/
349,-0.435,0.270,0.615,58.333,116.667,405.556,877.778,33.333,/
350,-0.255,0.480,0.745,72.222,116.667,388.889,872.222,5.556,/
351,-0.180,0.465,0.850,58.333,113.889,386.111,852.778,19.444,/
352,-0.190,1.155,-0.105,63.889,105.556,208.333,838.889,13.889,f
353,0.060,2.020,-0.415,58.333,116.667,116.667,580.556,258.333,V
354,0.040,0.860,1.015,47.222,105.556,355.556,844.444,263.889,/
355,0.625,2.370,-0.475,58.333,116.667,116.667,666.667,177.778,V
356,0.000,0.790,0.975,55.556,113.889,391.667,883.333,216.667,/
357,0.635,2.130,-0.480,58.333,116.667,116.667,652.778,230.556,V
358,-0.040,2.145,0.265,61.111,111.111,111.111,916.667,263.889,f
359,-0.075,1.280,0.330,152.778,100.000,100.000,858.333,58.333,f
360,0.065,1.215,-0.385,58.333,105.556,136.111,588.889,269.444,V
361,0.025,0.765,0.985,133.333,113.889,355.556,877.778,288.889,/
362,-0.070,0.600,0.970,180.556,116.667,375.000,780.556,97.222,/
363,-0.265,0.465,0.595,61.111,108.333,391.667,844.444,63.889,/
364,-0.300,0.365,0.775,61.111,111.111,394.444,883.333,38.889,/
365,-0.315,0.405,0.990,63.889,116.667,375.000,872.222,11.111,/
366,-0.205,0.580,0.805,183.333,116.667,388.889,819.444,52.778,/
367,-0.225,0.535,0.765,138.889,108.333,361.111,838.889,19.444,/
368,-0.165,0.375,0.855,191.667,113.889,358.333,805.556,33.333,/
369,-0.180,0.415,0.795,147.222,113.889,377.778,800.000,5.556,/
370,-0.240,0.310,0.875,52.778,108.333,361.111,811.111,11.111,/
371,-0.250,0.390,0.845,52.778,108.333,375.000,833.333,22.222,/
372,-0.225,0.415,0.820,119.444,116.667,386.111,847.222,13.889,/
373,-0.210,0.395,0.800,147.222,113.889,391.667,875.000,27.778,/
374,-0.215,0.415,0.775,63.889,116.667,375.000,836.111,38.889,/
375,-0.195,1.435,-0.015,166.667,88.889,102.778,816.667,19.444,f
376,-0.380,1.680,-0.190,66.667,116.667,116.667,783.333,33.333,f
377,-0.060,1.780,-0.800,58.333,116.667,405.556,486.111,297.222,V
378,-0.245,0.495,0.770,163.889,116.667,394.444,877.778,391.667,/
379,0.455,2.020,-0.715,58.333,116.667,116.667,711.111,166.667,V
380,-0.075,1.660,0.130,63.889,94.444,108.333,925.000,213.889,f
381,0.045,1.280,0.135,108.333,105.556,341.667,825.000,100.000,f
382,0.055,2.400,0.565,66.667,83.333,91.667,825.000,0.000,f
383,0.125,1.515,0.620,77.778,72.222,83.333,794.444,30.556,f
384,0.125,0.830,1.270,61.111,113.889,388.889,836.111,41.667,/
385,-0.020,0.630,0.945,166.667,116.667,394.444,833.333,2.778,/
386,-0.195,0.520,0.975,66.667,116.667,391.667,852.778,19.444,/
387,-0.145,0.505,1.015,58.333,108.333,375.000,875.000,22.222,/
388,-0.195,0.555,0.925,111.111,113.889,375.000,852.778,22.222,/
389,-0.240,0.375,0.780,58.333,108.333,375.000,827.778,25.000,/
390,-0.235,0.380,0.815,61.111,113.889,375.000,822.222,5.556,/
391,-0.215,0.455,0.755,133.333,113.889,372.222,802.778,19.444,/
392,-0.325,0.360,0.790,61.111,111.111,363.889,827.778,25.000,/
393,-0.325,0.425,0.770,127.778,111.111,391.667,833.333,5.556,/
394,-0.340,0.355,0.655,72.222,105.556,391.667,880.556,47.222,/
395,-0.420,0.300,0.650,163.889,113.889,391.667,872.222,8.333,/
396,-0.415,0.180,0.655,63.889,116.667,375.000,852.778,19.444,/
397,-0.390,0.090,0.745,61.111,113.889,358.333,797.222,55.556,/
398,-0.435,0.230,0.670,197.222,113.889,377.778,783.333,13.889,/
399,-0.420,0.250,0.650,52.778,108.333,377.778,811.111,27.778,/
400,-0.330,0.190,0.760,61.111,113.889,391.667,855.556,44.444,/
401,-0.280,0.305,0.750,194.444,113.889,402.778,916.667,61.111,/
402,-0.245,0.345,0.675,61.111,111.111,375.000,863.889,52.778,/
403,-0.345,-0.185,0.660,144.444,108.333,388.889,800.000,63.889,/
404,-0.350,0.215,0.720,113.889,113.889,375.000,852.778,52.778,/
405,-0.325,0.235,0.645,119.444,111.111,369.444,822.222,30.556,/
406,-0.310,0.170,0.740,55.556,105.556,375.000,819.444,2.778,/
407,-0.330,0.280,0.715,61.111,111.111,391.667,841.667,22.222,/
408,-0.365,0.185,0.505,197.222,111.111,400.000,863.889,22.222,/
409,-0.325,0.185,0.650,61.111,108.333,375.000,866.667,2.778,/
410,-0.335,0.180,0.840,113.889,113.889,375.000,852.778,13.889,/
411,-0.135,0.430,0.960,77.778,111.111,375.000,830.556,22.222,/
412,-0.085,0.430,0.995,122.222,105.556,355.556,794.444,36.111,/
413,-0.035,0.515,0.965,66.667,116.667,372.222,813.889,19.444,/
414,0.040,0.605,1.030,58.333,108.333,388.889,822.222,8.333,/
415,-0.010,0.480,0.920,183.333,116.667,405.556,908.333,86.111,/
416,-0.025,0.440,0.910,158.333,111.111,394.444,908.333,0.000,/
417,-0.205,0.250,0.820,58.333,116.667,363.889,850.000,58.333,/
418,-0.235,0.155,0.745,69.444,105.556,358.333,813.889,36.111,/
419,-0.260,0.170,0.655,177.778,111.111,355.556,805.556,8.333,/
420,-0.280,0.785,-0.055,63.889,100.000,111.111,769.444,36.111,f
421,0.045,1.435,-0.775,58.333,116.667,116.667,586.111,183.333,V
422,-0.100,0.810,0.275,47.222,94.444,352.778,947.222,361.111,f
423,0.405,1.670,-0.585,58.333,116.667,116.667,833.333,113.889,V
424,0.055,0.475,1.065,55.556,113.889,388.889,886.111,52.778,/
425,-0.090,0.395,0.880,61.111,111.111,372.222,844.444,41.667,/
426,-0.200,0.285,0.770,69.444,116.667,355.556,822.222,22.222,/
427,-0.350,0.160,0.615,197.222,113.889,375.000,797.222,25.000,/
428,-0.700,-0.085,0.515,58.333,116.667,386.111,822.222,25.000,/
429,-0.455,0.110,0.295,80.556,105.556,391.667,841.667,19.444,/
430,-0.390,0.065,0.600,66.667,113.889,400.000,888.889,47.222,/
431,-0.595,-0.060,0.560,66.667,116.667,388.889,866.667,22.222,/
432,-0.450,0.100,0.675,69.444,113.889,386.111,850.000,16.667,/
433,-0.240,0.230,0.795,72.222,111.111,369.444,805.556,44.444,/
434,-0.100,0.415,1.025,63.889,111.111,358.333,788.889,16.667,/
435,-0.065,0.480,1.055,66.667,116.667,388.889,805.556,16.667,/
436,-0.100,0.410,0.870,58.333,113.889,402.778,891.667,86.111,/
437,-0.090,0.485,0.930,58.333,116.667,405.556,911.111,19.444,/
438,-0.040,0.475,1.065,61.111,113.889,375.000,858.333,52.778,/
439,-0.030,0.475,1.095,52.778,105.556,369.444,844.444,13.889,/
440,-0.020,0.510,1.050,144.444,111.111,361.111,816.667,27.778,/
441,-0.005,0.590,1.200,133.333,116.667,372.222,794.444,22.222,/
442,-0.065,0.565,1.130,175.000,116.667,402.778,836.111,41.667,/
443,-0.080,0.585,1.125,61.111,116.667,405.556,866.667,30.556,/
444,-0.050,0.695,0.930,72.222,116.667,388.889,880.556,13.889,/
445,0.005,0.620,1.060,61.111,113.889,394.444,858.333,22.222,/
446,-0.005,0.590,0.915,186.111,116.667,377.778,872.222,13.889,/
447,-0.255,0.330,0.600,197.222,113.889,369.444,813.889,58.333,/
448,-0.485,0.190,0.590,63.889,113.889,355.556,800.000,13.889,/
449,-0.385,0.175,0.790,58.333,116.667,361.111,800.000,0.000,/
450,-0.240,0.440,0.650,61.111,116.667,380.556,847.222,47.222,/
451,0.555,2.075,-0.605,58.333,116.667,116.667,722.222,125.000,V
452,0.020,0.730,0.940,133.333,116.667,391.667,933.333,211.111,/
453,0.320,1.930,-0.870,58.333,116.667,116.667,722.222,211.111,V
454,-0.730,0.630,-0.270,58.333,116.667,402.778,466.667,255.556,V
455,-0.150,0.430,0.875,55.556,105.556,341.667,850.000,383.333,/
456,-0.080,0.535,1.115,63.889,113.889,380.556,788.889,61.111,/
457,-0.075,0.575,1.050,186.111,116.667,402.778,858.333,69.444,/
458,-0.055,0.650,1.085,58.333,116.667,402.778,869.444,11.111,/
459,-0.045,0.665,1.025,125.000,113.889,397.222,902.778,33.333,/
460,-0.105,0.555,0.985,72.222,102.778,372.222,861.111,41.667,/
461,-0.160,0.410,0.855,69.444,105.556,358.333,850.000,11.111,/
462,-0.245,0.365,0.805,69.444,116.667,375.000,813.889,36.111,/
463,-0.210,0.330,0.925,58.333,105.556,391.667,805.556,8.333,/
464,-0.170,0.365,0.910,58.333,108.333,375.000,819.444,13.889,/
465,-0.140,0.430,0.965,63.889,113.889,388.889,855.556,36.111,/
466,-0.095,0.455,1.010,55.556,111.111,397.222,891.667,36.111,/
467,1.025,-1.555,0.200,183.333,2.778,319.444,541.667,350.000,V
468,0.035,0.600,1.015,86.111,116.667,388.889,902.778,361.111,/
469,0.035,0.545,1.055,177.778,111.111,358.333,841.667,61.111,/
470,-0.135,0.395,0.900,52.778,100.000,344.444,791.667,50.000,/
471,-0.220,0.225,0.780,188.889,116.667,372.222,802.778,11.111,/
472,-0.375,0.230,0.775,63.889,113.889,402.778,827.778,25.000,/
473,-0.585,-0.045,0.300,197.222,111.111,394.444,894.444,66.667,/
474,-0.760,-0.160,0.410,55.556,113.889,377.778,1005.556,111.111,/
475,-0.645,-0.115,0.665,66.667,116.667,375.000,852.778,152.778,/
476,-0.410,0.170,0.775,55.556,111.111,361.111,805.556,47.222,/
477,-0.325,0.305,0.810,58.333,116.667,386.111,811.111,5.556,/
478,-0.325,0.170,0.685,58.333,113.889,375.000,850.000,38.889,/
479,-0.710,-0.250,0.280,55.556,111.111,394.444,855.556,5.556,/
480,-0.585,0.015,0.425,61.111,116.667,405.556,888.889,33.333,/
481,-0.370,0.075,0.815,58.333,113.889,386.111,891.667,2.778,/
482,-0.220,0.240,0.710,58.333,113.889,397.222,836.111,55.556,/
483,-0.400,0.065,0.640,58.333,111.111,369.444,847.222,11.111,/
484,-0.345,0.170,0.740,86.111,113.889,358.333,811.111,36.111,/
485,-0.035,0.405,1.225,58.333,111.111,366.667,805.556,5.556,/
486,0.140,0.670,1.215,105.556,116.667,388.889,813.889,8.333,/
487,-0.060,0.435,0.865,61.111,113.889,402.778,875.000,61.111,/
488,-0.145,0.335,1.060,63.889,113.889,377.778,933.333,58.333,/
489,-0.025,0.560,1.215,63.889,116.667,391.667,852.778,80.556,/
490,0.150,0.700,1.110,130.556,113.889,375.000,816.667,36.111,/
491,-0.050,0.495,1.045,61.111,113.889,375.000,797.222,19.444,/
492,-0.170,0.230,0.845,55.556,105.556,358.333,794.444,2.778,/
493,-0.120,1.570,0.070,63.889,94.444,111.111,825.000,30.556,f
494,0.800,2.265,-0.425,58.333,116.667,119.444,572.222,252.778,V
495,0.065,1.400,0.445,63.889,97.222,111.111,925.000,352.778,f
496,0.840,2.290,-0.310,58.333,116.667,116.667,697.222,227.778,V
497,0.145,0.565,1.165,52.778,111.111,375.000,883.333,186.111,/
498,0.585,2.100,-0.500,58.333,116.667,116.667,719.444,163.889,V
499,0.080,0.600,1.105,88.889,105.556,344.444,858.333,138.889,/
500,0.610,2.000,-0.535,58.333,116.667,116.667,669.444,188.889,V
501,0.605,1.830,-0.285,58.333,116.667,405.556,455.556,213.889,V
502,0.245,1.395,0.285,58.333,88.889,102.778,927.778,472.222,f
503,0.005,1.565,0.270,197.222,113.889,113.889,841.667,86.111,f
504,0.015,1.755,0.235,83.333,94.444,108.333,883.333,41.667,f
505,0.040,0.625,1.065,127.778,113.889,377.778,861.111,22.222,/
506,-0.095,0.530,0.975,111.111,116.667,361.111,802.778,58.333,/
507,-0.195,0.415,0.925,172.222,100.000,341.667,791.667,11.111,/
508,-0.140,0.535,1.015,58.333,116.667,380.556,802.778,11.111,/
509,-0.150,0.495,0.890,61.111,113.889,400.000,852.778,50.000,/
510,-0.050,0.530,0.960,61.111,111.111,400.000,916.667,63.889,/
511,-0.065,0.375,1.045,141.667,108.333,363.889,880.556,36.111,/
512,-0.150,0.455,0.820,188.889,116.667,388.889,827.778,52.778,/
513,-0.225,0.475,0.705,94.444,111.111,355.556,825.000,2.778,/
514,-0.305,0.305,0.750,152.778,116.667,369.444,791.667,33.333,/
515,-0.295,0.270,0.915,111.111,111.111,388.889,808.333,16.667,/
516,-0.115,0.395,0.975,66.667,116.667,388.889,858.333,50.000,/
517,-0.155,0.370,0.885,144.444,113.889,377.778,875.000,16.667,/
518,-0.265,0.310,0.635,188.889,116.667,388.889,841.667,33.333,/
519,0.565,1.245,-0.550,58.333,116.667,116.667,827.778,13.889,V
520,0.045,0.585,-0.130,431116.667,116.667,352.778,455.556,372.222,V
521,-0.130,0.415,-0.560,163.889,116.667,144.444,458.333,2.778,V
522,-0.220,0.485,1.030,63.889,111.111,352.778,833.333,375.000,/
523,-0.145,0.510,0.975,197.222,113.889,372.222,802.778,30.556,/
524,-0.210,0.310,0.830,55.556,108.333,377.778,825.000,22.222,/
525,-0.265,0.255,0.720,102.778,116.667,402.778,863.889,38.889,/
526,0.375,1.655,-0.840,58.333,116.667,116.667,675.000,188.889,V
527,-0.065,1.220,0.375,61.111,111.111,111.111,866.667,191.667,f
528,-0.340,1.450,-0.155,55.556,80.556,88.889,858.333,8.333,f
529,-0.625,0.720,-0.655,66.667,83.333,402.778,711.111,147.222,N
530,-0.405,1.035,-0.525,55.556,75.000,94.444,758.333,47.222,N
531,-0.150,1.370,-0.255,83.333,75.000,91.667,780.556,22.222,N
532,0.120,1.480,0.760,61.111,97.222,111.111,875.000,94.444,f
533,0.005,0.530,1.035,175.000,105.556,377.778,911.111,36.111,/
534,-0.380,0.235,0.700,188.889,116.667,386.111,847.222,63.889,/
535,-0.505,0.170,0.630,152.778,116.667,372.222,847.222,0.000,/
536,0.205,1.855,-0.730,58.333,113.889,405.556,619.444,227.778,V
537,-0.045,0.465,0.650,69.444,113.889,383.333,850.000,230.556,/
538,-0.535,0.120,0.530,55.556,105.556,358.333,836.111,13.889,/
539,-0.385,0.320,0.660,63.889,116.667,394.444,838.889,2.778,/
540,-0.465,0.265,0.635,66.667,113.889,402.778,872.222,33.333,/
541,-0.420,0.195,0.700,58.333,111.111,394.444,875.000,2.778,/
542,-0.435,0.100,0.665,58.333,108.333,372.222,863.889,11.111,/
543,-0.445,0.205,0.710,66.667,116.667,361.111,825.000,38.889,/
544,0.215,2.025,-0.780,58.333,116.667,405.556,641.667,183.333,V
545,-0.145,1.050,-0.080,116.667,97.222,344.444,825.000,183.333,f
546,-0.425,1.280,0.780,169.444,83.333,102.778,833.333,8.333,f
547,-0.175,0.470,0.910,58.333,116.667,400.000,908.333,75.000,/
548,-0.290,0.255,0.705,55.556,105.556,383.333,897.222,11.111,/
549,0.410,2.110,-0.685,58.333,116.667,116.667,672.222,225.000,V
550,0.025,1.470,0.720,55.556,77.778,91.667,861.111,188.889,f
551,0.210,0.860,1.350,61.111,116.667,361.111,808.333,52.778,/
552,0.115,0.855,1.155,183.333,116.667,388.889,836.111,27.778,/
553,0.015,0.680,1.140,55.556,111.111,397.222,855.556,19.444,/
554,0.615,2.025,-0.565,58.333,116.667,116.667,680.556,175.000,V
555,0.275,1.980,-0.050,58.333,116.667,405.556,430.556,250.000,V
556,0.005,1.030,0.460,147.222,91.667,102.778,897.222,466.667,f
557,-0.060,1.235,-0.180,61.111,80.556,105.556,780.556,116.667,N
558,0.090,1.395,0.000,152.778,86.111,119.444,808.333,27.778,N
559,0.270,1.555,0.150,183.333,86.111,108.333,777.778,30.556,N
560,0.245,1.625,0.395,116.667,88.889,105.556,833.333,55.556,f
561,0.715,2.010,-0.385,58.333,111.111,113.889,611.111,222.222,V
562,-0.035,0.655,0.485,152.778,102.778,375.000,880.556,269.444,/
563,-0.280,0.445,0.510,197.222,116.667,394.444,891.667,11.111,/
564,-0.585,0.210,0.550,58.333,116.667,383.333,875.000,16.667,/
565,-0.495,0.230,0.720,52.778,102.778,355.556,847.222,27.778,/
566,0.220,1.885,-0.710,58.333,113.889,405.556,636.111,211.111,V
567,0.020,0.275,1.205,116.667,113.889,402.778,808.333,172.222,/
568,0.035,0.470,0.745,55.556,102.778,344.444,855.556,47.222,/
569,-0.115,0.500,0.870,69.444,116.667,394.444,847.222,8.333,/
570,0.455,1.730,-0.925,58.333,116.667,119.444,733.333,113.889,V
571,-0.585,0.835,-0.015,58.333,83.333,100.000,922.222,188.889,f
572,-0.250,0.360,0.855,58.333,111.111,358.333,852.778,69.444,/
573,-0.145,0.950,0.145,197.222,113.889,325.000,805.556,47.222,f
574,-0.080,1.165,-0.085,119.444,105.556,172.222,822.222,16.667,f
575,-0.420,1.015,-0.535,97.222,83.333,105.556,777.778,44.444,N
576,-0.050,2.280,0.395,63.889,83.333,94.444,866.667,88.889,f
577,0.045,1.345,-0.105,177.778,77.778,94.444,825.000,41.667,N
578,0.125,1.435,-0.010,144.444,83.333,111.111,836.111,11.111,N
579,0.165,2.080,0.535,144.444,83.333,94.444,866.667,30.556,f
580,0.060,0.650,1.105,155.556,102.778,358.333,858.333,8.333,/
581,-0.130,0.420,0.920,86.111,113.889,355.556,800.000,58.333,/
582,-0.180,0.515,0.830,80.556,111.111,355.556,811.111,11.111,/
583,-0.280,0.330,0.770,172.222,116.667,386.111,805.556,5.556,/
584,-0.575,0.120,0.375,161.111,113.889,402.778,877.778,72.222,/
585,-0.530,0.055,0.675,55.556,105.556,375.000,941.667,63.889,/
586,-0.375,0.280,0.760,58.333,116.667,372.222,847.222,94.444,/
587,-0.340,0.210,0.445,183.333,116.667,372.222,816.667,30.556,/
588,-0.705,0.875,0.100,127.778,88.889,105.556,791.667,25.000,f
589,-0.460,0.170,0.300,58.333,111.111,358.333,816.667,25.000,/
590,-0.380,0.350,0.705,58.333,116.667,402.778,841.667,25.000,/
591,-0.325,0.330,0.765,61.111,116.667,405.556,911.111,69.444,/
592,-0.245,0.310,0.690,58.333,113.889,377.778,894.444,16.667,/
593,-0.560,0.035,0.580,63.889,116.667,397.222,836.111,58.333,/
594,-0.430,0.290,0.705,66.667,116.667,388.889,855.556,19.444,/
595,-0.285,0.340,0.750,80.556,116.667,361.111,813.889,41.667,/
596,-0.295,0.740,0.180,77.778,111.111,361.111,811.111,2.778,f
597,-0.420,1.120,0.750,97.222,88.889,105.556,819.444,8.333,f
598,0.465,1.955,-0.600,58.333,116.667,116.667,580.556,238.889,V
599,-0.035,2.040,0.210,83.333,97.222,97.222,938.889,358.333,f
600,-0.065,1.240,-0.210,169.444,86.111,141.667,769.444,169.444,N
601,0.140,0.715,1.005,61.111,113.889,372.222,894.444,125.000,/
602,0.000,0.480,0.920,172.222,113.889,352.778,811.111,83.333,/
603,-0.015,0.505,0.900,141.667,113.889,369.444,797.222,13.889,/
604,-0.290,0.205,0.450,191.667,111.111,377.778,805.556,8.333,/
605,-0.615,-0.020,0.465,97.222,113.889,402.778,886.111,80.556,/
606,-0.275,0.315,0.765,58.333,108.333,394.444,944.444,58.333,/
607,-0.070,0.520,1.055,72.222,111.111,377.778,883.333,61.111,/
608,-0.095,0.505,0.815,58.333,108.333,375.000,850.000,33.333,/
609,-0.380,0.135,0.540,147.222,113.889,358.333,825.000,25.000,/
610,-0.405,0.135,0.750,63.889,113.889,375.000,797.222,27.778,/
611,-0.230,0.390,0.850,58.333,116.667,397.222,847.222,50.000,/
612,-0.330,0.135,0.515,166.667,116.667,391.667,872.222,25.000,/
613,-0.430,0.045,0.625,58.333,111.111,375.000,927.778,55.556,/
614,-0.430,0.115,0.575,155.556,108.333,377.778,861.111,66.667,/
615,1.090,-0.890,0.500,50.000,36.111,288.889,888.889,27.778,/
616,-0.415,0.095,0.670,58.333,116.667,377.778,786.111,102.778,/
617,-0.340,0.140,0.765,66.667,111.111,377.778,802.778,16.667,/
618,0.475,1.295,-0.820,58.333,116.667,116.667,677.778,125.000,V
619,-0.390,0.195,0.585,183.333,116.667,377.778,888.889,211.111,/
620,-0.230,0.340,0.785,66.667,116.667,405.556,900.000,11.111,/
621,-0.060,1.245,0.070,58.333,88.889,108.333,916.667,16.667,f
622,-0.180,1.205,0.340,125.000,94.444,105.556,822.222,94.444,f
623,-0.110,0.420,1.180,58.333,113.889,363.889,852.778,30.556,/
624,-0.085,0.460,0.800,147.222,113.889,361.111,788.889,63.889,/
625,-0.560,0.035,0.615,63.889,113.889,397.222,833.333,44.444,/
626,-0.415,0.995,0.160,63.889,116.667,388.889,852.778,19.444,f
627,-0.150,0.335,0.955,58.333,113.889,383.333,938.889,86.111,/
628,-0.215,0.390,0.835,66.667,116.667,383.333,863.889,75.000,/
629,-0.240,0.200,0.925,58.333,108.333,358.333,855.556,8.333,/
630,-0.260,0.360,0.895,55.556,111.111,361.111,816.667,38.889,/
631,-0.310,0.325,0.835,61.111,113.889,377.778,802.778,13.889,/
632,-0.355,0.250,0.830,58.333,116.667,372.222,825.000,22.222,/
633,-0.315,0.160,0.615,152.778,116.667,372.222,830.556,5.556,/
634,-0.570,0.155,0.655,69.444,116.667,405.556,852.778,22.222,/
635,-0.325,0.380,0.870,58.333,116.667,383.333,902.778,50.000,/
636,-0.195,0.335,0.960,52.778,108.333,375.000,850.000,52.778,/
637,-0.315,0.305,0.750,177.778,108.333,355.556,836.111,13.889,/
638,-0.360,0.255,0.725,152.778,116.667,358.333,791.667,44.444,/
639,-0.390,0.165,0.820,58.333,113.889,366.667,805.556,13.889,/
640,-0.270,0.315,1.030,61.111,116.667,402.778,819.444,13.889,/
641,-0.080,0.535,0.890,63.889,113.889,402.778,869.444,50.000,/
642,-0.215,0.380,0.930,152.778,116.667,372.222,922.222,52.778,/
643,-0.160,0.440,0.980,66.667,116.667,375.000,847.222,75.000,/
644,-0.145,0.355,1.015,66.667,116.667,375.000,819.444,27.778,/
645,-0.180,0.365,1.030,77.778,116.667,375.000,813.889,5.556,/
646,-0.155,0.560,1.060,97.222,116.667,377.778,816.667,2.778,/
647,-0.100,0.570,0.775,61.111,116.667,375.000,833.333,16.667,/
648,-0.395,0.130,0.615,66.667,116.667,397.222,833.333,0.000,/
649,-0.350,0.200,0.910,58.333,116.667,402.778,888.889,55.556,/
650,-0.120,0.375,1.125,72.222,116.667,386.111,850.000,38.889,/
651,-0.010,0.475,1.170,83.333,116.667,377.778,844.444,5.556,/
652,-0.085,0.450,1.095,55.556,108.333,352.778,833.333,11.111,/
653,-0.205,0.295,0.660,177.778,111.111,358.333,794.444,38.889,/
654,-0.660,-0.080,0.600,77.778,113.889,377.778,802.778,8.333,/
655,-0.380,0.265,0.915,58.333,116.667,405.556,852.778,50.000,/
656,-0.240,0.335,0.810,55.556,113.889,391.667,913.889,61.111,/
657,-0.490,0.135,0.715,58.333,116.667,388.889,872.222,41.667,/
658,-0.365,0.150,0.820,69.444,116.667,380.556,833.333,38.889,/
659,-0.355,0.750,-0.270,52.778,97.222,322.222,783.333,50.000,f
660,-0.305,1.350,-0.090,63.889,91.667,108.333,811.111,27.778,f
661,0.540,2.080,-0.335,58.333,116.667,405.556,550.000,261.111,V
662,0.105,0.600,1.120,55.556,108.333,391.667,894.444,344.444,/
663,0.670,2.035,-0.500,58.333,116.667,116.667,744.444,150.000,V
664,-0.050,1.235,-0.190,136.111,86.111,152.778,883.333,138.889,N
665,0.065,1.395,0.415,69.444,113.889,113.889,833.333,50.000,f
666,-0.100,1.050,-0.315,147.222,80.556,108.333,775.000,58.333,N
667,-0.130,0.385,1.005,58.333,116.667,358.333,858.333,83.333,/
668,-0.105,0.420,1.135,88.889,116.667,369.444,816.667,41.667,/
669,-0.155,0.445,0.890,136.111,116.667,386.111,816.667,0.000,/
670,-0.380,0.180,0.665,86.111,116.667,405.556,850.000,33.333,/
671,-0.330,0.330,0.760,61.111,111.111,391.667,875.000,25.000,/
672,-0.240,0.315,0.895,58.333,113.889,397.222,866.667,8.333,/
673,-0.270,0.235,0.770,52.778,108.333,358.333,847.222,19.444,/
674,-0.460,0.125,0.320,66.667,111.111,352.778,794.444,52.778,/
675,-0.120,0.485,0.805,58.333,113.889,358.333,800.000,5.556,/
676,-0.055,0.550,1.030,194.444,94.444,380.556,791.667,8.333,/
677,-0.150,1.065,-0.085,122.222,97.222,158.333,911.111,119.444,f
678,-0.255,1.885,0.045,172.222,116.667,116.667,930.556,19.444,f
679,-0.350,0.980,0.075,66.667,116.667,116.667,830.556,100.000,f
680,0.385,2.030,-0.575,58.333,116.667,405.556,619.444,211.111,V
681,0.110,0.685,1.080,80.556,113.889,358.333,877.778,258.333,/
682,0.015,0.540,0.985,86.111,113.889,369.444,791.667,86.111,/
683,-0.190,0.295,0.150,175.000,100.000,358.333,836.111,44.444,/
684,-0.535,0.015,0.675,58.333,113.889,394.444,869.444,33.333,/
685,-0.300,0.390,0.865,55.556,113.889,377.778,916.667,47.222,/
686,-0.195,0.400,0.885,55.556,111.111,394.444,847.222,69.444,/
687,-0.275,0.315,0.900,58.333,116.667,386.111,863.889,16.667,/
688,-0.395,0.055,0.620,141.667,108.333,355.556,822.222,41.667,/
689,-0.480,0.055,0.655,58.333,113.889,363.889,800.000,22.222,/
690,-0.350,0.250,0.865,58.333,111.111,358.333,816.667,16.667,/
691,-0.160,0.410,1.005,58.333,105.556,388.889,830.556,13.889,/
692,-0.115,0.455,0.905,158.333,113.889,400.000,866.667,36.111,/
693,-0.175,0.390,0.670,61.111,111.111,391.667,886.111,19.444,/
694,-0.505,0.080,0.915,72.222,113.889,372.222,861.111,25.000,/
695,-0.055,0.600,1.120,69.444,116.667,369.444,813.889,47.222,/
696,-0.100,0.455,0.870,125.000,105.556,358.333,788.889,25.000,/
697,-0.350,0.215,0.840,191.667,108.333,388.889,802.778,13.889,/
698,-0.360,0.215,0.860,58.333,105.556,388.889,880.556,77.778,/
699,-0.340,0.310,0.760,55.556,108.333,388.889,886.111,5.556,/
700,-0.235,0.430,0.885,122.222,113.889,397.222,847.222,38.889,/
701,-0.250,0.315,0.850,158.333,113.889,380.556,850.000,2.778,/
702,-0.320,0.270,0.890,58.333,116.667,369.444,827.778,22.222,/
703,-0.210,0.295,0.840,66.667,113.889,369.444,800.000,27.778,/
704,-0.315,0.255,0.805,61.111,113.889,375.000,827.778,27.778,/
705,-0.375,0.180,0.655,133.333,116.667,402.778,822.222,5.556,/
706,-0.395,0.100,0.660,58.333,111.111,391.667,858.333,36.111,/
707,-0.435,0.150,0.800,86.111,116.667,391.667,875.000,16.667,/
708,-0.380,0.150,0.710,188.889,116.667,386.111,869.444,5.556,/
709,-0.220,0.285,0.975,55.556,113.889,386.111,830.556,38.889,/
710,-0.120,0.365,1.005,141.667,108.333,363.889,822.222,8.333,/
711,-0.355,0.205,0.745,194.444,111.111,375.000,786.111,36.111,/
712,-0.325,-0.085,0.805,69.444,102.778,391.667,791.667,5.556,/
713,-0.220,0.375,0.780,72.222,108.333,394.444,888.889,97.222,/
714,-0.385,0.265,0.795,61.111,111.111,388.889,888.889,0.000,/
715,-0.225,0.515,0.520,63.889,116.667,375.000,852.778,36.111,/
716,-0.155,0.355,0.850,52.778,102.778,358.333,838.889,13.889,/
717,-0.235,0.320,0.685,197.222,113.889,358.333,791.667,47.222,/
718,-0.420,0.365,0.620,183.333,116.667,388.889,822.222,30.556,/
719,-0.375,1.025,0.310,125.000,105.556,105.556,822.222,0.000,f
720,-0.015,-1.680,0.525,38.889,2.778,241.667,486.111,336.111,V
721,-0.120,0.555,0.885,52.778,105.556,394.444,911.111,425.000,/
722,0.500,1.950,0.010,58.333,116.667,116.667,827.778,83.333,V
723,-0.055,0.885,0.070,161.111,105.556,358.333,861.111,33.333,f
724,0.380,1.885,-0.755,58.333,116.667,405.556,669.444,191.667,V
725,-0.035,1.030,0.105,80.556,100.000,113.889,850.000,180.556,f
726,0.155,1.675,0.340,55.556,86.111,100.000,811.111,38.889,f
727,0.150,1.655,0.400,119.444,94.444,108.333,827.778,16.667,f
728,0.060,1.395,0.735,63.889,113.889,113.889,844.444,16.667,f
729,-0.010,0.635,0.910,83.333,116.667,391.667,936.111,91.667,/
730,-0.450,0.155,0.485,186.111,113.889,386.111,852.778,83.333,/
731,-0.535,0.205,0.690,63.889,111.111,372.222,827.778,25.000,/
732,-0.305,0.495,0.790,63.889,113.889,375.000,783.333,44.444,/
733,-0.175,0.625,0.985,80.556,116.667,375.000,819.444,36.111,/
734,-0.130,0.545,1.000,58.333,116.667,391.667,836.111,16.667,/
735,-0.135,0.645,0.730,180.556,111.111,400.000,877.778,41.667,/
736,-0.190,0.575,0.800,80.556,116.667,394.444,902.778,25.000,/
737,-0.465,0.145,0.330,191.667,105.556,369.444,841.667,61.111,/
738,-0.685,0.135,0.680,58.333,111.111,375.000,819.444,22.222,/
739,-0.210,0.625,1.045,61.111,105.556,366.667,833.333,13.889,/
740,-0.105,0.685,1.010,83.333,111.111,386.111,819.444,13.889,/
741,-0.130,0.600,0.935,83.333,116.667,388.889,836.111,16.667,/
742,-0.125,0.560,0.875,69.444,105.556,394.444,869.444,33.333,/
743,-0.230,0.480,0.675,169.444,116.667,386.111,916.667,47.222,/
744,-0.470,0.325,0.750,66.667,116.667,388.889,847.222,69.444,/
745,-0.270,0.555,0.935,61.111,113.889,377.778,844.444,2.778,/
746,-0.090,0.700,1.025,113.889,113.889,358.333,800.000,44.444,/
747,-0.165,0.620,0.880,197.222,113.889,375.000,802.778,2.778,/
748,-0.300,0.445,0.745,108.333,111.111,397.222,825.000,22.222,/
749,-0.240,0.645,0.790,61.111,111.111,400.000,888.889,63.889,/
750,-0.240,0.455,0.680,191.667,105.556,388.889,994.444,105.556,/
751,-0.390,0.395,0.915,86.111,116.667,372.222,861.111,133.333,/
752,-0.040,0.680,1.095,69.444,116.667,375.000,816.667,44.444,/
753,-0.030,0.700,1.060,188.889,116.667,369.444,802.778,13.889,/
754,-0.120,0.985,0.120,188.889,105.556,358.333,783.333,19.444,f
755,-0.180,0.530,0.770,141.667,108.333,394.444,852.778,69.444,/
756,-0.230,0.410,0.785,169.444,116.667,405.556,894.444,41.667,/
757,-0.330,0.345,0.710,52.778,108.333,380.556,902.778,8.333,/
758,-0.340,0.280,0.715,72.222,105.556,383.333,836.111,66.667,/
759,-0.290,0.390,0.805,80.556,116.667,391.667,858.333,22.222,/
760,-0.440,0.265,0.575,169.444,113.889,358.333,816.667,41.667,/
761,-0.595,0.170,0.535,116.667,116.667,361.111,800.000,16.667,/
762,-0.485,0.230,0.750,72.222,116.667,372.222,822.222,22.222,/
763,-0.335,0.400,0.690,66.667,116.667,391.667,844.444,22.222,/
764,-0.600,0.030,0.390,180.556,113.889,397.222,863.889,19.444,/
765,-0.395,0.325,0.765,55.556,111.111,397.222,877.778,13.889,/
766,-0.155,0.510,1.065,72.222,116.667,369.444,847.222,30.556,/
767,-0.065,0.590,1.025,61.111,108.333,372.222,805.556,41.667,/
768,-0.060,0.570,0.930,111.111,113.889,377.778,786.111,19.444,/
769,-0.215,0.535,0.890,83.333,116.667,405.556,836.111,50.000,/
770,-0.255,0.405,0.785,66.667,116.667,405.556,886.111,50.000,/
771,-0.295,0.300,0.660,58.333,113.889,394.444,922.222,36.111,/
772,-0.625,0.045,0.490,100.000,113.889,375.000,841.667,80.556,/
773,-0.575,0.095,0.645,58.333,116.667,386.111,838.889,2.778,/
774,-0.255,0.460,1.020,66.667,108.333,363.889,811.111,27.778,/
775,-0.115,0.515,0.915,63.889,111.111,388.889,794.444,16.667,/
776,-0.280,0.435,0.790,63.889,116.667,375.000,838.889,44.444,/
777,-0.225,0.420,0.805,61.111,111.111,391.667,844.444,5.556,/
778,-0.310,0.120,0.575,194.444,116.667,402.778,847.222,2.778,/
779,-0.600,0.020,0.545,69.444,116.667,405.556,875.000,27.778,/
780,-0.340,0.255,0.830,58.333,113.889,369.444,855.556,19.444,/
781,-0.225,0.430,0.925,83.333,102.778,347.222,811.111,44.444,/
782,-0.155,0.570,0.915,150.000,116.667,372.222,783.333,27.778,/
783,-0.265,0.465,0.760,147.222,116.667,391.667,800.000,16.667,/
784,-0.250,0.420,0.850,58.333,113.889,394.444,827.778,27.778,/
785,-0.225,0.390,0.925,100.000,116.667,405.556,888.889,61.111,/
786,-0.200,0.390,0.830,61.111,111.111,375.000,894.444,5.556,/
787,-0.200,0.455,0.830,66.667,116.667,388.889,838.889,55.556,/
788,-0.245,0.320,0.685,105.556,111.111,363.889,819.444,19.444,/
789,-0.725,-0.260,0.190,191.667,105.556,363.889,800.000,19.444,/
790,-0.700,-0.040,0.525,66.667,111.111,372.222,830.556,30.556,/
791,-0.385,0.375,0.820,97.222,116.667,405.556,847.222,16.667,/
792,-0.240,0.480,0.920,100.000,116.667,405.556,852.778,5.556,/
793,-0.135,0.525,0.915,55.556,108.333,394.444,872.222,19.444,/
794,-0.125,0.405,0.940,58.333,108.333,361.111,836.111,36.111,/
795,-0.125,0.450,0.975,63.889,113.889,372.222,822.222,13.889,/
796,-0.195,0.325,0.850,155.556,116.667,369.444,822.222,0.000,/
797,-0.185,0.400,0.950,72.222,116.667,386.111,816.667,5.556,/
798,-0.160,0.450,0.920,191.667,111.111,377.778,822.222,5.556,/
799,-0.180,0.510,0.840,158.333,116.667,402.778,847.222,25.000,/
800,-0.185,0.525,0.845,55.556,108.333,375.000,919.444,72.222,/
801,-0.180,0.400,0.850,136.111,116.667,388.889,841.667,77.778,/
802,-0.250,0.475,0.815,80.556,111.111,372.222,827.778,13.889,/
803,-0.265,0.405,0.740,58.333,111.111,361.111,794.444,33.333,/
804,-0.315,0.400,0.725,63.889,111.111,352.778,805.556,11.111,/
805,-0.350,0.330,0.735,180.556,113.889,391.667,816.667,11.111,/
806,-0.435,0.390,0.630,97.222,116.667,405.556,866.667,50.000,/
807,-0.315,0.365,0.580,55.556,108.333,394.444,908.333,41.667,/
808,-0.545,0.140,0.540,141.667,111.111,375.000,855.556,52.778,/
809,-0.510,0.310,0.735,52.778,102.778,375.000,825.000,30.556,/
810,-0.305,0.485,0.860,55.556,111.111,377.778,822.222,2.778,/
811,-0.205,0.575,0.930,102.778,116.667,391.667,825.000,2.778,/
812,-0.225,0.530,0.885,69.444,116.667,386.111,836.111,11.111,/
813,-0.250,0.500,0.805,86.111,116.667,405.556,847.222,11.111,/
814,-0.220,0.485,0.870,58.333,116.667,394.444,894.444,47.222,/
815,-0.200,0.490,0.910,125.000,116.667,402.778,844.444,50.000,/
816,-0.185,0.530,0.915,133.333,116.667,391.667,844.444,0.000,/
817,-0.235,0.430,0.765,191.667,111.111,363.889,822.222,22.222,/
818,-0.345,0.325,0.715,77.778,111.111,377.778,786.111,36.111,/
819,-0.335,0.355,0.700,186.111,116.667,388.889,808.333,22.222,/
820,-0.340,0.260,0.640,50.000,105.556,394.444,852.778,44.444,/
821,-0.345,0.335,0.760,58.333,108.333,391.667,905.556,52.778,/
822,-0.375,0.225,0.475,127.778,108.333,386.111,866.667,38.889,/
823,-0.700,0.020,0.390,86.111,105.556,375.000,827.778,38.889,/
824,-0.600,0.180,0.660,58.333,113.889,388.889,808.333,19.444,/
825,-0.220,0.500,0.890,61.111,111.111,375.000,800.000,8.333,/
826,-0.135,0.555,1.020,186.111,116.667,388.889,822.222,22.222,/
827,-0.100,0.655,0.995,58.333,111.111,394.444,855.556,33.333,/
828,-0.115,0.570,0.745,83.333,116.667,405.556,877.778,22.222,/
829,-0.290,0.440,0.535,61.111,111.111,377.778,858.333,19.444,/
830,-0.505,0.120,0.305,144.444,111.111,391.667,833.333,25.000,/
831,-0.990,-0.240,0.260,69.444,116.667,375.000,841.667,8.333,/
832,-0.565,0.240,0.685,133.333,116.667,391.667,797.222,44.444,/
833,-0.405,0.300,0.770,133.333,116.667,375.000,816.667,19.444,/
834,-0.340,0.430,0.825,55.556,108.333,377.778,825.000,8.333,/
835,-0.245,0.500,0.770,55.556,108.333,375.000,866.667,41.667,/
836,-0.325,0.405,0.770,63.889,113.889,391.667,855.556,11.111,/
837,-0.340,0.370,0.580,111.111,113.889,394.444,866.667,11.111,/
838,-0.490,0.085,0.480,58.333,111.111,361.111,830.556,36.111,/
839,-0.490,0.180,0.650,58.333,108.333,355.556,800.000,30.556,/
840,-0.440,0.325,-0.855,194.444,108.333,391.667,600.000,200.000,V
841,-0.460,1.020,0.640,47.222,66.667,86.111,855.556,255.556,f
842,-0.130,0.555,0.670,58.333,111.111,391.667,911.111,55.556,/
843,0.060,1.435,0.125,58.333,86.111,108.333,919.444,8.333,f
844,0.105,1.480,0.540,66.667,116.667,116.667,769.444,150.000,f
845,0.100,1.760,-0.170,58.333,116.667,116.667,505.556,263.889,V
846,-0.175,0.795,-0.350,58.333,113.889,122.222,477.778,27.778,V
847,-0.310,1.040,-0.085,97.222,111.111,111.111,813.889,336.111,f
848,-0.210,1.255,-0.065,58.333,86.111,102.778,838.889,25.000,f
849,-0.055,1.245,0.485,61.111,105.556,105.556,788.889,50.000,f
850,0.675,2.035,-0.445,58.333,116.667,116.667,538.889,250.000,V
851,0.060,0.625,0.170,130.556,97.222,325.000,916.667,377.778,/
852,0.435,1.855,-0.725,58.333,116.667,116.667,666.667,250.000,V
853,-0.180,1.265,0.570,80.556,91.667,108.333,900.000,233.333,f
854,0.225,1.860,-0.775,58.333,116.667,405.556,666.667,233.333,V
855,-0.120,0.570,0.970,63.889,116.667,344.444,850.000,183.333,/
856,-0.025,0.505,0.905,105.556,108.333,355.556,811.111,38.889,/
857,0.085,0.630,-0.330,197.222,108.333,125.000,591.667,219.444,V
858,0.040,0.590,1.045,58.333,116.667,402.778,869.444,277.778,/
859,-0.085,0.440,0.795,94.444,111.111,377.778,905.556,36.111,/
860,-0.230,0.400,0.635,133.333,116.667,358.333,858.333,47.222,/
861,-0.360,0.250,0.710,77.778,111.111,372.222,827.778,30.556,/
862,-0.380,0.215,0.640,66.667,113.889,372.222,802.778,25.000,/
863,-0.435,0.125,0.520,197.222,116.667,388.889,800.000,2.778,/
864,-0.540,0.045,0.625,163.889,113.889,377.778,863.889,63.889,/
865,-0.680,-0.225,0.210,197.222,116.667,394.444,869.444,5.556,/
866,-0.635,0.065,0.630,58.333,116.667,405.556,872.222,2.778,/
867,-0.365,0.355,0.835,61.111,113.889,394.444,861.111,11.111,/
868,-0.185,0.410,0.915,122.222,105.556,372.222,841.667,19.444,/
869,-0.145,0.500,0.930,55.556,102.778,358.333,813.889,27.778,/
870,0.485,2.035,-0.620,58.333,116.667,116.667,691.667,122.222,V
871,-0.015,1.500,0.150,58.333,88.889,105.556,905.556,213.889,f
872,0.045,0.605,1.095,63.889,111.111,372.222,827.778,77.778,/
873,-0.190,0.355,0.825,183.333,116.667,405.556,872.222,44.444,/
874,-0.380,0.255,0.725,75.000,111.111,377.778,891.667,19.444,/
875,0.285,1.775,-0.780,58.333,116.667,116.667,669.444,222.222,V
876,-0.045,0.640,0.945,108.333,116.667,352.778,875.000,205.556,/
877,-0.035,0.625,1.035,50.000,102.778,352.778,786.111,88.889,/
878,0.610,1.585,-0.490,58.333,116.667,116.667,761.111,25.000,V
879,0.110,0.900,1.115,88.889,116.667,405.556,886.111,125.000,/
880,-0.040,0.575,0.640,175.000,116.667,405.556,919.444,33.333,/
881,-0.565,-0.120,0.490,194.444,113.889,394.444,952.778,33.333,/
882,-0.645,0.055,0.650,63.889,113.889,375.000,852.778,100.000,/
883,0.275,2.070,-0.535,58.333,116.667,405.556,669.444,183.333,V
884,0.155,0.720,1.205,52.778,105.556,361.111,855.556,186.111,/
885,-0.010,0.710,1.020,66.667,113.889,377.778,858.333,2.778,/
886,-0.195,0.420,0.785,88.889,116.667,372.222,858.333,0.000,/
887,-0.305,0.260,0.795,58.333,108.333,394.444,869.444,11.111,/
888,-0.360,0.255,0.715,58.333,111.111,391.667,883.333,13.889,/
889,0.235,1.730,-0.810,58.333,116.667,116.667,655.556,227.778,V
890,-0.165,0.485,0.890,147.222,113.889,375.000,886.111,230.556,/
891,-0.255,0.340,0.825,72.222,113.889,352.778,822.222,63.889,/
892,-0.275,0.325,0.695,144.444,111.111,358.333,805.556,16.667,/
893,-0.350,0.235,0.695,180.556,113.889,372.222,805.556,0.000,/
894,-0.340,0.195,0.695,58.333,116.667,402.778,875.000,69.444,/
895,0.310,1.505,0.045,58.333,113.889,-741238.889,730.556,144.444,V
896,-0.705,0.820,0.010,38.889,91.667,91.667,886.111,155.556,f
897,-0.390,0.945,0.180,52.778,108.333,108.333,816.667,69.444,f
898,-0.035,1.710,0.240,50.000,77.778,88.889,827.778,11.111,f
899,0.005,1.480,0.250,63.889,100.000,113.889,797.222,30.556,f
900,0.150,-1.160,0.250,33.333,5.556,222.222,466.667,330.556,V
901,0.065,0.585,0.890,172.222,116.667,386.111,838.889,372.222,/
902,-0.060,0.450,0.880,58.333,116.667,400.000,900.000,61.111,/
903,0.155,0.660,0.745,158.333,113.889,363.889,886.111,13.889,/
904,-0.665,-0.195,0.310,188.889,116.667,380.556,830.556,55.556,/
905,0.035,1.725,0.045,58.333,116.667,-749150.000,661.111,169.444,V
906,-0.205,0.290,1.060,55.556,105.556,358.333,872.222,211.111,/
907,0.565,2.120,-0.490,58.333,116.667,116.667,669.444,202.778,V
908,0.200,0.735,1.055,72.222,105.556,388.889,863.889,194.444,/
909,0.725,2.130,-0.360,58.333,116.667,116.667,669.444,194.444,V
910,-0.065,0.335,0.745,177.778,113.889,377.778,936.111,266.667,/
911,0.340,1.875,-0.790,58.333,116.667,116.667,686.111,250.000,V
912,0.065,0.650,0.880,55.556,108.333,363.889,908.333,222.222,/
913,0.155,2.015,0.480,127.778,83.333,91.667,802.778,105.556,f
914,0.150,0.740,1.240,66.667,113.889,372.222,794.444,8.333,/
915,0.045,0.690,1.160,83.333,113.889,388.889,813.889,19.444,/
916,0.135,0.750,1.130,66.667,116.667,391.667,866.667,52.778,/
917,0.090,0.700,0.875,63.889,116.667,405.556,897.222,30.556,/
918,-0.040,0.565,1.060,166.667,113.889,375.000,883.333,13.889,/
919,-0.135,0.265,0.930,83.333,116.667,369.444,836.111,47.222,/
920,-0.135,0.360,1.000,102.778,113.889,352.778,819.444,16.667,/
921,0.565,2.035,-0.520,58.333,116.667,116.667,650.000,169.444,V
922,0.165,1.420,0.825,66.667,77.778,91.667,847.222,197.222,f
923,0.155,1.995,0.440,55.556,108.333,108.333,841.667,5.556,f
924,0.085,0.655,1.030,63.889,116.667,377.778,905.556,63.889,/
925,0.005,1.050,0.395,166.667,113.889,372.222,833.333,72.222,f
926,-0.035,0.385,0.985,116.667,116.667,394.444,883.333,50.000,/
927,-0.090,0.520,1.080,136.111,116.667,361.111,836.111,47.222,/
928,-0.030,0.480,1.380,58.333,102.778,341.667,794.444,41.667,/
929,0.195,0.500,0.710,191.667,111.111,358.333,800.000,5.556,/
930,-0.525,-0.050,0.580,186.111,116.667,383.333,827.778,27.778,/
931,-0.475,-0.005,0.745,83.333,116.667,405.556,841.667,13.889,/
932,0.385,1.805,-0.875,58.333,116.667,116.667,719.444,122.222,V
933,-0.050,0.430,0.980,58.333,108.333,361.111,925.000,205.556,/
934,-0.075,0.485,1.080,80.556,116.667,375.000,822.222,102.778,/
935,-0.030,0.645,1.025,138.889,113.889,369.444,805.556,16.667,/
936,-0.175,0.370,0.775,55.556,113.889,380.556,802.778,2.778,/
937,-0.305,0.285,0.890,111.111,116.667,380.556,852.778,50.000,/
938,-0.385,0.105,0.535,186.111,116.667,388.889,875.000,22.222,/
939,0.245,1.995,0.045,58.333,116.667,-776977.778,644.444,230.556,V
940,-0.210,0.410,0.415,55.556,102.778,358.333,913.889,269.444,/
941,-0.075,0.545,1.175,61.111,111.111,363.889,852.778,61.111,/
942,-0.235,0.355,0.815,175.000,113.889,358.333,816.667,36.111,/
943,-0.390,0.255,0.775,66.667,116.667,394.444,802.778,13.889,/
944,-0.245,0.345,0.750,61.111,113.889,394.444,830.556,27.778,/
945,-0.140,2.110,0.140,69.444,94.444,102.778,841.667,11.111,f
946,-0.030,0.515,0.695,58.333,111.111,394.444,875.000,33.333,/
947,0.045,0.625,1.195,75.000,111.111,391.667,897.222,22.222,/
948,0.085,0.595,1.375,58.333,113.889,380.556,850.000,47.222,/
949,0.850,2.485,-0.400,58.333,116.667,119.444,661.111,188.889,V
950,0.015,0.690,2.015,58.333,108.333,333.333,841.667,180.556,/
951,0.690,1.030,1.290,194.444,105.556,372.222,825.000,16.667,/
952,-0.105,0.575,0.580,197.222,108.333,397.222,777.778,47.222,/
953,-0.395,0.150,0.825,58.333,108.333,397.222,925.000,147.222,/
954,0.650,1.725,-0.860,58.333,116.667,116.667,688.889,236.111,V
955,-0.450,1.355,-0.305,61.111,88.889,102.778,880.556,191.667,f
956,-0.315,1.345,-0.440,169.444,83.333,158.333,741.667,138.889,N
957,-0.125,1.340,-0.225,55.556,75.000,105.556,788.889,47.222,N
958,0.095,1.590,-0.075,58.333,77.778,102.778,736.111,52.778,N
959,0.140,1.385,-0.065,111.111,72.222,88.889,833.333,97.222,N
960,-0.070,1.340,-0.240,108.333,80.556,91.667,700.000,133.333,N
961,-0.040,1.365,-0.145,100.000,86.111,108.333,738.889,38.889,N
962,0.120,1.650,-0.010,50.000,75.000,94.444,805.556,66.667,N
963,0.225,1.665,0.065,172.222,83.333,108.333,716.667,88.889,N
964,0.320,1.690,0.170,80.556,83.333,105.556,730.556,13.889,N
965,0.785,2.520,-0.155,58.333,116.667,405.556,513.889,216.667,V
966,0.335,1.665,0.235,161.111,80.556,108.333,763.889,250.000,N
967,0.010,1.325,-0.215,180.556,66.667,97.222,766.667,2.778,N
968,-0.150,1.155,-0.335,91.667,80.556,97.222,713.889,52.778,N
969,-0.120,1.350,-0.070,72.222,86.111,247.222,730.556,16.667,N
970,0.285,1.590,0.025,191.667,86.111,125.000,755.556,25.000,N
971,0.265,1.910,0.895,169.444,116.667,116.667,838.889,83.333,f
972,0.340,1.790,0.170,197.222,69.444,94.444,700.000,138.889,N
973,0.170,1.665,-0.040,197.222,63.889,88.889,680.556,19.444,N
974,0.080,0.665,1.270,122.222,108.333,355.556,827.778,147.222,/
975,0.110,0.730,1.305,194.444,113.889,375.000,802.778,25.000,/
976,-0.095,0.340,0.935,172.222,116.667,405.556,844.444,41.667,/
977,-0.430,1.440,-0.150,66.667,116.667,116.667,861.111,16.667,f
978,-0.320,1.265,-0.315,180.556,86.111,147.222,730.556,130.556,N
979,0.145,1.660,0.810,77.778,86.111,405.556,763.889,33.333,N
980,0.045,2.340,0.975,809077.778,809102.778,809122.222,675.000,88.889,N
981,0.620,1.785,0.435,183.333,83.333,119.444,811.111,136.111,N
982,0.405,1.855,0.705,88.889,91.667,102.778,838.889,27.778,f
983,0.120,1.310,-0.145,172.222,72.222,108.333,750.000,88.889,N
984,-0.230,1.115,-0.495,111.111,80.556,105.556,675.000,75.000,N
985,-0.510,1.070,-0.710,69.444,83.333,113.889,741.667,66.667,N
986,-0.405,1.150,-0.530,58.333,77.778,105.556,688.889,52.778,N
987,-0.290,1.245,0.285,100.000,105.556,105.556,844.444,155.556,f
988,-0.465,1.075,-0.655,186.111,77.778,108.333,755.556,88.889,N
989,-0.315,1.295,-0.425,55.556,72.222,108.333,758.333,2.778,N
990,0.020,1.780,0.240,69.444,91.667,105.556,833.333,75.000,f
991,0.060,1.625,-0.050,72.222,83.333,122.222,752.778,80.556,N
992,0.215,1.810,0.055,80.556,86.111,108.333,827.778,75.000,N
993,0.045,2.445,-0.275,818919.444,818977.778,818977.778,563.889,263.889,V
994,0.320,2.470,0.840,191.667,86.111,108.333,930.556,366.667,f
995,0.480,0.930,1.080,186.111,105.556,338.889,847.222,83.333,/
996,-0.150,0.740,1.070,88.889,116.667,369.444,819.444,27.778,/
997,-0.105,0.790,1.285,58.333,116.667,369.444,791.667,27.778,/
998,-0.055,0.745,1.025,166.667,116.667,377.778,816.667,25.000,/
999,-0.375,0.470,0.870,75.000,113.889,377.778,858.333,41.667,/
1000,-0.305,0.470,0.960,61.111,113.889,391.667,872.222,13.889,/
1001,-0.325,0.505,0.995,58.333,108.333,380.556,858.333,13.889,/
1002,-0.240,0.645,1.020,55.556,108.333,394.444,850.000,8.333,/
1003,-0.415,1.065,0.310,188.889,86.111,105.556,836.111,13.889,f
1004,-0.450,1.280,-0.620,69.444,83.333,405.556,708.333,127.778,N
1005,0.305,2.025,-0.560,58.333,116.667,405.556,500.000,208.333,V
1006,-0.065,2.005,0.250,61.111,88.889,100.000,880.556,380.556,f
1007,-0.030,1.675,-0.175,97.222,83.333,113.889,763.889,116.667,N
1008,0.095,1.750,-0.070,58.333,77.778,119.444,697.222,66.667,N
1009,0.145,1.855,-0.050,180.556,83.333,108.333,758.333,61.111,N
1010,0.175,1.765,-0.070,102.778,83.333,108.333,700.000,58.333,N
1011,0.160,2.240,0.470,58.333,83.333,105.556,844.444,144.444,f
1012,0.070,1.660,-0.115,102.778,83.333,105.556,738.889,105.556,N
1013,0.055,1.580,-0.125,72.222,72.222,105.556,688.889,50.000,N
1014,0.460,2.040,-0.500,58.333,113.889,116.667,516.667,172.222,V
1015,-0.035,2.050,0.575,122.222,77.778,91.667,919.444,402.778,f
1016,0.815,1.910,-0.615,58.333,116.667,116.667,650.000,269.444,V
1017,-0.155,1.700,0.075,58.333,91.667,102.778,950.000,300.000,f
1018,0.715,2.140,-0.470,58.333,116.667,116.667,633.333,316.667,V
1019,-0.100,1.165,0.105,102.778,116.667,116.667,875.000,241.667,f
1020,-0.325,1.095,0.150,102.778,113.889,113.889,791.667,83.333,f
1021,-0.500,1.255,-0.410,55.556,83.333,94.444,863.889,72.222,f
1022,-0.700,0.960,-0.795,52.778,75.000,141.667,730.556,133.333,N
1023,-0.095,1.600,0.350,58.333,116.667,116.667,900.000,169.444,f
1024,0.065,1.500,-0.065,75.000,86.111,113.889,752.778,147.222,N
1025,0.040,1.655,-0.070,55.556,83.333,100.000,747.222,5.556,N
1026,0.910,2.695,-0.065,58.333,113.889,405.556,550.000,197.222,V
1027,0.550,2.045,0.980,80.556,113.889,113.889,841.667,291.667,f
1028,0.045,3.160,3.400,846000.000,0.000,845825.000,597.222,244.444,V
1029,0.045,1.625,3.400,846847.222,0.000,845825.000,847.222,250.000,/
1030,0.905,0.080,0.695,186.111,0.000,11.111,797.222,50.000,f
1031,0.045,-0.065,0.045,848538.889,91.667,-848480.556,894.444,97.222,f
1032,0.045,-0.720,-0.250,849444.444,108.333,380.556,905.556,11.111,/
1033,0.045,-0.630,0.045,850294.444,111.111,383.333,850.000,55.556,/
1034,-0.730,1.925,-0.285,55.556,75.000,91.667,819.444,30.556,f
1035,-0.640,1.145,-0.630,58.333,77.778,394.444,736.111,83.333,N
1036,0.105,2.470,-0.645,58.333,116.667,405.556,500.000,236.111,V
1037,-0.140,1.490,0.215,58.333,111.111,111.111,883.333,383.333,f
1038,-0.120,1.595,-0.230,72.222,80.556,94.444,730.556,152.778,N
1039,0.065,1.760,-0.065,55.556,77.778,91.667,847.222,116.667,N
1040,0.155,1.840,0.010,66.667,72.222,91.667,747.222,100.000,N
1041,0.135,2.585,0.335,69.444,116.667,116.667,883.333,136.111,f
1042,0.040,2.540,0.275,122.222,116.667,116.667,819.444,63.889,f
1043,-0.045,0.605,0.700,94.444,108.333,341.667,825.000,5.556,/
1044,-0.095,2.200,0.200,197.222,111.111,111.111,800.000,25.000,f
1045,-0.010,0.645,1.100,80.556,113.889,375.000,852.778,52.778,/
1046,-0.220,0.400,1.100,58.333,116.667,402.778,858.333,5.556,/
1047,-0.235,0.395,0.760,61.111,116.667,377.778,925.000,66.667,/
1048,-0.270,0.285,0.565,91.667,116.667,366.667,844.444,80.556,/
1049,-0.305,1.105,0.525,58.333,66.667,80.556,816.667,27.778,f
1050,0.355,2.135,-0.360,58.333,116.667,405.556,588.889,227.778,V
1051,0.035,1.065,0.295,55.556,102.778,327.778,825.000,236.111,f
1052,0.705,2.225,-0.570,58.333,116.667,116.667,694.444,130.556,V
1053,0.180,0.810,1.085,63.889,116.667,405.556,916.667,222.222,/
1054,0.780,2.010,-0.705,58.333,113.889,113.889,819.444,97.222,V
1055,0.125,1.270,0.495,147.222,86.111,105.556,894.444,75.000,f
1056,0.860,2.070,-0.380,58.333,116.667,405.556,677.778,216.667,V
1057,0.140,0.655,1.160,175.000,111.111,358.333,869.444,191.667,/
1058,-0.100,0.425,1.000,177.778,111.111,344.444,816.667,52.778,/
1059,-0.270,0.270,0.900,66.667,116.667,375.000,838.889,22.222,/
1060,-0.350,0.285,0.490,125.000,105.556,375.000,827.778,11.111,/
1061,-0.330,0.220,0.755,66.667,116.667,405.556,875.000,47.222,/
1062,-0.285,0.360,0.920,55.556,105.556,377.778,886.111,11.111,/
1063,-0.300,0.250,0.905,158.333,113.889,366.667,852.778,33.333,/
1064,-0.200,0.440,0.725,116.667,116.667,358.333,841.667,11.111,/
1065,-0.560,-0.075,0.155,188.889,105.556,338.889,808.333,33.333,/
1066,0.045,-0.735,-0.100,877016.667,111.111,380.556,800.000,8.333,/
1067,0.045,-0.975,0.180,877869.444,113.889,405.556,852.778,52.778,/
1068,-0.570,1.550,-0.465,58.333,91.667,105.556,952.778,100.000,f
1069,-0.025,1.715,-0.090,58.333,86.111,119.444,791.667,161.111,N
1070,0.400,2.175,0.285,69.444,86.111,122.222,763.889,27.778,N
1071,0.635,2.310,0.745,55.556,86.111,97.222,869.444,105.556,f
1072,0.505,1.920,0.985,41.667,91.667,91.667,772.222,97.222,f
1073,0.190,2.355,0.570,94.444,77.778,88.889,816.667,44.444,f
1074,-0.080,1.400,-0.310,141.667,75.000,172.222,813.889,2.778,N
1075,0.075,1.610,0.005,61.111,83.333,108.333,752.778,61.111,N
1076,0.280,1.750,0.015,133.333,69.444,91.667,808.333,55.556,N
1077,0.175,1.675,-0.015,136.111,75.000,108.333,833.333,25.000,N
1078,-0.040,1.825,0.120,133.333,86.111,105.556,880.556,47.222,f
1079,-0.050,1.390,-0.230,183.333,86.111,105.556,769.444,111.111,N
1080,0.670,2.220,-0.350,58.333,116.667,405.556,500.000,269.444,V
1081,0.025,1.460,-0.165,108.333,83.333,108.333,777.778,277.778,N
1082,0.120,1.415,-0.125,138.889,72.222,102.778,811.111,33.333,N
1083,0.505,1.785,-0.380,58.333,111.111,119.444,563.889,247.222,V
1084,0.095,1.915,0.455,83.333,83.333,97.222,913.889,350.000,f
1085,0.090,1.845,0.465,172.222,72.222,88.889,872.222,41.667,f
1086,-0.055,0.480,0.835,52.778,108.333,358.333,866.667,5.556,/
1087,-0.155,0.345,0.935,55.556,105.556,338.889,800.000,66.667,/
1088,-0.270,0.270,0.725,91.667,105.556,375.000,783.333,16.667,/
1089,-0.355,0.295,0.710,180.556,116.667,391.667,858.333,75.000,/
1090,0.240,1.490,0.045,58.333,116.667,-896086.111,702.778,155.556,V
1091,-0.440,1.025,-0.555,108.333,83.333,102.778,958.333,255.556,N
1092,-0.140,1.275,0.710,105.556,83.333,97.222,894.444,63.889,f
1093,-0.020,1.430,-0.105,61.111,77.778,91.667,775.000,119.444,N
1094,0.205,0.695,0.975,191.667,111.111,361.111,847.222,72.222,/
1095,-0.390,0.300,0.710,152.778,105.556,361.111,811.111,36.111,/
1096,-0.395,0.295,0.650,105.556,116.667,372.222,850.000,38.889,/
1097,0.400,1.830,-0.730,58.333,113.889,113.889,619.444,230.556,V
1098,0.060,1.760,0.255,58.333,91.667,105.556,947.222,327.778,f
1099,0.120,1.150,0.465,183.333,83.333,94.444,830.556,116.667,f
1100,0.370,1.320,-0.195,58.333,108.333,138.889,619.444,211.111,V
1101,0.205,1.605,0.020,50.000,63.889,105.556,811.111,191.667,N
1102,0.250,1.410,0.825,75.000,108.333,108.333,825.000,13.889,f
1103,0.095,1.395,0.535,163.889,113.889,113.889,772.222,52.778,f
1104,0.085,1.390,-0.020,47.222,63.889,111.111,730.556,41.667,N
1105,0.245,1.550,0.095,55.556,69.444,122.222,661.111,69.444,N
1106,0.275,1.445,0.095,61.111,75.000,102.778,838.889,177.778,N
1107,0.290,1.585,0.150,97.222,80.556,108.333,788.889,50.000,N
1108,0.305,1.510,0.105,188.889,72.222,88.889,722.222,66.667,N
1109,0.205,1.900,0.405,180.556,111.111,111.111,841.667,119.444,f
1110,0.140,1.415,-0.005,133.333,66.667,91.667,686.111,155.556,N
1111,0.630,1.845,-0.425,58.333,116.667,116.667,588.889,97.222,V
1112,0.210,1.945,0.515,127.778,102.778,105.556,888.889,300.000,f
1113,0.180,1.385,0.055,55.556,75.000,155.556,711.111,177.778,N
1114,0.125,1.300,-0.010,186.111,77.778,94.444,869.444,158.333,N
1115,0.055,1.600,0.245,183.333,105.556,108.333,861.111,8.333,f
1116,-0.090,1.150,-0.205,55.556,75.000,88.889,822.222,38.889,N
1117,0.025,1.235,-0.115,180.556,80.556,94.444,741.667,80.556,N
1118,0.390,1.625,-0.370,58.333,116.667,405.556,491.667,250.000,V
1119,0.065,0.600,0.900,144.444,111.111,344.444,869.444,377.778,/
1120,-0.165,0.330,0.805,169.444,116.667,366.667,827.778,41.667,/
1121,-0.315,0.255,0.705,55.556,105.556,372.222,819.444,8.333,/
1122,-0.305,0.190,0.620,88.889,105.556,391.667,880.556,61.111,/
1123,-0.255,1.135,-0.010,55.556,83.333,97.222,869.444,11.111,f
1124,0.210,1.365,-0.610,58.333,116.667,405.556,558.333,311.111,V
1125,-0.075,1.110,-0.210,130.556,66.667,94.444,783.333,225.000,N
1126,0.045,0.985,0.330,55.556,105.556,108.333,808.333,25.000,f
1127,0.000,1.120,-0.125,69.444,83.333,105.556,727.778,80.556,N
1128,-0.020,1.100,-0.160,122.222,86.111,102.778,705.556,22.222,N
1129,0.055,1.245,-0.050,133.333,86.111,158.333,841.667,136.111,N
1130,0.190,1.710,0.510,144.444,77.778,91.667,927.778,86.111,f
1131,0.100,1.185,-0.125,194.444,63.889,91.667,800.000,127.778,N
1132,-0.015,1.160,-0.160,136.111,72.222,125.000,775.000,25.000,N
1133,-0.010,1.155,-0.175,186.111,72.222,91.667,700.000,75.000,N
1134,0.370,1.520,-0.295,58.333,116.667,405.556,502.778,197.222,V
1135,0.160,0.905,0.515,88.889,86.111,102.778,866.667,363.889,f
1136,0.035,1.065,-0.145,169.444,72.222,91.667,763.889,102.778,N
1137,0.065,1.285,-0.015,163.889,86.111,111.111,680.556,83.333,N
1138,0.075,1.120,-0.150,172.222,77.778,94.444,725.000,44.444,N
1139,-0.120,0.960,-0.260,194.444,86.111,100.000,750.000,25.000,N
1140,-0.165,0.920,-0.325,83.333,77.778,102.778,758.333,8.333,N
1141,-0.215,0.850,-0.380,177.778,63.889,80.556,644.444,113.889,N
1142,-0.470,0.675,-0.530,188.889,83.333,405.556,677.778,33.333,N
1143,-0.345,0.895,-0.455,166.667,86.111,405.556,661.111,16.667,N
1144,-0.285,1.070,-0.185,186.111,91.667,105.556,852.778,191.667,f
1145,-0.250,1.065,-0.380,102.778,86.111,102.778,750.000,102.778,N
1146,-0.080,0.815,-0.425,58.333,116.667,116.667,575.000,175.000,V
1147,-0.080,1.165,-0.205,94.444,75.000,105.556,813.889,238.889,N
1148,-0.045,1.225,-0.220,75.000,75.000,91.667,733.333,80.556,N
1149,-0.165,1.190,-0.270,116.667,86.111,105.556,658.333,75.000,N
1150,-0.100,1.185,0.085,147.222,113.889,113.889,813.889,155.556,f
1151,0.200,1.730,-0.395,58.333,116.667,405.556,483.333,330.556,V
1152,-0.030,1.350,-0.190,80.556,83.333,105.556,800.000,316.667,N
1153,0.695,1.845,-0.530,58.333,116.667,116.667,538.889,261.111,V
1154,0.035,0.540,0.620,75.000,102.778,355.556,972.222,433.333,/
1155,0.005,1.010,-0.165,197.222,63.889,97.222,816.667,155.556,N
1156,0.015,0.990,-0.100,88.889,83.333,105.556,694.444,122.222,N
1157,0.115,1.070,-0.110,122.222,61.111,77.778,738.889,44.444,N
1158,0.035,1.070,-0.135,180.556,83.333,122.222,705.556,33.333,N
1159,0.005,0.460,0.835,61.111,113.889,361.111,847.222,141.667,/
1160,-0.270,0.145,0.580,194.444,105.556,341.667,827.778,19.444,/
1161,-0.450,0.935,-0.355,58.333,88.889,100.000,866.667,38.889,f
1162,-0.360,1.045,-0.470,66.667,86.111,138.889,777.778,88.889,N
1163,-0.090,1.180,-0.180,161.111,86.111,161.111,777.778,0.000,N
1164,-0.025,1.270,-0.180,72.222,77.778,111.111,744.444,33.333,N
1165,0.025,1.230,-0.105,188.889,86.111,138.889,797.222,52.778,N
1166,0.070,1.335,-0.050,122.222,75.000,94.444,705.556,91.667,N
1167,-0.025,1.370,0.045,161.111,88.889,113.889,836.111,130.556,f
1168,-0.070,1.185,-0.155,72.222,83.333,133.333,738.889,97.222,N
1169,-0.050,1.405,0.100,125.000,86.111,100.000,961.111,222.222,f
1170,-0.090,1.545,0.105,183.333,86.111,94.444,886.111,75.000,f
1171,-0.170,1.110,-0.310,97.222,83.333,119.444,750.000,136.111,N
1172,0.425,1.735,-0.315,58.333,116.667,405.556,538.889,211.111,V
1173,0.010,1.095,0.615,180.556,66.667,88.889,844.444,305.556,f
1174,-0.240,0.895,0.200,80.556,97.222,97.222,797.222,47.222,f
1175,-0.105,0.380,0.930,77.778,113.889,386.111,869.444,72.222,/
1176,-0.290,0.240,0.820,138.889,116.667,375.000,872.222,2.778,/
1177,-0.425,1.300,-0.145,69.444,91.667,105.556,897.222,25.000,f
1178,0.065,1.580,-0.810,58.333,116.667,405.556,566.667,330.556,V
1179,-0.650,0.560,-0.305,80.556,111.111,394.444,458.333,108.333,V
1180,0.115,1.125,-0.015,58.333,86.111,108.333,925.000,466.667,f
1181,-0.085,1.140,-0.170,191.667,75.000,94.444,705.556,219.444,N
1182,-0.130,1.240,-0.235,72.222,69.444,88.889,663.889,41.667,N
1183,-0.150,1.230,-0.280,166.667,83.333,105.556,727.778,63.889,N
1184,0.005,1.375,-0.190,100.000,86.111,108.333,752.778,25.000,N
1185,-0.060,1.300,-0.200,91.667,75.000,105.556,772.222,19.444,N
1186,-0.095,1.360,-0.210,52.778,72.222,88.889,780.556,8.333,N
1187,0.080,1.575,-0.075,152.778,83.333,169.444,833.333,52.778,N
1188,0.150,1.470,0.025,55.556,75.000,394.444,683.333,150.000,N
1189,0.240,1.530,0.040,188.889,75.000,91.667,652.778,30.556,N
1190,0.095,0.705,1.065,150.000,113.889,388.889,791.667,138.889,/
1191,-0.205,0.055,1.025,152.778,111.111,369.444,888.889,97.222,/
1192,-0.210,0.795,-0.055,61.111,83.333,308.333,858.333,30.556,f
1193,-0.070,1.145,-0.150,108.333,75.000,108.333,827.778,30.556,N
1194,-0.005,1.175,-0.220,58.333,72.222,91.667,716.667,111.111,N
1195,0.340,0.940,-0.075,58.333,88.889,102.778,900.000,183.333,f
1196,-0.270,1.220,0.230,63.889,113.889,113.889,758.333,141.667,f
1197,-0.235,1.105,-0.335,61.111,80.556,391.667,730.556,27.778,N
1198,-0.175,1.130,-0.315,186.111,86.111,108.333,705.556,25.000,N
1199,0.440,1.870,-0.615,58.333,116.667,405.556,541.667,163.889,V
1200,-0.100,1.340,0.300,188.889,116.667,116.667,877.778,336.111,f
1201,-0.130,1.275,-0.175,52.778,72.222,391.667,697.222,180.556,N
1202,0.155,1.230,-0.220,177.778,80.556,94.444,725.000,27.778,N
1203,-0.325,1.140,-0.470,186.111,86.111,105.556,725.000,0.000,N
1204,-0.405,1.055,-0.510,75.000,75.000,91.667,722.222,2.778,N
1205,-0.180,1.265,-0.260,66.667,80.556,400.000,691.667,30.556,N
1206,-0.070,1.285,-0.120,52.778,69.444,105.556,655.556,36.111,N
1207,0.005,1.385,-0.190,116.667,83.333,105.556,727.778,72.222,N
1208,-0.200,1.310,-0.340,105.556,80.556,97.222,688.889,38.889,N
1209,-0.260,1.260,-0.385,150.000,75.000,94.444,780.556,91.667,N
1210,0.015,1.355,0.130,58.333,88.889,102.778,988.889,208.333,f
1211,-0.115,2.185,0.310,172.222,75.000,91.667,816.667,172.222,f
1212,-0.085,2.305,0.310,102.778,75.000,88.889,816.667,0.000,f
1213,-0.120,1.260,-0.235,191.667,77.778,105.556,669.444,147.222,N
1214,-0.090,1.445,-0.225,141.667,80.556,108.333,650.000,19.444,N
1215,-0.100,1.435,-0.230,80.556,80.556,105.556,669.444,19.444,N
1216,-0.010,1.475,-0.110,63.889,83.333,122.222,719.444,50.000,N
1217,-0.025,1.550,-0.145,186.111,86.111,105.556,719.444,0.000,N
1218,-0.055,1.450,-0.200,130.556,83.333,108.333,811.111,91.667,N
1219,-0.015,1.470,-0.090,108.333,77.778,108.333,727.778,83.333,N
1220,0.065,1.690,-0.025,183.333,86.111,108.333,625.000,102.778,N
1221,0.115,1.620,-0.105,183.333,83.333,102.778,636.111,11.111,N
1222,0.040,2.330,0.520,75.000,77.778,91.667,825.000,188.889,f
1223,-0.020,1.575,-0.115,61.111,80.556,91.667,683.333,141.667,N
1224,0.425,2.375,-0.355,58.333,116.667,402.778,511.111,172.222,V
1225,0.095,1.610,-0.045,55.556,75.000,108.333,816.667,305.556,N
1226,0.045,2.490,-0.455,998975.000,999033.333,999033.333,597.222,219.444,V
1227,0.165,2.515,0.660,80.556,75.000,88.889,994.444,397.222,f
1228,0.040,1.400,0.960,105.556,80.556,94.444,841.667,152.778,f
1229,-0.130,1.390,-0.280,52.778,75.000,88.889,750.000,91.667,N
1230,-0.145,1.405,-0.335,172.222,83.333,136.111,716.667,33.333,N
1231,-0.155,1.395,-0.235,119.444,72.222,108.333,616.667,100.000,N
1232,-0.255,1.290,-0.365,197.222,83.333,188.889,691.667,75.000,N
1233,-0.170,1.460,-0.330,183.333,91.667,111.111,752.778,61.111,N
1234,-0.160,1.350,-0.330,197.222,88.889,108.333,966.667,213.889,N
1235,0.410,2.250,-0.705,58.333,116.667,405.556,547.222,419.444,V
1236,-0.245,1.340,-0.340,197.222,83.333,125.000,800.000,252.778,N
1237,-0.155,1.385,-0.305,175.000,80.556,108.333,663.889,136.111,N
1238,-0.095,1.450,-0.225,166.667,83.333,138.889,805.556,141.667,N
1239,-0.165,1.450,-0.280,161.111,80.556,125.000,677.778,127.778,N
1240,-0.095,1.550,-0.205,133.333,86.111,108.333,655.556,22.222,N
1241,-0.105,1.400,-0.250,163.889,83.333,108.333,647.222,8.333,N
1242,-0.175,1.250,-0.340,183.333,86.111,108.333,852.778,205.556,N
1243,-0.195,1.415,-0.250,150.000,86.111,127.778,816.667,36.111,N
1244,0.570,2.525,-0.485,58.333,116.667,116.667,566.667,250.000,V
1245,0.155,1.970,0.225,58.333,86.111,100.000,902.778,336.111,f
1246,0.125,1.675,0.045,61.111,77.778,155.556,738.889,163.889,N
1247,0.290,1.820,0.110,69.444,69.444,94.444,641.667,97.222,N
1248,0.135,1.480,-0.070,194.444,63.889,77.778,658.333,16.667,N
1249,-0.030,1.630,-0.170,83.333,83.333,102.778,672.222,13.889,N
1250,0.485,1.840,-0.255,58.333,111.111,116.667,591.667,80.556,V
1251,0.045,1.570,-0.070,86.111,83.333,105.556,861.111,269.444,N
1252,-0.035,1.340,-0.240,175.000,69.444,91.667,802.778,58.333,N
1253,-0.180,1.375,-0.290,66.667,86.111,105.556,747.222,55.556,N
1254,0.000,0.635,1.055,61.111,108.333,358.333,841.667,94.444,/
1255,-0.105,1.730,1.205,194.444,80.556,97.222,766.667,75.000,f
1256,-0.060,1.520,-0.210,66.667,80.556,105.556,722.222,44.444,N
1257,0.810,2.570,-0.340,58.333,116.667,116.667,530.556,191.667,V
1258,0.710,2.160,-0.295,58.333,116.667,405.556,488.889,41.667,V
1259,0.010,1.565,-0.165,105.556,75.000,91.667,886.111,397.222,N
1260,-0.095,1.315,-0.315,55.556,75.000,125.000,686.111,200.000,N
1261,-0.150,0.475,0.905,116.667,116.667,358.333,891.667,205.556,/
1262,-0.180,0.470,1.005,155.556,111.111,344.444,838.889,52.778,/
1263,-0.175,1.270,-0.005,113.889,113.889,325.000,791.667,47.222,f
1264,-0.180,1.470,-0.245,197.222,77.778,397.222,713.889,77.778,N
1265,-0.010,2.345,-0.025,58.333,113.889,405.556,677.778,36.111,V
1266,0.280,2.655,-0.205,58.333,116.667,402.778,416.667,261.111,V
1267,0.070,1.670,0.615,188.889,105.556,105.556,900.000,483.333,f
1268,0.450,2.395,-0.570,58.333,116.667,119.444,683.333,216.667,V
1269,0.065,1.605,-0.010,63.889,80.556,97.222,719.444,36.111,N
1270,0.210,1.365,0.050,155.556,75.000,122.222,663.889,55.556,N
1271,0.255,1.625,-0.195,58.333,116.667,405.556,508.333,155.556,V
1272,-0.105,1.365,-0.365,197.222,66.667,91.667,716.667,208.333,N
1273,-0.225,1.660,0.110,58.333,108.333,108.333,811.111,94.444,f
1274,-0.095,1.530,-0.245,52.778,75.000,122.222,711.111,100.000,N
1275,-0.025,1.470,-0.130,52.778,75.000,108.333,866.667,155.556,N
1276,0.770,2.395,-0.310,58.333,116.667,402.778,569.444,297.222,V
1277,0.140,2.270,0.440,52.778,77.778,91.667,897.222,327.778,f
1278,0.230,1.565,-0.050,147.222,66.667,80.556,691.667,205.556,N
1279,0.045,1.040,0.105,94.444,108.333,397.222,480.556,211.111,V
1280,0.300,2.380,0.770,130.556,83.333,91.667,822.222,341.667,f
1281,0.335,1.530,0.165,194.444,66.667,80.556,727.778,94.444,N
1282,0.230,1.310,-0.250,186.111,83.333,122.222,758.333,30.556,N
1283,-0.130,1.440,0.305,61.111,113.889,113.889,877.778,119.444,f
1284,-0.035,1.445,-0.250,58.333,116.667,119.444,513.889,363.889,V
1285,0.135,1.760,0.315,61.111,88.889,105.556,902.778,388.889,f
1286,0.055,0.750,1.065,52.778,100.000,338.889,855.556,47.222,/
1287,0.430,1.850,-0.630,58.333,116.667,116.667,675.000,180.556,V
1288,0.005,1.870,0.310,50.000,66.667,75.000,822.222,147.222,f
1289,-0.085,1.205,-0.230,144.444,83.333,111.111,763.889,58.333,N
1290,-0.115,1.240,-0.255,152.778,75.000,91.667,725.000,38.889,N
1291,-0.115,1.260,-0.220,52.778,72.222,91.667,763.889,38.889,N
1292,-0.005,0.625,0.960,125.000,111.111,363.889,938.889,175.000,/
1293,-0.225,0.315,0.845,175.000,108.333,358.333,866.667,72.222,/
1294,-0.285,0.205,0.900,55.556,102.778,341.667,830.556,36.111,/
1295,-0.310,0.920,0.095,125.000,108.333,108.333,752.778,77.778,f
1296,-0.280,1.115,-0.375,69.444,86.111,405.556,644.444,108.333,N
1297,-0.155,1.215,-0.280,63.889,86.111,125.000,680.556,36.111,N
1298,-0.040,1.335,-0.135,133.333,86.111,111.111,697.222,16.667,N
1299,0.475,0.880,-0.130,58.333,100.000,105.556,688.889,8.333,V
1300,0.110,1.170,0.405,100.000,102.778,122.222,880.556,191.667,f
1301,0.075,0.410,1.065,61.111,113.889,361.111,861.111,19.444,/
1302,-0.200,0.075,0.895,169.444,113.889,352.778,827.778,33.333,/
1303,-0.345,1.445,0.000,58.333,83.333,100.000,800.000,27.778,f
1304,-0.220,0.080,0.715,52.778,102.778,341.667,850.000,50.000,/
1305,-0.235,1.055,0.320,55.556,108.333,108.333,802.778,47.222,f
1306,-0.130,1.055,-0.225,52.778,80.556,127.778,680.556,122.222,N
1307,-0.025,1.115,-0.150,69.444,72.222,102.778,763.889,83.333,N
1308,-0.045,1.125,-0.145,88.889,75.000,94.444,700.000,63.889,N
1309,0.095,1.255,0.345,116.667,116.667,116.667,880.556,180.556,f
1310,0.005,1.095,-0.160,183.333,80.556,125.000,700.000,180.556,N
1311,-0.045,1.010,-0.160,69.444,86.111,105.556,719.444,19.444,N
1312,-0.060,1.030,-0.195,194.444,61.111,91.667,672.222,47.222,N
1313,-0.020,1.085,-0.165,138.889,80.556,144.444,750.000,77.778,N
1314,-0.015,1.100,-0.160,138.889,72.222,102.778,761.111,11.111,N
1315,0.000,1.060,-0.135,191.667,83.333,108.333,855.556,94.444,N
1316,0.465,1.480,-0.115,58.333,113.889,405.556,558.333,297.222,V
1317,0.065,0.765,0.355,147.222,111.111,322.222,877.778,319.444,f
1318,0.825,-1.735,0.470,72.222,0.000,222.222,880.556,2.778,f
1319,-0.345,0.720,-0.295,186.111,91.667,108.333,758.333,122.222,f
1320,0.195,1.035,-0.580,58.333,116.667,405.556,577.778,180.556,V
1321,-0.170,1.015,-0.050,58.333,88.889,105.556,894.444,316.667,f
1322,-0.195,0.895,-0.255,52.778,77.778,125.000,766.667,127.778,N
1323,-0.095,0.940,-0.215,88.889,86.111,102.778,816.667,50.000,N
1324,-0.035,1.095,0.095,52.778,66.667,83.333,897.222,80.556,f
1325,-0.185,0.820,-0.300,172.222,75.000,122.222,736.111,161.111,N
1326,-0.170,0.820,-0.260,177.778,80.556,113.889,669.444,66.667,N
1327,-0.080,0.330,0.835,180.556,116.667,361.111,836.111,166.667,/
1328,-0.260,0.200,0.700,194.444,111.111,344.444,830.556,5.556,/
1329,-0.230,0.335,0.780,63.889,113.889,372.222,822.222,8.333,/
1330,-0.270,0.480,0.000,150.000,102.778,358.333,886.111,63.889,f
1331,-0.250,0.270,0.775,47.222,97.222,358.333,913.889,27.778,/
1332,-0.265,0.220,0.730,125.000,108.333,358.333,841.667,72.222,/
1333,-0.295,0.230,0.750,133.333,113.889,352.778,811.111,30.556,/
1334,-0.320,0.320,0.815,50.000,100.000,358.333,797.222,13.889,/
1335,-0.215,0.310,0.830,77.778,111.111,391.667,794.444,2.778,/
1336,-0.180,0.305,0.875,58.333,108.333,391.667,863.889,69.444,/
1337,-0.215,1.220,0.020,144.444,83.333,94.444,919.444,55.556,f
1338,0.385,1.360,-0.520,58.333,116.667,405.556,602.778,316.667,V
1339,0.020,1.100,0.095,63.889,86.111,100.000,916.667,313.889,f
1340,0.470,1.425,-0.490,58.333,116.667,400.000,630.556,286.111,V
1341,-0.010,1.550,0.430,91.667,75.000,91.667,847.222,216.667,f
1342,0.030,1.180,-0.080,150.000,86.111,122.222,658.333,188.889,N
1343,0.045,1.185,-0.065,58.333,80.556,125.000,711.111,52.778,N
1344,0.020,1.145,-0.105,69.444,72.222,88.889,811.111,100.000,N
1345,0.090,0.630,1.120,108.333,108.333,391.667,919.444,108.333,/
1346,-0.010,0.525,0.965,66.667,100.000,375.000,875.000,44.444,/
1347,-0.175,1.335,0.090,119.444,77.778,91.667,841.667,33.333,f
1348,-0.135,1.050,-0.190,52.778,72.222,391.667,713.889,127.778,N
1349,-0.035,1.155,-0.110,55.556,63.889,380.556,736.111,22.222,N
1350,0.360,1.705,-0.065,58.333,116.667,405.556,491.667,244.444,V
1351,0.175,1.140,0.675,52.778,66.667,77.778,836.111,344.444,f
1352,0.970,1.755,-0.340,58.333,113.889,119.444,566.667,269.444,V
1353,0.155,0.700,1.105,100.000,116.667,388.889,997.222,430.556,/
1354,-0.035,1.525,0.280,69.444,83.333,102.778,869.444,127.778,f
1355,-0.010,1.080,-0.140,75.000,80.556,147.222,755.556,113.889,N
1356,0.525,1.595,-0.320,58.333,116.667,405.556,533.333,222.222,V
1357,-0.065,1.090,0.595,186.111,66.667,77.778,830.556,297.222,f
1358,-0.105,0.480,1.110,69.444,116.667,369.444,847.222,16.667,/
1359,-0.115,0.410,1.055,61.111,111.111,375.000,858.333,11.111,/
1360,-0.250,0.325,0.955,58.333,111.111,394.444,883.333,25.000,/
1361,-0.290,0.230,0.715,197.222,111.111,361.111,900.000,16.667,/
1362,-0.360,0.225,0.945,100.000,116.667,375.000,852.778,47.222,/
1363,-0.330,0.290,0.990,61.111,113.889,361.111,847.222,5.556,/
1364,-0.375,0.240,1.065,66.667,113.889,355.556,808.333,38.889,/
1365,-0.355,0.315,0.780,122.222,113.889,366.667,800.000,8.333,/
1366,-0.410,0.195,0.535,66.667,116.667,375.000,830.556,30.556,/
1367,-0.305,2.155,0.130,52.778,75.000,88.889,872.222,41.667,f
1368,-0.030,1.465,-0.120,58.333,83.333,108.333,738.889,133.333,N
1369,0.235,0.815,1.330,63.889,113.889,375.000,902.778,163.889,/
1370,0.090,1.485,0.215,86.111,77.778,147.222,822.222,80.556,f
1371,0.125,0.670,1.385,66.667,113.889,355.556,827.778,5.556,/
1372,0.085,0.640,1.285,175.000,113.889,366.667,791.667,36.111,/
1373,-0.045,0.490,1.200,58.333,116.667,402.778,866.667,75.000,/
1374,-0.100,0.495,1.095,58.333,113.889,402.778,911.111,44.444,/
1375,-0.105,1.200,0.045,63.889,102.778,161.111,980.556,69.444,f
1376,0.040,1.555,0.505,61.111,113.889,113.889,847.222,133.333,f
1377,0.190,0.595,1.385,86.111,113.889,355.556,858.333,11.111,/
1378,0.025,0.535,1.250,77.778,111.111,358.333,805.556,52.778,/
1379,-0.050,0.420,1.160,55.556,108.333,375.000,830.556,25.000,/
1380,-0.160,0.365,1.150,116.667,116.667,391.667,844.444,13.889,/
1381,-0.215,0.405,1.000,63.889,116.667,405.556,900.000,55.556,/
1382,-0.180,0.365,1.065,61.111,108.333,375.000,908.333,8.333,/
1383,-0.245,0.340,1.040,69.444,116.667,388.889,858.333,50.000,/
1384,-0.285,0.290,0.960,58.333,113.889,361.111,844.444,13.889,/
1385,-0.280,0.325,1.005,58.333,113.889,344.444,805.556,38.889,/
1386,-0.165,0.330,1.150,58.333,105.556,355.556,791.667,13.889,/
1387,-0.145,0.445,1.175,58.333,108.333,355.556,833.333,41.667,/
1388,-0.190,0.355,0.995,66.667,116.667,405.556,855.556,22.222,/
1389,-0.225,0.410,1.000,52.778,108.333,391.667,908.333,52.778,/
1390,-0.280,0.145,1.050,180.556,116.667,375.000,875.000,33.333,/
1391,-0.245,0.385,1.080,161.111,111.111,355.556,830.556,44.444,/
1392,-0.155,0.405,1.120,158.333,116.667,366.667,797.222,33.333,/
1393,-0.100,0.480,1.080,63.889,111.111,375.000,819.444,22.222,/
1394,-0.160,0.310,1.080,66.667,116.667,375.000,836.111,16.667,/
1395,-0.200,0.340,1.000,58.333,113.889,380.556,861.111,25.000,/
1396,-0.250,0.330,1.030,61.111,116.667,377.778,888.889,27.778,/
1397,-0.285,0.315,1.075,169.444,116.667,369.444,855.556,33.333,/
1398,-0.225,0.300,0.925,66.667,116.667,372.222,830.556,25.000,/
1399,-0.235,0.365,1.010,52.778,105.556,355.556,822.222,8.333,/
1400,-0.235,0.365,1.130,55.556,102.778,358.333,797.222,25.000,/
1401,-0.215,0.470,1.020,52.778,108.333,361.111,819.444,22.222,/
1402,-0.240,0.490,0.985,66.667,116.667,391.667,827.778,8.333,/
1403,-0.235,0.435,1.085,61.111,111.111,400.000,891.667,63.889,/
1404,-0.175,0.570,1.090,136.111,116.667,388.889,891.667,0.000,/
1405,-0.220,0.455,0.955,119.444,116.667,369.444,852.778,38.889,/
1406,-0.325,0.340,0.985,80.556,113.889,355.556,794.444,58.333,/
1407,-0.315,0.405,1.020,58.333,108.333,375.000,791.667,2.778,/
1408,-0.355,0.345,0.910,122.222,113.889,383.333,797.222,5.556,/
1409,-0.330,0.325,0.895,55.556,111.111,391.667,838.889,41.667,/
1410,-0.295,0.355,1.020,61.111,116.667,405.556,922.222,83.333,/
1411,-0.270,0.245,0.960,63.889,113.889,375.000,880.556,41.667,/
1412,-0.270,0.255,0.840,55.556,108.333,363.889,825.000,55.556,/
1413,-0.290,0.260,0.555,66.667,111.111,358.333,830.556,5.556,/
1414,-0.360,0.275,0.905,63.889,116.667,361.111,813.889,16.667,/
1415,-0.375,0.165,0.855,77.778,111.111,372.222,827.778,13.889,/
1416,-0.340,0.280,0.930,66.667,116.667,388.889,822.222,5.556,/
1417,-0.305,0.260,1.005,63.889,116.667,405.556,866.667,44.444,/
1418,-0.295,0.265,0.850,55.556,108.333,388.889,875.000,8.333,/
1419,-0.305,0.285,0.750,72.222,111.111,377.778,863.889,11.111,/
1420,-0.360,0.210,0.975,155.556,105.556,344.444,833.333,30.556,/
1421,-0.335,0.290,0.955,194.444,113.889,363.889,788.889,44.444,/
1422,-0.315,0.255,0.930,91.667,105.556,358.333,797.222,8.333,/
1423,-0.295,0.260,0.930,58.333,116.667,386.111,813.889,16.667,/
1424,-0.320,0.225,0.930,97.222,113.889,402.778,922.222,108.333,/
1425,-0.290,0.230,0.870,61.111,113.889,377.778,916.667,5.556,/
1426,-0.350,0.235,0.865,141.667,105.556,375.000,827.778,88.889,/
1427,-0.360,0.140,0.965,63.889,113.889,375.000,825.000,2.778,/
1428,-0.355,-0.195,0.885,194.444,108.333,391.667,777.778,47.222,/
1429,-0.380,0.180,0.765,61.111,113.889,358.333,838.889,61.111,/
1430,-0.410,0.120,0.350,58.333,102.778,377.778,841.667,2.778,/
1431,-0.155,0.930,-0.195,58.333,86.111,105.556,897.222,55.556,f
1432,-0.195,1.745,0.090,52.778,105.556,105.556,850.000,47.222,f
1433,-0.190,0.925,-0.055,58.333,91.667,158.333,852.778,2.778,f
1434,-0.220,0.985,-0.385,155.556,75.000,105.556,797.222,55.556,N
1435,-0.120,0.840,0.075,163.889,102.778,325.000,825.000,27.778,f
1436,-0.185,0.830,-0.045,147.222,97.222,322.222,816.667,8.333,f
1437,-0.275,0.240,0.965,61.111,108.333,358.333,830.556,13.889,/
1438,-0.345,0.195,0.855,58.333,108.333,391.667,847.222,16.667,/
1439,-0.390,0.220,0.775,130.556,113.889,391.667,888.889,41.667,/
1440,-0.405,0.140,0.890,191.667,111.111,391.667,863.889,25.000,/
1441,-0.380,-0.040,0.940,58.333,91.667,375.000,813.889,50.000,/
1442,-0.345,0.215,0.895,88.889,111.111,347.222,847.222,33.333,/
1443,-0.315,0.250,0.875,75.000,105.556,375.000,786.111,61.111,/
1444,-0.385,0.135,0.925,163.889,116.667,400.000,838.889,52.778,/
1445,-0.340,0.140,0.835,58.333,113.889,402.778,911.111,72.222,/
1446,-0.305,0.115,0.850,50.000,108.333,377.778,950.000,38.889,/
1447,-0.350,0.205,0.945,61.111,111.111,388.889,838.889,111.111,/
1448,-0.365,0.245,0.930,63.889,116.667,377.778,836.111,2.778,/
1449,-0.295,0.195,0.885,61.111,111.111,355.556,797.222,38.889,/
1450,-0.285,0.215,0.950,144.444,111.111,375.000,813.889,16.667,/
1451,-0.340,0.170,0.985,72.222,111.111,377.778,863.889,50.000,/
1452,-0.275,0.235,0.905,58.333,116.667,402.778,847.222,16.667,/
1453,-0.285,0.180,0.880,55.556,111.111,377.778,902.778,55.556,/
1454,-0.335,0.140,0.960,66.667,116.667,391.667,858.333,44.444,/
1455,-0.300,0.190,0.960,58.333,116.667,369.444,855.556,2.778,/
1456,-0.230,0.325,0.885,55.556,108.333,361.111,819.444,36.111,/
1457,-0.290,0.205,1.025,69.444,113.889,369.444,794.444,25.000,/
1458,-0.235,0.315,1.040,58.333,113.889,386.111,802.778,8.333,/
1459,-0.230,0.220,0.915,61.111,116.667,397.222,855.556,52.778,/
1460,-0.340,0.135,0.895,63.889,116.667,394.444,888.889,33.333,/
1461,-0.360,0.260,0.960,63.889,113.889,391.667,863.889,25.000,/
1462,-0.290,0.245,0.875,66.667,116.667,386.111,838.889,25.000,/
1463,-0.310,0.250,0.900,61.111,113.889,358.333,813.889,25.000,/
1464,-0.345,0.255,0.970,69.444,116.667,388.889,786.111,27.778,/
1465,-0.335,0.220,0.950,80.556,113.889,391.667,861.111,75.000,/
1466,-0.300,0.235,0.885,61.111,111.111,391.667,847.222,13.889,/
1467,-0.340,0.155,0.975,169.444,116.667,391.667,891.667,44.444,/
1468,-0.315,0.825,0.135,197.222,113.889,372.222,847.222,44.444,f
1469,-0.230,0.180,0.965,100.000,116.667,361.111,866.667,19.444,/
1470,-0.250,0.290,1.005,61.111,113.889,375.000,813.889,52.778,/
1471,-0.255,0.090,1.005,111.111,111.111,394.444,813.889,0.000,/
1472,-0.315,0.160,0.855,55.556,105.556,375.000,827.778,13.889,/
1473,-0.330,0.180,0.845,80.556,116.667,391.667,844.444,16.667,/
1474,-0.380,0.175,0.960,58.333,116.667,400.000,855.556,11.111,/
1475,-0.315,0.875,0.015,52.778,105.556,377.778,850.000,5.556,f
1476,-0.255,1.170,-0.390,152.778,86.111,105.556,813.889,36.111,N
1477,-0.045,1.610,0.095,55.556,83.333,100.000,855.556,41.667,f
1478,-0.065,1.325,-0.180,130.556,80.556,91.667,722.222,133.333,N
1479,0.070,1.400,-0.090,47.222,72.222,111.111,719.444,2.778,N
1480,0.120,1.450,-0.055,188.889,83.333,122.222,736.111,16.667,N
1481,0.115,1.475,0.960,136.111,94.444,105.556,883.333,147.222,f
1482,-0.005,0.445,1.165,61.111,108.333,372.222,955.556,72.222,/
1483,-0.185,0.210,0.970,55.556,105.556,377.778,847.222,108.333,/
1484,-0.315,0.150,0.845,188.889,116.667,372.222,813.889,33.333,/
1485,-0.330,1.035,0.010,116.667,116.667,116.667,797.222,16.667,f
1486,-0.185,1.190,0.275,94.444,108.333,108.333,844.444,47.222,f
1487,-0.105,1.160,-0.235,66.667,77.778,108.333,791.667,52.778,N
1488,-0.030,0.380,1.185,72.222,116.667,400.000,902.778,111.111,/
1489,-0.170,0.315,1.065,175.000,116.667,394.444,888.889,13.889,/
1490,-0.235,0.200,0.980,127.778,113.889,377.778,850.000,38.889,/
1491,-0.285,0.090,1.020,180.556,113.889,361.111,850.000,0.000,/
1492,-0.255,0.205,1.015,63.889,116.667,363.889,819.444,30.556,/
1493,-0.230,0.175,0.950,58.333,116.667,386.111,805.556,13.889,/
1494,-0.305,0.040,0.860,177.778,108.333,363.889,838.889,33.333,/
1495,-0.335,1.015,0.440,61.111,86.111,102.778,819.444,19.444,f
1496,-0.200,0.295,0.750,183.333,116.667,394.444,969.444,150.000,/
1497,-0.215,0.215,1.020,61.111,116.667,377.778,880.556,88.889,/
1498,-0.315,0.695,0.455,183.333,97.222,358.333,802.778,77.778,f
1499,-0.295,0.815,0.280,55.556,102.778,358.333,805.556,2.778,f
1500,-0.220,0.245,1.020,52.778,102.778,358.333,836.111,30.556,/
1501,-0.350,0.065,0.855,61.111,111.111,375.000,838.889,2.778,/
1502,-0.360,0.235,0.370,58.333,116.667,405.556,888.889,50.000,/
1503,-0.225,1.540,0.105,147.222,116.667,116.667,913.889,25.000,f
1504,-0.145,1.465,0.195,183.333,113.889,113.889,850.000,63.889,f
1505,-0.100,1.310,0.510,177.778,86.111,100.000,844.444,5.556,f
1506,-0.090,0.475,0.730,86.111,111.111,355.556,858.333,13.889,/
1507,-0.170,0.305,0.970,161.111,113.889,394.444,808.333,50.000,/
1508,-0.290,1.670,0.045,194.444,111.111,111.111,833.333,25.000,f
1509,-0.160,1.405,0.040,66.667,91.667,108.333,891.667,58.333,f
1510,-0.040,0.420,1.115,136.111,116.667,388.889,916.667,25.000,/
1511,-0.140,0.375,1.035,58.333,108.333,377.778,872.222,44.444,/
1512,-0.195,0.365,1.150,66.667,113.889,375.000,844.444,27.778,/
1513,-0.130,0.410,1.040,83.333,113.889,372.222,800.000,44.444,/
1514,-0.155,0.380,0.955,77.778,111.111,372.222,811.111,11.111,/
1515,-0.205,0.310,1.020,52.778,111.111,394.444,830.556,19.444,/
1516,-0.230,0.290,0.945,52.778,108.333,397.222,897.222,66.667,/
1517,-0.240,0.220,0.905,58.333,116.667,400.000,933.333,36.111,/
1518,-0.260,0.190,0.940,83.333,116.667,375.000,858.333,75.000,/
1519,-0.280,0.205,0.975,94.444,113.889,375.000,830.556,27.778,/
1520,-0.300,0.195,0.890,63.889,108.333,355.556,816.667,13.889,/
1521,-0.245,1.765,0.050,102.778,91.667,108.333,786.111,30.556,f
1522,-0.080,1.085,0.115,97.222,111.111,372.222,847.222,61.111,f
1523,-0.045,0.385,1.210,66.667,116.667,405.556,919.444,72.222,/
1524,-0.150,0.285,0.955,66.667,116.667,391.667,886.111,33.333,/
1525,-0.285,0.290,0.930,108.333,116.667,388.889,852.778,33.333,/
1526,-0.300,0.185,0.970,69.444,116.667,388.889,863.889,11.111,/
1527,-0.320,0.090,0.885,58.333,108.333,361.111,805.556,58.333,/
1528,-0.325,0.190,0.845,55.556,111.111,375.000,802.778,2.778,/
1529,-0.280,0.115,0.920,58.333,111.111,358.333,833.333,30.556,/
1530,-0.335,1.090,0.395,88.889,83.333,97.222,830.556,2.778,f
1531,-0.245,1.160,-0.380,63.889,83.333,122.222,791.667,38.889,N
1532,0.240,1.615,-0.385,58.333,113.889,405.556,555.556,236.111,V
1533,-0.050,0.310,0.740,75.000,105.556,344.444,888.889,333.333,/
1534,-0.185,1.320,-0.045,61.111,86.111,111.111,836.111,52.778,f
1535,-0.110,0.265,1.015,61.111,113.889,358.333,786.111,50.000,/
1536,-0.235,0.120,1.025,72.222,113.889,383.333,805.556,19.444,/
1537,-0.255,0.865,-0.155,58.333,97.222,155.556,852.778,47.222,f
1538,-0.155,0.305,0.900,172.222,116.667,388.889,897.222,44.444,/
1539,-0.255,0.810,-0.050,169.444,113.889,369.444,830.556,66.667,f
1540,-0.210,1.395,-0.050,61.111,91.667,111.111,877.778,47.222,f
1541,-0.130,1.230,-0.250,105.556,75.000,91.667,758.333,119.444,N
1542,0.030,1.760,0.330,52.778,105.556,105.556,816.667,58.333,f
1543,-0.050,0.590,0.860,144.444,108.333,355.556,855.556,38.889,/
1544,-0.180,0.475,0.965,152.778,116.667,391.667,825.000,30.556,/
1545,-0.160,0.525,0.920,58.333,113.889,394.444,841.667,16.667,/
1546,-0.250,0.350,0.915,91.667,113.889,402.778,880.556,38.889,/
1547,-0.320,0.390,0.885,102.778,102.778,375.000,877.778,2.778,/
1548,-0.330,0.340,0.770,58.333,116.667,386.111,833.333,44.444,/
1549,-0.415,0.265,0.780,191.667,105.556,358.333,802.778,30.556,/
1550,-0.465,0.165,0.680,69.444,116.667,375.000,797.222,5.556,/
1551,-0.450,0.175,0.765,58.333,116.667,372.222,833.333,36.111,/
1552,-0.380,0.270,0.800,136.111,116.667,405.556,866.667,33.333,/
1553,-0.450,0.230,0.735,72.222,116.667,402.778,902.778,36.111,/
1554,-0.365,0.220,0.780,58.333,108.333,388.889,869.444,33.333,/
1555,-0.385,0.235,0.740,197.222,113.889,375.000,838.889,30.556,/
1556,-0.460,0.130,0.755,75.000,108.333,358.333,794.444,44.444,/
1557,-0.450,0.245,0.815,58.333,113.889,394.444,819.444,25.000,/
1558,-0.305,0.340,0.755,61.111,111.111,391.667,850.000,30.556,/
1559,-0.300,1.225,-0.190,191.667,94.444,116.667,863.889,13.889,f
1560,-0.235,1.410,-0.120,108.333,91.667,105.556,883.333,19.444,f
1561,-0.215,0.370,0.935,88.889,116.667,383.333,863.889,19.444,/
1562,-0.300,0.205,0.925,55.556,108.333,372.222,833.333,30.556,/
1563,-0.315,1.250,-0.170,58.333,91.667,105.556,833.333,0.000,f
1564,-0.255,1.220,-0.355,111.111,77.778,108.333,672.222,161.111,N
1565,-0.080,1.365,-0.265,150.000,80.556,108.333,786.111,113.889,N
1566,0.665,2.240,-0.490,58.333,116.667,116.667,541.667,244.444,V
1567,-0.025,2.225,0.455,61.111,83.333,97.222,908.333,366.667,f
1568,0.005,1.450,-0.180,197.222,86.111,127.778,886.111,22.222,N
1569,0.065,0.615,1.085,66.667,116.667,391.667,883.333,2.778,/
1570,-0.150,0.360,1.010,188.889,105.556,358.333,822.222,61.111,/
1571,-0.335,0.150,0.960,100.000,111.111,369.444,794.444,27.778,/
1572,-0.380,0.220,0.775,58.333,113.889,375.000,811.111,16.667,/
1573,-0.420,0.235,0.690,183.333,116.667,375.000,838.889,27.778,/
1574,-0.440,0.775,0.050,80.556,113.889,400.000,863.889,25.000,f
1575,-0.290,1.230,-0.185,58.333,88.889,113.889,947.222,83.333,f
1576,-0.200,1.710,0.070,108.333,83.333,94.444,830.556,116.667,f
1577,-0.135,0.400,1.025,136.111,113.889,388.889,827.778,2.778,/
1578,-0.230,0.270,1.020,86.111,116.667,372.222,833.333,5.556,/
1579,-0.315,0.195,0.895,130.556,116.667,394.444,811.111,22.222,/
1580,-0.370,0.175,0.805,127.778,113.889,375.000,833.333,22.222,/
1581,-0.400,0.155,0.735,116.667,116.667,388.889,855.556,22.222,/
1582,-0.475,0.100,0.755,55.556,108.333,377.778,886.111,30.556,/
1583,-0.435,0.180,0.760,77.778,111.111,386.111,838.889,47.222,/
1584,-0.430,0.210,0.735,75.000,108.333,375.000,847.222,8.333,/
1585,-0.420,0.145,0.800,55.556,102.778,358.333,813.889,33.333,/
1586,-0.435,0.195,0.810,177.778,111.111,361.111,802.778,11.111,/
1587,-0.390,0.300,0.775,50.000,102.778,375.000,808.333,5.556,/
1588,-0.355,0.215,0.745,86.111,116.667,405.556,852.778,44.444,/
1589,-0.370,0.230,0.915,61.111,113.889,397.222,925.000,72.222,/
1590,-0.325,0.205,0.925,66.667,116.667,375.000,875.000,50.000,/
1591,-0.310,0.140,0.840,61.111,108.333,355.556,822.222,52.778,/
1592,-0.305,0.145,0.825,52.778,102.778,361.111,811.111,11.111,/
1593,-0.385,0.100,0.920,61.111,116.667,380.556,791.667,19.444,/
1594,-0.345,0.225,0.890,152.778,108.333,391.667,827.778,36.111,/
1595,-0.360,0.215,0.900,155.556,116.667,402.778,897.222,69.444,/
1596,-0.340,0.220,0.935,158.333,111.111,391.667,888.889,8.333,/
1597,-0.380,0.275,0.995,58.333,116.667,400.000,847.222,41.667,/
1598,-0.215,0.380,1.025,108.333,116.667,380.556,852.778,5.556,/
1599,-0.225,0.330,1.035,105.556,108.333,363.889,830.556,22.222,/
1600,-0.335,0.315,1.020,83.333,116.667,388.889,794.444,36.111,/
1601,-0.305,0.425,1.030,63.889,105.556,377.778,802.778,8.333,/
1602,-0.330,0.340,0.985,52.778,108.333,394.444,836.111,33.333,/
1603,-0.330,0.365,0.895,58.333,113.889,386.111,877.778,41.667,/
1604,-0.270,0.385,0.830,86.111,116.667,388.889,869.444,8.333,/
1605,-0.235,0.780,0.405,63.889,113.889,375.000,841.667,27.778,f
1606,-0.245,0.285,0.885,172.222,113.889,369.444,827.778,13.889,/
1607,-0.305,0.205,0.940,58.333,111.111,358.333,802.778,25.000,/
1608,-0.325,0.200,0.855,58.333,111.111,375.000,800.000,2.778,/
1609,-0.335,0.190,0.835,66.667,116.667,405.556,858.333,58.333,/
1610,-0.350,0.240,0.950,63.889,113.889,402.778,894.444,36.111,/
1611,-0.275,0.250,0.980,63.889,113.889,377.778,866.667,27.778,/
1612,-0.250,0.310,0.975,69.444,116.667,386.111,841.667,25.000,/
1613,-0.210,0.415,0.950,133.333,116.667,358.333,844.444,2.778,/
1614,-0.265,0.310,1.020,108.333,116.667,372.222,786.111,58.333,/
1615,-0.220,0.375,1.000,130.556,113.889,394.444,827.778,41.667,/
1616,-0.160,0.350,1.025,66.667,113.889,388.889,852.778,25.000,/
1617,-0.170,0.240,1.060,61.111,111.111,391.667,877.778,25.000,/
1618,-0.165,0.410,1.070,66.667,116.667,391.667,875.000,2.778,/
1619,-0.170,0.385,0.990,63.889,113.889,391.667,861.111,13.889,/
1620,-0.200,0.330,0.950,147.222,113.889,375.000,833.333,27.778,/
1621,-0.160,1.010,0.260,138.889,113.889,338.889,791.667,41.667,f
1622,-0.090,0.405,1.120,61.111,111.111,372.222,822.222,30.556,/
1623,-0.135,0.440,1.010,69.444,116.667,375.000,841.667,19.444,/
1624,-0.240,0.345,0.990,69.444,116.667,405.556,866.667,25.000,/
1625,-0.285,0.325,0.900,55.556,111.111,391.667,908.333,41.667,/
1626,-0.245,0.200,0.910,63.889,111.111,383.333,852.778,55.556,/
1627,-0.290,0.165,0.970,55.556,105.556,355.556,841.667,11.111,/
1628,-0.265,0.325,1.000,58.333,116.667,366.667,786.111,55.556,/
1629,-0.210,0.360,1.000,58.333,116.667,405.556,827.778,41.667,/
1630,-0.245,0.275,0.945,61.111,116.667,397.222,875.000,47.222,/
1631,-0.310,0.280,0.835,55.556,113.889,400.000,947.222,72.222,/
1632,-0.295,0.250,0.870,66.667,116.667,388.889,911.111,36.111,/
1633,-0.330,0.185,0.860,58.333,116.667,386.111,852.778,58.333,/
1634,-0.360,0.145,0.940,58.333,111.111,375.000,822.222,30.556,/
1635,-0.360,0.160,0.895,58.333,108.333,375.000,813.889,8.333,/
1636,-0.330,0.160,0.885,83.333,113.889,372.222,841.667,27.778,/
1637,-0.320,0.175,0.985,63.889,116.667,380.556,847.222,5.556,/
1638,-0.355,0.245,0.940,55.556,111.111,400.000,863.889,16.667,/
1639,-0.200,0.370,1.055,66.667,113.889,397.222,936.111,72.222,/
1640,-0.040,0.445,1.135,88.889,105.556,372.222,858.333,77.778,/
1641,-0.135,0.300,1.100,58.333,116.667,369.444,833.333,25.000,/
1642,-0.220,0.120,0.930,180.556,113.889,369.444,794.444,38.889,/
1643,-0.570,0.000,0.875,169.444,105.556,380.556,816.667,22.222,/
1644,-0.290,0.840,1.330,77.778,116.667,394.444,847.222,30.556,/
1645,-0.125,0.435,1.055,63.889,113.889,402.778,900.000,52.778,/
1646,-0.085,0.440,1.055,166.667,116.667,394.444,933.333,33.333,/
1647,-0.285,0.325,0.875,197.222,113.889,388.889,850.000,83.333,/
1648,-0.335,0.155,0.850,188.889,116.667,383.333,822.222,27.778,/
1649,-0.395,0.210,0.470,63.889,113.889,358.333,811.111,11.111,/
1650,-0.445,1.145,-0.645,147.222,83.333,105.556,750.000,61.111,N
1651,-0.245,1.230,-0.405,77.778,80.556,108.333,777.778,27.778,N
1652,0.485,2.490,-0.545,58.333,116.667,133.333,536.111,241.667,V
1653,0.070,1.400,-0.105,58.333,116.667,158.333,472.222,63.889,V
1654,0.180,2.230,0.295,175.000,91.667,102.778,922.222,450.000,f
1655,-0.130,1.395,-0.345,133.333,66.667,138.889,691.667,230.556,N
1656,0.010,1.565,-0.110,63.889,86.111,111.111,633.333,58.333,N
1657,0.030,1.600,-0.195,194.444,83.333,94.444,677.778,44.444,N
1658,0.045,1.650,-0.110,61.111,77.778,91.667,633.333,44.444,N
1659,0.095,1.705,-0.110,177.778,80.556,108.333,666.667,33.333,N
1660,0.035,1.560,-0.145,61.111,80.556,105.556,586.111,80.556,N
1661,-0.045,1.505,-0.215,161.111,83.333,138.889,633.333,47.222,N
1662,0.010,1.505,-0.165,127.778,80.556,105.556,697.222,63.889,N
1663,0.090,1.865,-0.070,63.889,116.667,125.000,722.222,25.000,N
1664,0.115,1.655,-0.030,102.778,86.111,108.333,669.444,52.778,N
1665,0.065,1.540,-0.060,61.111,77.778,88.889,644.444,25.000,N
1666,0.155,1.700,0.050,116.667,83.333,388.889,638.889,5.556,N
1667,0.140,1.415,0.130,83.333,80.556,94.444,644.444,5.556,N
1668,0.225,1.595,0.050,122.222,80.556,125.000,697.222,52.778,N
1669,0.235,1.630,0.090,100.000,83.333,105.556,708.333,11.111,N
1670,0.825,1.995,-0.170,58.333,116.667,116.667,594.444,113.889,V
1671,0.005,2.215,0.185,125.000,97.222,116.667,911.111,316.667,f
1672,-0.035,1.500,-0.175,77.778,80.556,108.333,736.111,175.000,N
1673,0.130,1.610,-0.025,150.000,86.111,111.111,708.333,27.778,N
1674,0.095,1.450,-0.120,161.111,83.333,158.333,741.667,33.333,N
1675,0.095,1.630,-0.080,186.111,83.333,105.556,708.333,33.333,N
1676,0.145,1.505,0.040,144.444,86.111,163.889,644.444,63.889,N
1677,0.345,1.480,0.130,186.111,72.222,100.000,633.333,11.111,N
1678,0.225,1.590,0.415,111.111,108.333,108.333,861.111,227.778,f
1679,0.000,1.165,-0.200,197.222,75.000,94.444,830.556,30.556,N
1680,-0.130,0.165,0.790,155.556,116.667,369.444,902.778,72.222,/
1681,-0.485,-0.055,0.730,169.444,116.667,375.000,861.111,41.667,/
1682,-0.450,-0.015,0.680,55.556,105.556,341.667,822.222,38.889,/
1683,-0.445,0.805,-0.220,194.444,102.778,322.222,772.222,50.000,f
1684,-0.325,0.205,0.960,77.778,113.889,380.556,830.556,58.333,/
1685,-0.125,0.420,0.895,61.111,111.111,391.667,852.778,22.222,/
1686,-0.185,0.395,0.935,61.111,111.111,397.222,880.556,27.778,/
1687,-0.230,1.110,0.285,61.111,111.111,372.222,886.111,5.556,f
1688,-0.115,0.525,1.120,61.111,113.889,375.000,850.000,36.111,/
1689,-0.060,1.265,-0.030,58.333,88.889,100.000,847.222,2.778,f
1690,-0.010,1.315,0.120,177.778,111.111,313.889,769.444,77.778,f
1691,0.045,2.525,0.520,63.889,75.000,88.889,816.667,47.222,f
1692,0.170,0.810,1.270,61.111,113.889,394.444,866.667,50.000,/
1693,0.000,0.505,1.170,127.778,113.889,394.444,883.333,16.667,/
1694,-0.130,0.350,1.160,61.111,113.889,377.778,866.667,16.667,/
1695,-0.155,0.445,1.045,69.444,116.667,402.778,858.333,8.333,/
1696,-0.135,0.435,1.070,63.889,116.667,375.000,844.444,13.889,/
1697,-0.185,0.340,1.065,61.111,111.111,338.889,797.222,47.222,/
1698,-0.205,0.480,1.015,119.444,113.889,372.222,805.556,8.333,/
1699,-0.220,0.350,1.040,175.000,116.667,383.333,838.889,33.333,/
1700,-0.250,0.360,0.910,61.111,111.111,397.222,838.889,0.000,/
1701,-0.200,0.330,0.895,80.556,116.667,394.444,919.444,80.556,/
1702,-0.265,0.225,0.950,58.333,108.333,372.222,861.111,58.333,/
1703,-0.315,0.080,0.915,72.222,102.778,388.889,794.444,66.667,/
1704,-0.285,0.230,0.820,186.111,116.667,369.444,833.333,38.889,/
1705,-0.370,0.160,0.825,111.111,113.889,391.667,825.000,8.333,/
1706,-0.420,0.090,0.620,58.333,116.667,386.111,858.333,33.333,/
1707,-0.445,1.660,-0.170,75.000,116.667,116.667,902.778,44.444,f
1708,-0.205,1.355,-0.090,58.333,88.889,108.333,911.111,8.333,f
1709,-0.135,1.050,-0.010,108.333,88.889,100.000,822.222,88.889,f
1710,-0.220,0.290,0.685,125.000,108.333,361.111,852.778,30.556,/
1711,-0.235,0.770,0.155,72.222,102.778,338.889,794.444,58.333,f
1712,-0.320,0.215,0.910,136.111,116.667,375.000,847.222,52.778,/
1713,-0.315,0.245,0.760,72.222,113.889,386.111,836.111,11.111,/
1714,-0.340,0.095,0.700,55.556,105.556,394.444,836.111,0.000,/
1715,-0.470,0.085,0.780,63.889,116.667,391.667,891.667,55.556,/
1716,-0.330,0.190,0.780,55.556,102.778,361.111,891.667,0.000,/
1717,-0.270,0.290,0.840,55.556,105.556,361.111,833.333,58.333,/
1718,-0.300,0.665,-0.050,186.111,111.111,352.778,780.556,52.778,f
1719,-0.235,0.880,-0.130,47.222,86.111,158.333,794.444,13.889,f
1720,-0.120,1.270,-0.305,138.889,75.000,94.444,775.000,19.444,N
1721,0.535,2.030,-0.565,58.333,116.667,119.444,558.333,216.667,V
1722,0.045,1.375,1.200,66.667,69.444,88.889,919.444,361.111,f
1723,0.605,1.980,-0.535,58.333,116.667,405.556,697.222,222.222,V
1724,0.020,1.230,0.565,88.889,97.222,108.333,872.222,175.000,f
1725,0.465,1.875,-0.570,58.333,116.667,405.556,611.111,261.111,V
1726,-0.090,1.850,0.200,83.333,116.667,116.667,836.111,225.000,f
1727,0.020,1.320,0.625,102.778,102.778,102.778,819.444,16.667,f
1728,-0.140,1.690,0.320,86.111,80.556,94.444,833.333,13.889,f
1729,-0.095,1.675,0.175,175.000,80.556,91.667,838.889,5.556,f
1730,-0.130,0.380,0.845,186.111,116.667,388.889,877.778,38.889,/
1731,-0.355,0.235,0.720,152.778,116.667,369.444,866.667,11.111,/
1732,-0.435,0.170,0.715,158.333,113.889,366.667,836.111,30.556,/
1733,-0.410,0.155,0.655,147.222,116.667,380.556,825.000,11.111,/
1734,-0.420,0.100,0.670,61.111,105.556,369.444,800.000,25.000,/
1735,-0.480,0.010,0.685,86.111,116.667,358.333,819.444,19.444,/
1736,-0.450,0.145,0.640,58.333,108.333,386.111,827.778,8.333,/
1737,-0.420,0.080,0.650,63.889,113.889,391.667,902.778,75.000,/
1738,-0.425,0.110,0.780,138.889,116.667,388.889,855.556,47.222,/
1739,-0.335,0.200,0.780,63.889,116.667,372.222,847.222,8.333,/
1740,-0.380,0.080,0.735,191.667,108.333,361.111,808.333,38.889,/
1741,-0.370,0.065,0.670,116.667,113.889,355.556,794.444,13.889,/
1742,-0.500,0.020,0.755,61.111,113.889,383.333,802.778,8.333,/
1743,-0.395,0.160,0.740,100.000,116.667,405.556,844.444,41.667,/
1744,-0.395,0.160,0.760,63.889,113.889,388.889,897.222,52.778,/
1745,-0.480,0.130,0.645,105.556,113.889,380.556,875.000,22.222,/
1746,-0.355,1.005,0.530,138.889,80.556,94.444,816.667,58.333,f
1747,-0.175,0.810,-0.015,175.000,102.778,344.444,836.111,19.444,f
1748,-0.110,0.385,0.970,86.111,113.889,372.222,827.778,8.333,/
1749,-0.280,0.275,0.830,66.667,116.667,358.333,813.889,13.889,/
1750,-0.315,0.225,0.770,55.556,108.333,375.000,808.333,5.556,/
1751,-0.310,0.230,0.925,63.889,116.667,394.444,872.222,63.889,/
1752,-0.235,0.380,0.905,69.444,116.667,388.889,858.333,13.889,/
1753,-0.250,0.270,0.845,188.889,111.111,380.556,852.778,5.556,/
1754,-0.260,0.330,0.880,66.667,116.667,361.111,841.667,11.111,/
1755,-0.250,0.330,0.935,58.333,111.111,355.556,794.444,47.222,/
1756,-0.290,0.350,0.900,83.333,113.889,369.444,788.889,5.556,/
1757,-0.155,0.320,1.125,75.000,113.889,397.222,841.667,52.778,/
1758,-0.160,0.390,0.990,125.000,116.667,402.778,897.222,55.556,/
1759,-0.360,0.220,0.850,144.444,111.111,375.000,905.556,8.333,/
1760,-0.425,0.280,0.830,63.889,116.667,394.444,836.111,69.444,/
1761,-0.440,0.260,0.805,100.000,113.889,388.889,819.444,16.667,/
1762,-0.405,0.290,0.865,191.667,105.556,358.333,805.556,13.889,/
1763,-0.365,0.345,0.900,105.556,108.333,372.222,819.444,13.889,/
1764,-0.390,0.260,0.840,122.222,111.111,380.556,850.000,30.556,/
1765,-0.340,0.300,0.870,61.111,116.667,400.000,872.222,22.222,/
1766,-0.350,0.285,0.895,61.111,116.667,377.778,886.111,13.889,/
1767,-0.370,0.295,0.905,63.889,113.889,388.889,847.222,38.889,/
1768,-0.255,0.210,0.885,69.444,113.889,369.444,858.333,11.111,/
1769,-0.305,0.210,0.920,52.778,108.333,363.889,802.778,55.556,/
1770,-0.340,0.105,0.920,72.222,113.889,369.444,797.222,5.556,/
1771,-0.350,0.335,0.930,63.889,116.667,391.667,827.778,30.556,/
1772,-0.335,0.130,0.850,55.556,111.111,383.333,872.222,44.444,/
1773,-0.380,0.185,0.885,61.111,116.667,394.444,908.333,36.111,/
1774,-0.385,0.195,0.945,72.222,108.333,377.778,875.000,33.333,/
1775,0.240,1.955,-0.880,58.333,116.667,127.778,708.333,166.667,V
1776,-0.095,0.475,1.125,111.111,105.556,358.333,847.222,138.889,/
1777,0.435,2.220,-0.625,58.333,116.667,116.667,702.778,144.444,V
1778,0.105,0.690,1.385,58.333,116.667,405.556,905.556,202.778,/
1779,-0.045,0.510,0.965,127.778,116.667,405.556,908.333,2.778,/
1780,-0.200,0.375,1.115,161.111,116.667,380.556,1000.000,91.667,/
1781,-0.215,0.335,1.130,102.778,108.333,363.889,844.444,155.556,/
1782,-0.185,0.360,1.140,83.333,113.889,366.667,847.222,2.778,/
1783,0.425,2.065,-0.620,58.333,116.667,405.556,591.667,255.556,V
1784,-0.020,0.500,1.130,55.556,108.333,388.889,847.222,255.556,/
1785,-0.155,0.305,1.095,197.222,113.889,372.222,855.556,8.333,/
1786,-0.250,0.330,1.020,88.889,113.889,386.111,858.333,2.778,/
1787,-0.290,0.150,0.960,58.333,111.111,391.667,869.444,11.111,/
1788,-0.290,0.215,1.035,61.111,113.889,391.667,886.111,16.667,/
1789,0.390,1.905,-0.750,58.333,116.667,116.667,669.444,216.667,V
1790,-0.080,0.370,1.085,52.778,105.556,344.444,875.000,205.556,/
1791,-0.135,0.335,1.095,194.444,113.889,369.444,777.778,97.222,/
1792,-0.255,0.255,1.060,83.333,116.667,386.111,819.444,41.667,/
1793,-0.255,0.245,0.970,86.111,116.667,391.667,830.556,11.111,/
1794,0.415,2.100,-0.775,58.333,116.667,116.667,716.667,113.889,V
1795,-0.030,0.440,1.215,77.778,113.889,375.000,977.778,261.111,/
1796,-0.090,0.395,1.225,58.333,113.889,375.000,833.333,144.444,/
1797,-0.145,0.370,1.130,63.889,116.667,375.000,819.444,13.889,/
1798,-0.075,0.330,1.200,63.889,105.556,361.111,813.889,5.556,/
1799,-0.070,0.270,1.220,58.333,108.333,366.667,827.778,13.889,/
1800,0.675,2.140,-0.530,58.333,116.667,116.667,616.667,211.111,V
1801,0.135,0.600,1.290,58.333,116.667,386.111,916.667,300.000,/
1802,0.020,0.480,1.240,66.667,113.889,377.778,877.778,38.889,/
1803,-0.100,0.340,1.125,94.444,111.111,361.111,861.111,16.667,/
1804,-0.125,0.385,1.130,55.556,108.333,358.333,844.444,16.667,/
1805,0.460,2.210,-0.565,58.333,116.667,402.778,586.111,258.333,V
1806,0.095,0.595,1.245,58.333,111.111,391.667,852.778,266.667,/
1807,-0.090,0.440,1.190,197.222,113.889,361.111,833.333,19.444,/
1808,-0.105,0.305,1.065,61.111,108.333,375.000,813.889,19.444,/
1809,-0.220,0.325,0.975,58.333,116.667,405.556,913.889,100.000,/
1810,-0.180,0.350,1.135,111.111,113.889,377.778,888.889,25.000,/
1811,0.595,2.155,-0.585,58.333,116.667,405.556,666.667,222.222,V
1812,0.100,0.615,1.335,75.000,105.556,361.111,877.778,211.111,/
1813,0.090,0.565,1.270,163.889,111.111,355.556,791.667,86.111,/
1814,-0.175,0.370,1.125,58.333,111.111,391.667,794.444,2.778,/
1815,-0.220,0.380,0.940,102.778,116.667,405.556,858.333,63.889,/
1816,0.425,1.955,-0.855,58.333,116.667,116.667,683.333,175.000,V
1817,-0.145,0.280,1.080,61.111,113.889,377.778,944.444,261.111,/
1818,-0.245,0.300,1.090,122.222,116.667,369.444,844.444,100.000,/
1819,-0.235,0.245,0.985,58.333,116.667,380.556,833.333,11.111,/
1820,-0.280,0.255,1.025,69.444,113.889,366.667,813.889,19.444,/
1821,-0.205,0.295,1.075,72.222,105.556,358.333,819.444,5.556,/
1822,0.360,1.945,-0.780,58.333,116.667,116.667,630.556,188.889,V
1823,-0.085,1.170,0.125,58.333,105.556,377.778,872.222,241.667,f
1824,-0.090,0.465,1.165,100.000,116.667,388.889,927.778,55.556,/
1825,-0.225,0.440,1.035,61.111,113.889,375.000,861.111,66.667,/
1826,-0.330,0.410,1.000,94.444,111.111,375.000,844.444,16.667,/
1827,-0.270,0.385,0.985,58.333,108.333,358.333,816.667,27.778,/
1828,-0.315,0.315,0.910,161.111,113.889,361.111,786.111,30.556,/
1829,-0.390,0.435,0.930,130.556,116.667,394.444,819.444,33.333,/
1830,-0.390,0.450,0.875,55.556,111.111,397.222,894.444,75.000,/
1831,-0.370,0.395,0.875,63.889,116.667,405.556,908.333,13.889,/
1832,-0.335,0.340,0.925,186.111,111.111,380.556,858.333,50.000,/
1833,0.155,1.780,-0.865,58.333,116.667,116.667,700.000,158.333,V
1834,-0.180,0.510,1.010,55.556,100.000,341.667,861.111,161.111,/
1835,-0.280,0.405,0.990,183.333,116.667,375.000,797.222,63.889,/
1836,-0.335,0.305,0.965,113.889,111.111,388.889,844.444,47.222,/
1837,-0.285,0.345,1.010,58.333,113.889,400.000,861.111,16.667,/
1838,-0.395,0.320,0.785,183.333,113.889,402.778,894.444,33.333,/
1839,0.190,1.860,-0.935,58.333,116.667,116.667,700.000,194.444,V
1840,-0.240,0.525,1.065,50.000,105.556,377.778,902.778,202.778,/
1841,-0.305,0.465,0.985,63.889,108.333,369.444,827.778,75.000,/
1842,-0.310,0.415,1.020,77.778,111.111,358.333,813.889,13.889,/
1843,-0.255,0.505,1.040,102.778,113.889,372.222,805.556,8.333,/
1844,-0.335,0.565,1.055,66.667,116.667,405.556,850.000,44.444,/
1845,0.525,2.060,-0.680,58.333,116.667,116.667,694.444,155.556,V
1846,-0.005,0.855,1.180,58.333,116.667,405.556,958.333,263.889,/
1847,-0.095,0.650,1.160,155.556,113.889,383.333,869.444,88.889,/
1848,-0.150,0.680,1.140,166.667,116.667,369.444,827.778,41.667,/
1849,-0.240,0.460,0.935,152.778,116.667,355.556,786.111,41.667,/
1850,0.445,1.995,-0.835,58.333,116.667,116.667,622.222,163.889,V
1851,-0.160,0.575,1.105,52.778,108.333,375.000,913.889,291.667,/
1852,-0.220,0.665,0.995,191.667,116.667,405.556,866.667,47.222,/
1853,-0.230,0.585,1.050,72.222,108.333,391.667,900.000,33.333,/
1854,-0.245,0.560,0.990,77.778,113.889,394.444,852.778,47.222,/
1855,-0.340,0.425,1.045,58.333,111.111,375.000,833.333,19.444,/
1856,0.285,2.075,-0.750,58.333,116.667,116.667,691.667,141.667,V
1857,-0.030,0.745,1.215,52.778,108.333,388.889,858.333,166.667,/
1858,-0.100,0.685,1.200,194.444,111.111,386.111,819.444,38.889,/
1859,-0.125,0.715,1.120,58.333,111.111,377.778,847.222,27.778,/
1860,-0.250,0.490,0.915,169.444,116.667,402.778,861.111,13.889,/
1861,-0.385,0.375,0.920,83.333,113.889,391.667,877.778,16.667,/
1862,0.320,1.850,-0.865,58.333,116.667,116.667,686.111,191.667,V
1863,-0.170,0.455,0.990,69.444,111.111,355.556,869.444,183.333,/
1864,-0.230,0.405,1.000,66.667,113.889,358.333,780.556,88.889,/
1865,-0.300,0.325,1.005,61.111,116.667,372.222,816.667,36.111,/
1866,-0.300,0.300,0.970,58.333,116.667,405.556,819.444,2.778,/
1867,-0.285,0.395,0.955,102.778,116.667,405.556,880.556,61.111,/
1868,0.405,2.035,-0.755,58.333,116.667,116.667,716.667,163.889,V
1869,-0.025,0.580,1.165,63.889,113.889,380.556,894.444,177.778,/
1870,-0.125,0.440,1.140,61.111,113.889,363.889,816.667,77.778,/
1871,-0.220,0.395,1.000,58.333,108.333,361.111,811.111,5.556,/
1872,-0.285,0.315,1.005,177.778,105.556,363.889,836.111,25.000,/
1873,-0.310,0.290,0.960,66.667,116.667,391.667,822.222,13.889,/
1874,0.410,2.025,-0.745,58.333,113.889,113.889,658.333,163.889,V
1875,-0.060,0.540,1.160,58.333,113.889,402.778,913.889,255.556,/
1876,-0.145,0.405,1.185,58.333,113.889,369.444,850.000,63.889,/
1877,-0.220,0.335,1.010,66.667,116.667,369.444,847.222,2.778,/
1878,-0.260,0.375,0.985,63.889,111.111,372.222,811.111,36.111,/
1879,-0.245,0.345,1.005,58.333,108.333,363.889,794.444,16.667,/
1880,0.435,1.865,-0.705,58.333,116.667,405.556,658.333,136.111,V
1881,-0.055,0.595,1.225,58.333,113.889,388.889,866.667,208.333,/
1882,-0.075,0.560,1.110,83.333,116.667,405.556,886.111,19.444,/
1883,-0.130,0.410,1.060,58.333,111.111,383.333,891.667,5.556,/
1884,-0.235,0.265,0.990,191.667,108.333,358.333,850.000,41.667,/
1885,-0.295,0.200,0.880,66.667,113.889,372.222,808.333,41.667,/
