id,Pamp,Ramp,Tamp,PR,QRS,QT,RRI,dRRI,label
1,0.070,2.010,0.560,113.889,44.444,308.333,1005.556,0.000,N
2,-0.060,1.940,0.520,116.667,47.222,313.889,1058.333,52.778,N
3,-0.050,1.935,0.595,119.444,47.222,311.111,1022.222,36.111,N
4,0.215,2.075,0.710,119.444,44.444,300.000,1038.889,16.667,N
5,0.075,1.845,0.410,113.889,47.222,291.667,963.889,75.000,N
6,-0.080,1.915,0.480,113.889,44.444,297.222,877.778,86.111,N
7,-0.095,1.870,0.490,111.111,47.222,308.333,936.111,58.333,N
8,-0.310,1.930,0.325,113.889,50.000,316.667,1000.000,63.889,N
9,-0.035,2.050,0.595,116.667,47.222,308.333,972.222,27.778,N
10,0.105,2.055,0.485,105.556,47.222,302.778,919.444,52.778,N
11,-0.085,2.045,0.295,100.000,41.667,286.111,930.556,11.111,N
12,0.050,2.100,0.535,105.556,47.222,297.222,855.556,75.000,N
13,0.005,2.155,0.300,100.000,44.444,291.667,841.667,13.889,N
14,0.050,2.115,0.310,113.889,44.444,311.111,847.222,5.556,N
15,0.060,2.055,0.205,100.000,47.222,313.889,863.889,16.667,N
16,-0.035,1.925,0.265,105.556,52.778,325.000,827.778,36.111,N
17,0.070,1.900,0.185,108.333,50.000,311.111,791.667,36.111,N
18,0.045,1.965,0.155,108.333,47.222,297.222,800.000,8.333,N
19,0.105,2.155,0.240,102.778,44.444,286.111,808.333,8.333,N
20,0.175,2.200,0.230,94.444,44.444,277.778,775.000,33.333,N
21,0.110,2.115,0.055,111.111,44.444,294.444,783.333,8.333,N
22,0.080,2.040,0.035,105.556,50.000,288.889,794.444,11.111,N
23,0.065,2.035,0.055,102.778,50.000,322.222,811.111,16.667,N
24,0.045,1.990,-0.075,100.000,47.222,302.778,786.111,25.000,N
25,-0.040,1.920,-0.090,97.222,44.444,280.556,741.667,44.444,N
26,-0.025,1.860,0.020,94.444,44.444,280.556,683.333,58.333,N
27,0.045,2.020,-0.005,108.333,41.667,277.778,683.333,0.000,N
28,0.010,2.015,-0.065,113.889,44.444,280.556,700.000,16.667,N
29,-0.030,1.915,0.110,94.444,47.222,300.000,747.222,47.222,N
30,-0.125,1.950,0.080,113.889,47.222,300.000,769.444,22.222,N
31,0.025,1.995,0.105,119.444,47.222,288.889,744.444,25.000,N
32,-0.030,1.915,0.195,111.111,52.778,300.000,838.889,94.444,N
33,0.025,1.815,0.235,105.556,50.000,302.778,997.222,158.333,N
34,0.020,1.705,0.220,108.333,47.222,294.444,955.556,41.667,N
35,0.085,1.595,0.250,105.556,116.667,330.556,963.889,8.333,N
36,0.050,1.390,0.190,105.556,102.778,325.000,977.778,13.889,N
37,-0.030,1.165,0.070,113.889,108.333,341.667,1005.556,27.778,N
38,-0.180,1.155,0.240,105.556,105.556,327.778,977.778,27.778,N
39,-0.005,1.215,0.080,105.556,102.778,311.111,883.333,94.444,N
40,-0.050,1.085,0.075,97.222,113.889,311.111,827.778,55.556,N
41,0.010,1.085,0.060,100.000,116.667,322.222,836.111,8.333,N
42,0.030,0.980,0.055,94.444,100.000,322.222,858.333,22.222,N
43,0.035,1.020,0.115,111.111,113.889,341.667,936.111,77.778,N
44,0.035,0.980,0.130,105.556,116.667,338.889,941.667,5.556,N
45,0.005,0.920,0.170,100.000,113.889,341.667,911.111,30.556,N
46,0.050,0.945,0.150,100.000,113.889,327.778,916.667,5.556,N
47,0.050,0.985,0.125,105.556,111.111,319.444,941.667,25.000,N
48,-0.085,0.920,0.135,108.333,116.667,325.000,958.333,16.667,N
49,-0.050,0.890,0.095,111.111,113.889,325.000,1000.000,41.667,N
50,-0.215,0.865,0.215,108.333,102.778,330.556,1091.667,91.667,N
51,-0.050,0.865,0.015,111.111,111.111,325.000,988.889,102.778,N
52,-0.065,0.890,0.035,108.333,105.556,330.556,963.889,25.000,N
53,-0.010,0.930,0.045,111.111,113.889,313.889,902.778,61.111,N
54,-0.015,0.855,-0.025,97.222,113.889,325.000,852.778,50.000,N
55,-0.045,0.860,-0.025,94.444,111.111,341.667,863.889,11.111,N
56,0.100,1.070,0.090,100.000,116.667,344.444,888.889,25.000,N
57,0.100,1.145,0.065,113.889,111.111,322.222,863.889,25.000,N
58,0.130,1.075,0.130,108.333,102.778,325.000,844.444,19.444,N
59,0.210,1.000,0.075,111.111,113.889,327.778,805.556,38.889,N
60,0.115,1.000,0.080,102.778,100.000,294.444,741.667,63.889,N
61,0.060,0.985,0.030,105.556,100.000,308.333,750.000,8.333,N
62,0.090,1.065,0.060,108.333,111.111,325.000,788.889,38.889,N
63,0.030,1.125,0.220,102.778,102.778,325.000,830.556,41.667,N
64,0.060,1.070,0.080,102.778,83.333,308.333,863.889,33.333,N
65,0.025,1.025,0.095,108.333,83.333,322.222,936.111,72.222,N
66,0.110,1.185,0.085,105.556,102.778,311.111,1030.556,94.444,N
67,0.015,1.130,0.055,105.556,102.778,305.556,988.889,41.667,N
68,-0.100,1.130,0.155,108.333,100.000,311.111,902.778,86.111,N
69,-0.050,1.110,0.115,105.556,102.778,313.889,908.333,5.556,N
70,0.050,1.195,0.100,105.556,116.667,333.333,966.667,58.333,N
71,-0.165,1.100,0.045,119.444,100.000,336.111,986.111,19.444,N
72,-0.065,1.185,0.140,102.778,105.556,327.778,913.889,72.222,N
73,-0.010,1.275,0.135,97.222,108.333,311.111,872.222,41.667,N
74,0.005,1.275,0.130,100.000,100.000,322.222,891.667,19.444,N
75,-0.040,1.350,0.160,94.444,111.111,311.111,908.333,16.667,N
76,0.010,1.355,0.205,102.778,116.667,338.889,911.111,2.778,N
77,0.020,1.365,0.180,116.667,113.889,338.889,997.222,86.111,N
78,0.050,1.480,0.170,113.889,113.889,325.000,1030.556,33.333,N
79,0.000,1.445,0.255,113.889,111.111,322.222,1016.667,13.889,N
80,0.055,1.570,0.235,111.111,111.111,308.333,980.556,36.111,N
81,-0.045,1.635,0.320,105.556,66.667,311.111,975.000,5.556,N
82,0.065,1.745,0.270,113.889,50.000,300.000,925.000,50.000,N
83,0.095,1.755,0.225,116.667,50.000,322.222,941.667,16.667,N
84,0.105,1.895,0.215,108.333,47.222,300.000,975.000,33.333,N
85,0.080,1.870,0.190,102.778,44.444,286.111,941.667,33.333,N
86,-0.005,1.930,0.225,91.667,47.222,286.111,836.111,105.556,N
87,0.025,1.915,0.200,102.778,44.444,286.111,844.444,8.333,N
88,0.050,1.815,0.120,91.667,47.222,338.889,841.667,2.778,N
89,0.000,1.915,0.170,130.556,47.222,311.111,844.444,2.778,N
90,-0.020,1.650,0.090,102.778,52.778,291.667,866.667,22.222,N
91,-0.015,1.590,0.050,100.000,86.111,297.222,861.111,5.556,N
92,-0.165,1.520,0.260,100.000,66.667,319.444,822.222,38.889,N
93,-0.090,1.785,0.235,111.111,50.000,302.778,805.556,16.667,N
94,0.075,2.015,0.385,97.222,47.222,286.111,750.000,55.556,N
95,0.100,1.985,0.325,116.667,44.444,288.889,755.556,5.556,N
96,0.100,1.870,0.445,116.667,50.000,305.556,733.333,22.222,N
97,-0.035,1.915,0.370,111.111,61.111,319.444,800.000,66.667,N
98,-0.095,1.920,0.410,119.444,47.222,319.444,894.444,94.444,N
99,-0.075,1.925,0.470,94.444,44.444,300.000,919.444,25.000,N
100,-0.155,1.180,0.830,197.222,86.111,341.667,555.556,363.889,V
101,0.705,1.340,-0.255,194.444,116.667,380.556,494.444,61.111,V
102,0.140,2.030,0.655,102.778,44.444,286.111,1197.222,702.778,N
103,0.460,1.135,0.790,197.222,83.333,322.222,491.667,705.556,V
104,0.790,1.400,-0.155,197.222,116.667,394.444,463.889,27.778,V
105,0.205,2.010,0.475,94.444,44.444,330.556,1347.222,883.333,N
106,-0.010,1.925,0.370,113.889,44.444,294.444,1002.778,344.444,N
107,-0.110,0.795,0.745,197.222,88.889,330.556,533.333,469.444,V
108,-0.015,1.945,0.455,97.222,47.222,288.889,1172.222,638.889,N
109,-0.045,0.905,0.825,197.222,77.778,316.667,522.222,650.000,V
110,0.825,1.390,-0.265,197.222,116.667,377.778,472.222,50.000,V
111,0.090,1.880,0.420,102.778,47.222,308.333,1286.111,813.889,N
112,0.185,0.710,0.720,197.222,80.556,338.889,525.000,761.111,V
113,0.030,1.510,0.505,105.556,52.778,327.778,1297.222,772.222,N
114,0.200,0.830,0.555,194.444,113.889,338.889,538.889,758.333,V
115,0.555,1.190,-0.100,194.444,116.667,386.111,477.778,61.111,V
116,0.155,1.365,0.415,91.667,77.778,325.000,1272.222,794.444,N
117,0.040,1.350,0.340,100.000,72.222,319.444,922.222,350.000,N
118,0.175,0.635,0.710,197.222,91.667,344.444,497.222,425.000,V
119,0.680,1.080,-0.250,197.222,113.889,391.667,486.111,11.111,V
120,0.110,1.775,0.585,105.556,47.222,338.889,1355.556,869.444,N
121,0.585,0.910,0.790,197.222,91.667,338.889,511.111,844.444,V
122,0.725,1.175,-0.320,197.222,116.667,405.556,497.222,13.889,V
123,0.250,1.830,0.325,94.444,44.444,297.222,1311.111,813.889,N
124,0.035,1.650,0.275,108.333,44.444,297.222,869.444,441.667,N
125,-0.010,0.620,0.790,197.222,91.667,338.889,505.556,363.889,V
126,0.790,1.140,-0.400,191.667,116.667,402.778,472.222,33.333,V
127,0.290,1.495,0.410,97.222,63.889,330.556,1275.000,802.778,N
128,-0.010,1.320,0.345,113.889,77.778,341.667,886.111,388.889,N
129,0.010,0.470,0.785,197.222,91.667,336.111,525.000,361.111,V
130,0.775,1.240,-0.365,197.222,116.667,386.111,480.556,44.444,V
131,0.100,1.730,0.370,97.222,47.222,297.222,1227.778,747.222,N
132,0.370,0.505,0.420,188.889,88.889,322.222,461.111,766.667,V
133,0.080,1.865,0.490,100.000,47.222,322.222,1211.111,750.000,N
134,0.285,0.925,0.800,197.222,91.667,352.778,516.667,694.444,V
135,0.800,1.490,-0.155,186.111,116.667,405.556,480.556,36.111,V
136,0.120,1.710,0.465,116.667,47.222,333.333,1325.000,844.444,N
137,0.395,0.815,0.835,188.889,94.444,322.222,513.889,811.111,V
138,0.070,1.440,0.285,105.556,72.222,311.111,1238.889,725.000,N
139,0.075,0.355,0.590,197.222,91.667,322.222,494.444,744.444,V
140,-0.120,1.320,0.340,97.222,100.000,319.444,1175.000,680.556,N
141,0.085,0.715,0.350,197.222,111.111,344.444,513.889,661.111,V
142,0.350,1.165,-0.230,191.667,116.667,361.111,486.111,27.778,V
143,-0.040,1.540,0.295,105.556,52.778,311.111,1341.667,855.556,N
144,0.260,-0.960,0.835,33.333,2.778,250.000,547.222,794.444,V
145,0.030,1.785,0.560,108.333,44.444,297.222,1191.667,644.444,N
146,0.365,0.710,0.915,197.222,80.556,319.444,500.000,691.667,V
147,0.915,1.455,-0.170,194.444,116.667,400.000,463.889,36.111,V
148,0.195,1.525,0.390,97.222,52.778,311.111,1261.111,797.222,N
149,0.390,0.670,0.485,197.222,91.667,319.444,497.222,763.889,V
150,0.085,1.395,0.505,100.000,77.778,352.778,1269.444,772.222,N
151,0.290,0.630,0.730,197.222,83.333,325.000,536.111,733.333,V
152,0.715,1.100,-0.155,188.889,116.667,369.444,483.333,52.778,V
153,-0.085,1.340,0.175,91.667,50.000,302.778,1236.111,752.778,N
154,0.605,-1.455,0.430,30.556,2.778,222.222,522.222,713.889,V
155,0.360,1.140,-0.300,194.444,116.667,383.333,430.556,91.667,V
156,0.095,1.610,0.335,102.778,47.222,305.556,1225.000,794.444,N
157,0.260,0.560,0.855,197.222,86.111,338.889,505.556,719.444,V
158,0.740,1.140,-0.325,197.222,116.667,405.556,508.333,2.778,V
159,-0.070,1.365,0.245,97.222,55.556,319.444,1280.556,772.222,N
160,0.145,0.730,0.275,197.222,88.889,319.444,519.444,761.111,V
161,-0.130,1.350,0.230,86.111,47.222,294.444,1116.667,597.222,N
162,-0.045,0.510,0.720,191.667,83.333,313.889,508.333,608.333,V
163,0.720,1.275,-0.285,197.222,116.667,391.667,461.111,47.222,V
164,0.140,1.685,0.395,97.222,47.222,308.333,1219.444,758.333,N
165,0.260,0.600,0.700,194.444,86.111,325.000,522.222,697.222,V
166,-0.065,1.410,0.300,97.222,44.444,300.000,1250.000,727.778,N
167,0.150,0.420,0.670,197.222,88.889,327.778,519.444,730.556,V
168,0.635,1.100,-0.330,197.222,116.667,383.333,483.333,36.111,V
169,0.040,1.235,0.285,91.667,97.222,308.333,1250.000,766.667,N
170,0.240,0.515,0.850,197.222,86.111,322.222,486.111,763.889,V
171,0.070,1.020,0.170,100.000,83.333,308.333,1219.444,733.333,N
172,-0.030,0.870,0.170,125.000,100.000,341.667,841.667,377.778,N
173,-0.140,0.845,0.240,108.333,108.333,336.111,819.444,22.222,N
174,-0.165,0.215,0.675,197.222,94.444,338.889,558.333,261.111,V
175,0.615,1.290,-0.475,197.222,116.667,116.667,497.222,61.111,V
176,-0.110,0.970,0.330,86.111,116.667,338.889,1286.111,788.889,N
177,0.330,0.900,-0.060,197.222,86.111,308.333,477.778,808.333,V
178,0.095,1.020,-0.185,58.333,116.667,391.667,486.111,8.333,V
179,0.040,1.060,0.495,125.000,97.222,352.778,1377.778,891.667,N
180,0.425,1.285,-0.095,197.222,116.667,116.667,522.222,855.556,V
181,0.010,0.795,0.050,97.222,116.667,327.778,1333.333,811.111,N
182,-0.155,0.690,0.095,108.333,100.000,322.222,891.667,441.667,N
183,0.035,0.850,0.225,108.333,102.778,308.333,816.667,75.000,N
184,-0.040,0.700,0.145,113.889,111.111,322.222,922.222,105.556,N
185,-0.295,0.660,0.200,102.778,105.556,311.111,891.667,30.556,N
186,-0.095,0.075,0.535,197.222,102.778,344.444,525.000,366.667,V
187,0.320,1.070,-0.545,197.222,116.667,116.667,530.556,5.556,V
188,-0.135,0.745,0.320,83.333,113.889,341.667,1305.556,775.000,N
189,0.175,1.010,-0.200,197.222,113.889,383.333,525.000,780.556,V
190,0.090,0.955,0.440,97.222,111.111,322.222,1272.222,747.222,N
191,0.320,0.490,0.550,197.222,111.111,319.444,494.444,777.778,V
192,0.550,1.055,-0.135,188.889,116.667,400.000,450.000,44.444,V
193,0.085,0.880,0.360,100.000,116.667,338.889,1213.889,763.889,N
194,0.225,1.120,-0.305,197.222,116.667,391.667,513.889,700.000,V
195,0.055,0.890,0.340,111.111,111.111,341.667,1327.778,813.889,N
196,0.345,1.245,-0.335,58.333,116.667,397.222,566.667,761.111,V
197,0.060,0.865,0.410,100.000,116.667,327.778,1238.889,672.222,N
198,0.385,1.245,-0.325,58.333,111.111,113.889,541.667,697.222,V
199,0.075,0.875,0.320,94.444,111.111,325.000,1255.556,713.889,N
200,-0.090,0.755,0.245,108.333,105.556,327.778,1027.778,227.778,N
201,-0.160,0.745,0.205,116.667,100.000,325.000,1080.556,52.778,N
202,-0.245,0.625,0.200,102.778,116.667,325.000,930.556,150.000,N
203,-0.130,0.610,0.310,100.000,116.667,325.000,847.222,83.333,N
204,-0.170,0.755,0.340,108.333,113.889,325.000,1030.556,183.333,N
205,-0.055,0.455,0.410,197.222,102.778,325.000,533.333,497.222,V
206,0.405,1.085,-0.485,194.444,116.667,397.222,480.556,52.778,V
207,-0.330,0.285,0.475,58.333,113.889,325.000,475.000,5.556,V
208,-0.135,0.780,0.140,66.667,116.667,361.111,1480.556,1005.556,N
209,-0.030,1.160,-0.500,197.222,116.667,405.556,550.000,930.556,V
210,0.010,0.910,0.345,97.222,102.778,327.778,1447.222,897.222,N
211,-0.055,0.870,0.385,105.556,100.000,325.000,1161.111,286.111,N
212,-0.075,0.885,0.375,113.889,116.667,325.000,1108.333,52.778,N
213,-0.125,0.925,0.355,125.000,102.778,341.667,1058.333,50.000,N
214,-0.070,1.030,0.425,119.444,113.889,350.000,1113.889,55.556,N
215,-0.025,1.045,0.490,111.111,83.333,305.556,1155.556,41.667,N
216,-0.005,1.195,0.500,105.556,102.778,327.778,1111.111,44.444,N
217,-0.030,1.210,0.545,108.333,100.000,325.000,1088.889,22.222,N
218,-0.050,1.165,0.400,113.889,50.000,305.556,1027.778,61.111,N
219,0.065,1.430,0.540,113.889,61.111,313.889,1125.000,97.222,N
220,0.055,1.370,0.620,94.444,66.667,330.556,1113.889,11.111,N
221,-0.010,1.455,0.470,111.111,52.778,308.333,1013.889,100.000,N
222,-0.030,1.515,0.465,105.556,66.667,311.111,913.889,100.000,N
223,-0.045,1.545,0.570,102.778,83.333,341.667,877.778,36.111,N
224,0.075,1.720,0.670,119.444,50.000,319.444,938.889,61.111,N
225,0.090,1.915,0.655,119.444,50.000,319.444,1055.556,116.667,N
226,0.090,1.965,0.615,113.889,47.222,313.889,1136.111,80.556,N
227,0.070,1.890,0.550,108.333,44.444,294.444,1133.333,2.778,N
228,0.070,1.875,0.615,108.333,47.222,297.222,1050.000,83.333,N
229,0.075,1.960,0.600,111.111,47.222,300.000,1016.667,33.333,N
230,0.155,1.985,0.590,116.667,50.000,325.000,1072.222,55.556,N
231,0.170,2.035,0.680,113.889,50.000,325.000,1086.111,13.889,N
232,0.185,2.075,0.640,119.444,50.000,316.667,1094.444,8.333,N
233,0.060,1.985,0.645,108.333,47.222,305.556,991.667,102.778,N
234,0.065,1.995,0.610,100.000,44.444,294.444,891.667,100.000,N
235,0.115,1.975,0.565,111.111,47.222,305.556,927.778,36.111,N
236,0.035,1.940,0.590,119.444,47.222,316.667,1100.000,172.222,N
237,0.075,1.980,0.670,116.667,47.222,325.000,1044.444,55.556,N
238,0.135,2.005,0.635,111.111,47.222,311.111,1091.667,47.222,N
239,0.115,1.965,0.600,105.556,44.444,291.667,1055.556,36.111,N
240,0.060,1.925,0.525,111.111,47.222,311.111,1063.889,8.333,N
241,0.065,1.980,0.585,113.889,44.444,313.889,983.333,80.556,N
242,0.085,1.955,0.600,113.889,47.222,313.889,1044.444,61.111,N
243,0.170,2.010,0.610,116.667,50.000,319.444,1030.556,13.889,N
244,0.045,1.880,0.510,111.111,44.444,302.778,1069.444,38.889,N
245,0.055,1.955,0.605,108.333,47.222,297.222,955.556,113.889,N
246,-0.015,1.895,0.425,105.556,44.444,302.778,988.889,33.333,N
247,-0.030,1.900,0.445,113.889,44.444,311.111,1125.000,136.111,N
248,0.210,1.950,0.490,119.444,47.222,333.333,1080.556,44.444,N
249,0.185,1.940,0.470,119.444,44.444,316.667,1063.889,16.667,N
250,-0.010,2.050,0.610,111.111,47.222,305.556,947.222,116.667,N
251,0.075,2.180,0.640,116.667,44.444,288.889,866.667,80.556,N
252,0.130,2.135,0.680,111.111,47.222,297.222,925.000,58.333,N
253,0.215,2.085,0.675,119.444,47.222,319.444,1030.556,105.556,N
254,0.175,2.015,0.615,122.222,50.000,316.667,1150.000,119.444,N
255,0.095,2.065,0.625,113.889,47.222,327.778,1136.111,13.889,N
256,0.170,2.075,0.690,111.111,44.444,308.333,1033.333,102.778,N
257,0.145,2.070,0.640,108.333,44.444,300.000,997.222,36.111,N
258,0.110,2.115,0.640,113.889,44.444,305.556,1008.333,11.111,N
259,0.115,2.060,0.665,108.333,47.222,319.444,988.889,19.444,N
260,0.105,2.050,0.630,119.444,47.222,322.222,1030.556,41.667,N
261,0.090,2.075,0.595,113.889,47.222,325.000,1113.889,83.333,N
262,0.030,2.055,0.650,111.111,47.222,308.333,1113.889,0.000,N
263,0.100,2.070,0.630,111.111,44.444,311.111,1047.222,66.667,N
264,0.085,2.085,0.630,111.111,47.222,316.667,1075.000,27.778,N
265,0.000,1.965,0.585,125.000,50.000,333.333,1141.667,66.667,N
266,0.060,1.985,0.650,116.667,47.222,322.222,1025.000,116.667,N
267,0.060,1.985,0.585,113.889,47.222,311.111,1041.667,16.667,N
268,0.025,1.900,0.480,108.333,44.444,305.556,1047.222,5.556,N
269,-0.045,1.920,0.575,108.333,44.444,308.333,1041.667,5.556,N
270,0.015,1.900,0.540,116.667,47.222,316.667,1058.333,16.667,N
271,0.070,1.925,0.500,116.667,50.000,330.556,1138.889,80.556,N
272,-0.045,1.865,0.435,113.889,47.222,333.333,1147.222,8.333,N
273,-0.085,1.865,0.380,113.889,47.222,308.333,1069.444,77.778,N
274,-0.165,1.795,0.510,105.556,47.222,302.778,927.778,141.667,N
275,0.015,2.000,0.565,108.333,44.444,302.778,866.667,61.111,N
276,0.000,2.000,0.480,116.667,47.222,319.444,875.000,8.333,N
277,-0.015,1.935,0.450,113.889,41.667,308.333,947.222,72.222,N
278,-0.100,1.935,0.425,116.667,47.222,325.000,1052.778,105.556,N
279,0.140,1.955,0.580,111.111,44.444,300.000,988.889,63.889,N
280,0.085,1.715,0.275,108.333,47.222,308.333,891.667,97.222,N
281,-0.025,1.765,0.090,111.111,44.444,294.444,830.556,61.111,N
282,-0.330,1.580,0.180,111.111,44.444,313.889,813.889,16.667,N
283,-0.200,1.815,0.305,122.222,47.222,319.444,830.556,16.667,N
284,-0.160,1.850,0.330,108.333,50.000,319.444,869.444,38.889,N
285,-0.005,2.040,0.570,113.889,80.556,355.556,991.667,122.222,N
286,0.085,1.850,0.235,105.556,47.222,305.556,1050.000,58.333,N
287,-0.145,1.835,0.310,105.556,44.444,300.000,888.889,161.111,N
288,-0.085,1.895,0.325,100.000,44.444,311.111,891.667,2.778,N
289,-0.035,1.775,0.205,111.111,47.222,330.556,947.222,55.556,N
290,-0.245,1.740,0.260,108.333,47.222,316.667,947.222,0.000,N
291,-0.105,1.920,0.365,113.889,47.222,327.778,902.778,44.444,N
292,-0.085,1.930,0.375,105.556,47.222,305.556,941.667,38.889,N
293,-0.005,1.940,0.440,102.778,47.222,302.778,933.333,8.333,N
294,-0.040,0.690,0.795,197.222,86.111,327.778,525.000,408.333,V
295,-0.115,1.615,0.165,91.667,69.444,341.667,1194.444,669.444,N
296,-0.120,1.560,0.360,97.222,80.556,361.111,908.333,286.111,N
297,0.090,1.585,0.505,111.111,55.556,338.889,961.111,52.778,N
298,-0.125,1.360,0.230,102.778,69.444,325.000,894.444,66.667,N
299,-0.165,1.390,0.300,111.111,47.222,302.778,805.556,88.889,N
300,-0.120,1.305,0.270,108.333,108.333,322.222,802.778,2.778,N
301,-0.210,1.315,0.220,113.889,86.111,311.111,855.556,52.778,N
302,-0.045,1.330,0.265,105.556,80.556,305.556,822.222,33.333,N
303,-0.135,1.140,0.275,119.444,105.556,338.889,850.000,27.778,N
304,-0.145,1.195,0.305,111.111,111.111,341.667,875.000,25.000,N
305,-0.080,1.215,0.380,116.667,113.889,341.667,936.111,61.111,N
306,-0.040,1.175,0.375,113.889,116.667,344.444,933.333,2.778,N
307,0.025,1.160,0.365,111.111,113.889,325.000,863.889,69.444,N
308,-0.060,1.035,0.235,108.333,111.111,322.222,900.000,36.111,N
309,-0.050,0.985,0.275,105.556,105.556,341.667,961.111,61.111,N
310,-0.005,0.975,0.295,108.333,105.556,344.444,1000.000,38.889,N
311,-0.005,1.120,0.320,116.667,116.667,355.556,1027.778,27.778,N
312,-0.050,1.045,0.260,111.111,113.889,338.889,1013.889,13.889,N
313,-0.015,1.025,0.340,108.333,105.556,325.000,961.111,52.778,N
314,-0.010,1.005,0.315,105.556,100.000,322.222,916.667,44.444,N
315,-0.005,1.080,0.355,100.000,116.667,344.444,972.222,55.556,N
316,-0.025,1.010,0.360,105.556,102.778,341.667,1088.889,116.667,N
317,-0.040,1.010,0.285,119.444,86.111,325.000,1016.667,72.222,N
318,-0.080,0.935,0.265,113.889,100.000,341.667,1038.889,22.222,N
319,-0.100,1.050,0.305,97.222,113.889,338.889,1022.222,16.667,N
320,-0.050,1.040,0.315,108.333,100.000,322.222,1025.000,2.778,N
321,-0.090,1.030,0.300,116.667,113.889,341.667,958.333,66.667,N
322,-0.055,1.100,0.315,122.222,86.111,325.000,1055.556,97.222,N
323,-0.055,1.100,0.290,116.667,83.333,311.111,1097.222,41.667,N
324,-0.020,1.165,0.330,116.667,86.111,311.111,1083.333,13.889,N
325,-0.050,1.165,0.315,111.111,111.111,333.333,952.778,130.556,N
326,-0.055,1.100,0.325,113.889,113.889,341.667,961.111,8.333,N
327,-0.015,1.270,0.325,125.000,113.889,358.333,1080.556,119.444,N
328,-0.005,1.280,0.460,116.667,113.889,355.556,1136.111,55.556,N
329,-0.040,1.260,0.375,113.889,113.889,341.667,1050.000,86.111,N
330,-0.020,1.305,0.395,113.889,83.333,297.222,1066.667,16.667,N
331,0.040,1.280,0.475,108.333,111.111,341.667,1063.889,2.778,N
332,0.010,1.295,0.380,102.778,83.333,308.333,1025.000,38.889,N
333,-0.075,1.205,0.305,119.444,83.333,325.000,1052.778,27.778,N
334,-0.055,1.185,0.305,122.222,88.889,325.000,1100.000,47.222,N
335,-0.005,1.305,0.355,122.222,91.667,322.222,1022.222,77.778,N
336,-0.055,1.275,0.330,113.889,83.333,311.111,986.111,36.111,N
337,-0.070,1.315,0.410,113.889,86.111,313.889,969.444,16.667,N
338,0.030,1.340,0.420,111.111,80.556,319.444,927.778,41.667,N
339,-0.105,1.305,0.410,119.444,88.889,330.556,1008.333,80.556,N
340,-0.100,1.310,0.315,122.222,88.889,338.889,1091.667,83.333,N
341,-0.130,1.340,0.380,122.222,88.889,322.222,1083.333,8.333,N
342,-0.135,1.390,0.325,105.556,83.333,305.556,941.667,141.667,N
343,-0.145,1.495,0.330,108.333,80.556,319.444,972.222,30.556,N
344,-0.070,1.625,0.375,108.333,77.778,319.444,1019.444,47.222,N
345,-0.070,1.745,0.565,119.444,86.111,325.000,1075.000,55.556,N
346,0.025,1.760,0.535,113.889,50.000,325.000,955.556,119.444,N
347,-0.065,1.835,0.390,105.556,47.222,305.556,930.556,25.000,N
348,-0.040,1.950,0.385,108.333,44.444,300.000,955.556,25.000,N
349,0.000,2.125,0.700,113.889,47.222,305.556,961.111,5.556,N
350,0.050,2.040,0.425,119.444,44.444,302.778,933.333,27.778,N
351,-0.075,2.085,0.405,122.222,47.222,330.556,991.667,58.333,N
352,-0.055,2.105,0.495,119.444,47.222,338.889,1141.667,150.000,N
353,-0.050,2.105,0.375,122.222,47.222,327.778,1047.222,94.444,N
354,-0.145,2.050,0.345,113.889,44.444,311.111,1027.778,19.444,N
355,-0.115,2.140,0.420,111.111,44.444,311.111,1036.111,8.333,N
356,-0.050,2.175,0.415,116.667,47.222,325.000,938.889,97.222,N
357,-0.075,2.175,0.365,122.222,50.000,336.111,1036.111,97.222,N
358,-0.080,2.175,0.350,119.444,47.222,325.000,1100.000,63.889,N
359,-0.070,2.250,0.505,113.889,47.222,311.111,1058.333,41.667,N
360,-0.035,2.245,0.430,111.111,44.444,319.444,958.333,100.000,N
361,-0.040,2.260,0.390,113.889,44.444,305.556,1013.889,55.556,N
362,0.040,2.285,0.520,105.556,47.222,322.222,1036.111,22.222,N
363,0.000,2.265,0.465,122.222,47.222,333.333,1055.556,19.444,N
364,0.015,2.250,0.480,122.222,47.222,330.556,1116.667,61.111,N
365,0.030,2.290,0.475,113.889,50.000,316.667,1102.778,13.889,N
366,0.130,2.310,0.555,113.889,44.444,305.556,1022.222,80.556,N
367,0.105,2.280,0.535,111.111,44.444,305.556,969.444,52.778,N
368,0.040,2.225,0.425,116.667,47.222,330.556,975.000,5.556,N
369,-0.005,2.245,0.545,119.444,50.000,322.222,944.444,30.556,N
370,0.010,2.210,0.435,119.444,47.222,322.222,911.111,33.333,N
371,0.010,2.290,0.510,111.111,47.222,313.889,961.111,50.000,N
372,0.030,2.325,0.535,111.111,44.444,305.556,1108.333,147.222,N
373,0.120,2.345,0.560,116.667,44.444,308.333,1013.889,94.444,N
374,0.195,2.355,0.645,119.444,50.000,322.222,1102.778,88.889,N
375,0.055,2.270,0.485,125.000,50.000,330.556,1075.000,27.778,N
376,0.030,2.255,0.500,122.222,50.000,333.333,1066.667,8.333,N
377,0.065,2.330,0.660,119.444,47.222,313.889,1033.333,33.333,N
378,0.090,2.270,0.490,105.556,44.444,302.778,911.111,122.222,N
379,0.005,2.215,0.450,105.556,44.444,319.444,933.333,22.222,N
380,0.060,2.250,0.595,113.889,50.000,325.000,1000.000,66.667,N
381,-0.005,2.240,0.445,113.889,50.000,336.111,988.889,11.111,N
382,0.045,2.240,0.525,119.444,47.222,330.556,1100.000,111.111,N
383,0.145,2.300,0.645,113.889,44.444,311.111,1086.111,13.889,N
384,0.090,2.275,0.520,111.111,44.444,305.556,986.111,100.000,N
385,0.060,2.240,0.575,116.667,47.222,325.000,1019.444,33.333,N
386,-0.020,2.175,0.425,119.444,50.000,327.778,1033.333,13.889,N
387,0.035,2.195,0.545,119.444,47.222,316.667,1108.333,75.000,N
388,-0.035,2.075,0.350,119.444,47.222,319.444,1030.556,77.778,N
389,-0.090,2.065,0.365,113.889,44.444,305.556,1013.889,16.667,N
390,-0.065,2.085,0.480,111.111,47.222,302.778,986.111,27.778,N
391,-0.070,1.995,0.365,111.111,47.222,300.000,922.222,63.889,N
392,-0.130,2.015,0.290,119.444,47.222,322.222,1005.556,83.333,N
393,-0.105,2.090,0.425,125.000,47.222,333.333,1108.333,102.778,N
394,-0.005,2.190,0.475,125.000,47.222,316.667,1055.556,52.778,N
395,0.000,2.220,0.540,113.889,47.222,300.000,1027.778,27.778,N
396,0.005,2.230,0.445,116.667,47.222,305.556,944.444,83.333,N
397,-0.045,2.140,0.450,119.444,47.222,313.889,988.889,44.444,N
398,-0.020,2.225,0.520,125.000,50.000,327.778,1075.000,86.111,N
399,-0.005,2.165,0.410,125.000,50.000,333.333,1027.778,47.222,N
400,-0.025,2.150,0.395,125.000,47.222,319.444,1033.333,5.556,N
401,0.020,2.240,0.525,113.889,44.444,308.333,1005.556,27.778,N
402,-0.060,2.110,0.380,113.889,47.222,311.111,930.556,75.000,N
403,-0.055,2.130,0.380,113.889,47.222,330.556,963.889,33.333,N
404,0.015,2.170,0.435,122.222,50.000,322.222,1013.889,50.000,N
405,-0.060,2.130,0.390,127.778,47.222,336.111,1005.556,8.333,N
406,0.010,2.190,0.485,119.444,50.000,322.222,1044.444,38.889,N
407,-0.045,2.140,0.450,116.667,47.222,313.889,1027.778,16.667,N
408,-0.070,2.090,0.335,111.111,47.222,308.333,927.778,100.000,N
409,-0.145,1.965,0.430,111.111,44.444,311.111,966.667,38.889,N
410,-0.065,2.050,0.425,119.444,50.000,341.667,975.000,8.333,N
411,0.070,1.850,0.600,122.222,50.000,336.111,952.778,22.222,N
412,-0.195,1.680,0.255,122.222,77.778,319.444,1002.778,50.000,N
413,-0.225,1.515,0.190,113.889,83.333,311.111,991.667,11.111,N
414,-0.205,1.435,0.265,113.889,86.111,308.333,986.111,5.556,N
415,-0.180,1.290,0.275,116.667,88.889,319.444,991.667,5.556,N
416,-0.135,1.290,0.260,119.444,116.667,358.333,958.333,33.333,N
417,-0.170,1.125,0.240,119.444,102.778,358.333,1005.556,47.222,N
418,-0.190,1.035,0.235,111.111,102.778,341.667,933.333,72.222,N
419,-0.120,1.050,0.245,116.667,102.778,341.667,966.667,33.333,N
420,-0.130,1.110,0.275,111.111,113.889,338.889,991.667,25.000,N
421,-0.185,0.970,0.255,111.111,116.667,341.667,1002.778,11.111,N
422,-0.110,0.925,0.325,113.889,116.667,358.333,930.556,72.222,N
423,-0.130,0.870,0.235,122.222,113.889,358.333,1005.556,75.000,N
424,-0.150,0.865,0.320,116.667,116.667,355.556,1047.222,41.667,N
425,-0.060,0.870,0.185,111.111,108.333,336.111,991.667,55.556,N
426,-0.230,0.785,0.105,111.111,116.667,325.000,908.333,83.333,N
427,0.050,0.970,0.445,97.222,116.667,344.444,863.889,44.444,N
428,-0.085,0.805,0.155,119.444,83.333,344.444,908.333,44.444,N
429,-0.185,0.750,0.195,111.111,111.111,358.333,888.889,19.444,N
430,-0.210,0.765,0.195,113.889,116.667,344.444,902.778,13.889,N
431,-0.200,0.740,0.115,122.222,105.556,341.667,858.333,44.444,N
432,-0.245,0.730,0.140,111.111,111.111,325.000,905.556,47.222,N
433,-0.215,0.785,0.185,111.111,102.778,327.778,1033.333,127.778,N
434,-0.205,0.850,0.215,111.111,113.889,341.667,1052.778,19.444,N
435,-0.170,0.860,0.200,119.444,102.778,341.667,1075.000,22.222,N
436,-0.110,0.870,0.230,119.444,113.889,358.333,1030.556,44.444,N
437,-0.195,0.885,0.200,122.222,86.111,322.222,1022.222,8.333,N
438,-0.180,0.940,0.345,116.667,83.333,305.556,963.889,58.333,N
439,-0.060,0.895,0.090,113.889,113.889,338.889,927.778,36.111,N
440,-0.260,0.800,0.115,116.667,116.667,341.667,886.111,41.667,N
441,-0.265,0.785,0.030,113.889,111.111,358.333,911.111,25.000,N
442,-0.250,0.890,0.105,116.667,116.667,372.222,1022.222,111.111,N
443,-0.135,1.050,0.205,119.444,86.111,325.000,1150.000,127.778,N
444,-0.165,1.010,0.315,105.556,100.000,327.778,1069.444,80.556,N
445,-0.140,1.050,0.200,113.889,100.000,341.667,958.333,111.111,N
446,-0.215,1.065,0.180,113.889,86.111,330.556,983.333,25.000,N
447,-0.230,1.055,0.150,119.444,80.556,336.111,1094.444,111.111,N
448,-0.235,1.090,0.165,119.444,86.111,330.556,1108.333,13.889,N
449,-0.175,1.175,0.275,111.111,86.111,325.000,1094.444,13.889,N
450,-0.185,1.265,0.255,111.111,80.556,305.556,997.222,97.222,N
451,-0.100,1.370,0.395,111.111,83.333,311.111,988.889,8.333,N
452,-0.080,1.375,0.320,113.889,83.333,322.222,1047.222,58.333,N
453,-0.010,1.540,0.385,119.444,83.333,344.444,1077.778,30.556,N
454,-0.030,1.675,0.360,116.667,80.556,322.222,1050.000,27.778,N
455,0.045,1.805,0.820,116.667,47.222,308.333,986.111,63.889,N
456,0.125,1.720,0.495,108.333,44.444,302.778,838.889,147.222,N
457,0.125,1.820,0.455,108.333,44.444,300.000,813.889,25.000,N
458,0.060,1.795,0.275,113.889,47.222,313.889,838.889,25.000,N
459,-0.005,1.925,0.345,111.111,50.000,333.333,897.222,58.333,N
460,0.060,1.950,0.265,122.222,50.000,330.556,872.222,25.000,N
461,0.095,1.890,0.370,119.444,44.444,302.778,872.222,0.000,N
462,0.075,1.895,0.195,105.556,47.222,316.667,852.778,19.444,N
463,-0.065,1.775,0.140,119.444,47.222,302.778,794.444,58.333,N
464,-0.070,1.855,-0.030,105.556,47.222,300.000,755.556,38.889,N
465,0.050,1.915,0.155,102.778,44.444,308.333,761.111,5.556,N
466,0.080,1.890,-0.025,102.778,44.444,305.556,775.000,13.889,N
467,-0.050,1.905,-0.085,111.111,50.000,313.889,800.000,25.000,N
468,0.005,1.875,-0.040,102.778,47.222,330.556,766.667,33.333,N
469,0.055,2.010,0.025,102.778,44.444,308.333,777.778,11.111,N
470,0.175,2.090,-0.030,100.000,50.000,308.333,763.889,13.889,N
471,0.110,1.965,-0.090,94.444,44.444,322.222,727.778,36.111,N
472,0.065,2.045,-0.015,97.222,41.667,275.000,716.667,11.111,N
473,0.125,2.040,0.105,100.000,47.222,291.667,686.111,30.556,N
474,0.120,1.975,0.160,116.667,50.000,313.889,733.333,47.222,N
475,0.165,2.135,0.045,116.667,47.222,294.444,783.333,50.000,N
476,0.135,2.100,0.245,119.444,47.222,308.333,836.111,52.778,N
477,0.075,2.085,0.115,102.778,47.222,291.667,936.111,100.000,N
478,0.025,2.055,0.145,105.556,44.444,286.111,1000.000,63.889,N
479,0.110,0.890,1.085,197.222,94.444,327.778,477.778,522.222,V
480,-0.070,2.015,-0.075,100.000,47.222,277.778,1169.444,691.667,N
481,0.095,2.085,0.020,97.222,44.444,327.778,947.222,222.222,N
482,0.110,2.145,0.140,102.778,47.222,327.778,927.778,19.444,N
483,0.145,2.135,0.325,111.111,44.444,313.889,905.556,22.222,N
484,0.100,2.175,0.160,97.222,47.222,311.111,969.444,63.889,N
485,0.055,2.125,0.260,102.778,44.444,291.667,983.333,13.889,N
486,0.200,1.015,0.975,197.222,83.333,325.000,488.889,494.444,V
487,0.065,2.025,0.195,91.667,47.222,319.444,1150.000,661.111,N
488,0.060,2.080,0.200,97.222,47.222,325.000,941.667,208.333,N
489,0.120,1.885,-0.135,100.000,47.222,319.444,1000.000,58.333,N
490,-0.140,2.025,-0.005,94.444,44.444,300.000,963.889,36.111,N
491,0.010,2.050,0.105,102.778,47.222,291.667,891.667,72.222,N
492,0.120,2.060,0.250,105.556,47.222,302.778,902.778,11.111,N
493,0.035,1.995,0.175,105.556,47.222,305.556,947.222,44.444,N
494,0.125,2.030,-0.040,111.111,52.778,336.111,975.000,27.778,N
495,-0.260,1.975,-0.090,108.333,50.000,319.444,963.889,11.111,N
496,-0.030,2.075,0.050,111.111,47.222,313.889,886.111,77.778,N
497,0.055,2.240,0.175,108.333,44.444,302.778,850.000,36.111,N
498,0.225,2.310,0.310,105.556,44.444,283.333,844.444,5.556,N
499,0.240,2.220,0.260,97.222,44.444,311.111,922.222,77.778,N
500,0.080,2.160,0.155,105.556,47.222,319.444,930.556,8.333,N
501,0.105,2.185,0.310,97.222,47.222,319.444,955.556,25.000,N
502,0.180,2.270,0.255,111.111,44.444,327.778,1002.778,47.222,N
503,0.205,2.255,0.335,108.333,44.444,300.000,1025.000,22.222,N
504,0.225,2.250,0.285,102.778,44.444,283.333,947.222,77.778,N
505,0.065,2.210,0.235,108.333,44.444,291.667,905.556,41.667,N
506,0.130,2.185,0.305,97.222,44.444,291.667,888.889,16.667,N
507,0.180,2.170,0.315,105.556,44.444,316.667,927.778,38.889,N
508,0.230,2.235,0.225,116.667,47.222,325.000,1041.667,113.889,N
509,-0.040,2.175,0.260,111.111,47.222,313.889,994.444,47.222,N
510,0.115,2.340,0.325,108.333,47.222,291.667,927.778,66.667,N
511,0.195,2.365,0.405,105.556,44.444,294.444,905.556,22.222,N
512,0.360,2.400,0.455,108.333,44.444,305.556,961.111,55.556,N
513,0.280,2.355,0.415,111.111,47.222,308.333,1027.778,66.667,N
514,0.090,2.295,0.395,116.667,47.222,319.444,1008.333,19.444,N
515,0.260,2.350,0.480,108.333,47.222,308.333,961.111,47.222,N
516,0.290,2.325,0.365,105.556,50.000,302.778,969.444,8.333,N
517,0.065,2.165,0.390,105.556,44.444,291.667,947.222,22.222,N
518,0.305,2.205,0.370,102.778,41.667,297.222,888.889,58.333,N
519,0.195,2.245,0.395,97.222,47.222,308.333,875.000,13.889,N
520,0.180,2.280,0.465,113.889,50.000,327.778,897.222,22.222,N
521,0.150,2.285,0.390,105.556,47.222,327.778,919.444,22.222,N
522,0.235,2.415,0.415,113.889,47.222,313.889,830.556,88.889,N
523,0.370,2.395,0.595,105.556,44.444,300.000,841.667,11.111,N
524,0.160,2.270,0.380,116.667,44.444,288.889,813.889,27.778,N
525,0.150,2.225,0.305,100.000,47.222,308.333,797.222,16.667,N
526,0.195,2.285,0.310,100.000,47.222,308.333,869.444,72.222,N
527,0.090,2.335,0.505,113.889,47.222,302.778,880.556,11.111,N
528,0.325,2.320,0.490,122.222,47.222,297.222,877.778,2.778,N
529,0.190,2.280,0.405,116.667,44.444,308.333,872.222,5.556,N
530,0.060,2.110,0.235,113.889,47.222,311.111,797.222,75.000,N
531,-0.020,1.965,0.330,97.222,58.333,302.778,752.778,44.444,N
532,0.045,2.235,0.500,102.778,44.444,286.111,827.778,75.000,N
533,0.245,2.320,0.445,102.778,44.444,308.333,858.333,30.556,N
534,0.160,2.095,0.310,102.778,50.000,325.000,936.111,77.778,N
535,-0.075,2.110,0.340,97.222,47.222,327.778,958.333,22.222,N
536,0.065,2.195,0.330,102.778,50.000,327.778,902.778,55.556,N
537,0.165,2.155,0.315,102.778,44.444,288.889,855.556,47.222,N
538,0.165,2.105,0.340,102.778,44.444,288.889,866.667,11.111,N
539,-0.020,1.985,0.255,108.333,47.222,305.556,888.889,22.222,N
540,0.030,2.025,0.320,116.667,50.000,322.222,941.667,52.778,N
541,0.025,2.050,0.215,113.889,50.000,325.000,1000.000,58.333,N
542,0.110,1.945,0.110,116.667,50.000,313.889,1000.000,0.000,N
543,-0.150,1.665,0.130,100.000,80.556,338.889,916.667,83.333,N
544,0.100,1.770,0.430,94.444,47.222,294.444,875.000,41.667,N
545,0.185,1.625,0.315,94.444,58.333,311.111,883.333,8.333,N
546,0.105,1.565,0.300,97.222,47.222,294.444,888.889,5.556,N
547,0.030,1.380,0.220,102.778,86.111,325.000,888.889,0.000,N
548,0.005,1.225,0.185,105.556,88.889,327.778,919.444,30.556,N
549,0.010,1.170,0.155,105.556,86.111,325.000,950.000,30.556,N
550,-0.085,1.120,0.185,100.000,113.889,338.889,944.444,5.556,N
551,0.045,1.125,0.255,105.556,100.000,308.333,872.222,72.222,N
552,0.030,0.990,0.145,94.444,102.778,322.222,888.889,16.667,N
553,-0.045,0.895,0.085,102.778,102.778,325.000,944.444,55.556,N
554,-0.115,0.865,0.050,111.111,111.111,344.444,1005.556,61.111,N
555,0.000,0.955,0.040,108.333,108.333,336.111,980.556,25.000,N
556,-0.020,0.850,0.080,94.444,108.333,311.111,950.000,30.556,N
557,0.015,0.825,0.115,105.556,100.000,322.222,963.889,13.889,N
558,0.035,0.940,0.270,94.444,105.556,325.000,905.556,58.333,N
559,0.130,1.070,0.325,102.778,102.778,341.667,908.333,2.778,N
560,-0.065,0.885,0.125,102.778,116.667,355.556,1000.000,91.667,N
561,-0.045,0.870,0.220,105.556,113.889,355.556,952.778,47.222,N
562,0.120,0.980,0.205,116.667,116.667,341.667,994.444,41.667,N
563,-0.050,0.870,0.215,94.444,105.556,330.556,944.444,50.000,N
564,0.105,1.035,0.275,102.778,102.778,305.556,894.444,50.000,N
565,0.010,0.920,0.175,108.333,105.556,322.222,905.556,11.111,N
566,-0.045,0.860,0.190,102.778,102.778,341.667,880.556,25.000,N
567,0.005,0.975,0.260,111.111,102.778,375.000,888.889,8.333,N
568,0.070,0.945,0.250,108.333,102.778,347.222,880.556,8.333,N
569,-0.020,0.910,0.250,108.333,102.778,327.778,916.667,36.111,N
570,-0.065,0.910,0.290,108.333,102.778,308.333,850.000,66.667,N
571,-0.030,0.950,0.280,91.667,105.556,325.000,883.333,33.333,N
572,-0.025,1.030,0.250,100.000,100.000,341.667,961.111,77.778,N
573,-0.025,1.040,0.255,111.111,108.333,341.667,1008.333,47.222,N
574,0.000,1.050,0.335,113.889,113.889,344.444,1019.444,11.111,N
575,-0.035,1.000,0.250,102.778,116.667,338.889,1022.222,2.778,N
576,-0.130,0.965,0.220,105.556,100.000,325.000,986.111,36.111,N
577,-0.090,1.025,0.190,97.222,116.667,341.667,911.111,75.000,N
578,-0.075,1.045,0.205,111.111,111.111,327.778,927.778,16.667,N
579,-0.080,1.015,0.190,122.222,100.000,341.667,961.111,33.333,N
580,-0.085,0.980,0.220,108.333,94.444,338.889,952.778,8.333,N
581,-0.030,1.110,0.270,100.000,116.667,358.333,975.000,22.222,N
582,-0.010,1.135,0.220,102.778,102.778,327.778,972.222,2.778,N
583,-0.075,1.095,0.260,91.667,102.778,308.333,902.778,69.444,N
584,-0.040,1.085,0.265,102.778,100.000,325.000,897.222,5.556,N
585,-0.040,1.100,0.200,113.889,116.667,358.333,994.444,97.222,N
586,-0.085,1.135,0.250,119.444,113.889,355.556,1002.778,8.333,N
587,-0.080,1.055,0.230,119.444,102.778,344.444,1005.556,2.778,N
588,-0.050,1.085,0.175,116.667,100.000,325.000,1013.889,8.333,N
589,-0.120,1.070,0.285,108.333,97.222,322.222,969.444,44.444,N
590,-0.045,1.140,0.215,108.333,102.778,322.222,933.333,36.111,N
591,-0.055,1.165,0.130,102.778,83.333,311.111,927.778,5.556,N
592,-0.115,1.175,0.205,105.556,111.111,352.778,952.778,25.000,N
593,-0.090,1.215,0.200,113.889,113.889,358.333,975.000,22.222,N
594,-0.015,1.335,0.150,113.889,58.333,322.222,1033.333,58.333,N
595,-0.155,1.325,0.280,108.333,77.778,327.778,969.444,63.889,N
596,-0.050,1.405,0.190,102.778,47.222,291.667,886.111,83.333,N
597,-0.005,1.525,0.305,111.111,47.222,311.111,927.778,41.667,N
598,-0.075,1.535,0.175,122.222,52.778,325.000,994.444,66.667,N
599,-0.060,1.710,0.110,122.222,50.000,319.444,1002.778,8.333,N
600,0.045,1.855,0.205,111.111,47.222,316.667,1000.000,2.778,N
601,-0.015,1.855,0.140,102.778,44.444,294.444,922.222,77.778,N
602,0.085,1.965,0.230,108.333,47.222,302.778,861.111,61.111,N
603,0.155,2.050,0.205,100.000,44.444,291.667,858.333,2.778,N
604,0.065,1.975,0.180,105.556,50.000,325.000,866.667,8.333,N
605,0.120,1.975,0.210,102.778,47.222,311.111,830.556,36.111,N
606,0.135,2.005,0.140,111.111,50.000,313.889,847.222,16.667,N
607,0.110,1.975,0.115,111.111,47.222,297.222,847.222,0.000,N
608,0.095,1.965,0.205,94.444,41.667,297.222,816.667,30.556,N
609,0.160,2.025,0.160,111.111,44.444,280.556,802.778,13.889,N
610,0.220,2.015,0.195,105.556,47.222,300.000,813.889,11.111,N
611,0.105,1.910,0.115,97.222,44.444,311.111,869.444,55.556,N
612,0.115,1.960,0.130,105.556,50.000,319.444,944.444,75.000,N
613,0.140,2.050,0.170,102.778,47.222,305.556,1047.222,102.778,N
614,0.035,1.980,0.280,105.556,44.444,288.889,1033.333,13.889,N
615,0.225,2.055,0.390,105.556,41.667,280.556,955.556,77.778,N
616,0.260,2.055,0.280,108.333,44.444,294.444,969.444,13.889,N
617,0.065,2.025,0.460,111.111,47.222,311.111,955.556,13.889,N
618,0.155,2.055,0.385,116.667,50.000,319.444,1011.111,55.556,N
619,0.140,2.030,0.345,116.667,47.222,308.333,1094.444,83.333,N
620,0.075,1.990,0.395,113.889,47.222,308.333,1027.778,66.667,N
621,0.100,1.970,0.335,111.111,50.000,305.556,975.000,52.778,N
622,0.095,1.985,0.335,108.333,47.222,305.556,966.667,8.333,N
623,0.080,1.990,0.395,111.111,50.000,319.444,997.222,30.556,N
624,0.120,1.985,0.335,119.444,50.000,319.444,1002.778,5.556,N
625,0.125,2.015,0.350,116.667,50.000,322.222,1011.111,8.333,N
626,0.105,1.905,0.370,108.333,47.222,316.667,988.889,22.222,N
627,0.140,1.935,0.320,105.556,44.444,302.778,930.556,58.333,N
628,0.105,1.980,0.300,102.778,44.444,283.333,936.111,5.556,N
629,0.035,1.915,0.295,111.111,47.222,322.222,963.889,27.778,N
630,0.050,1.855,0.285,116.667,47.222,308.333,1011.111,47.222,N
631,0.035,1.890,0.305,113.889,47.222,322.222,1002.778,8.333,N
632,0.030,1.895,0.240,116.667,47.222,311.111,1016.667,13.889,N
633,-0.050,1.830,0.260,108.333,47.222,291.667,947.222,69.444,N
634,0.020,1.860,0.245,108.333,44.444,302.778,927.778,19.444,N
635,-0.005,1.875,0.245,113.889,44.444,316.667,1000.000,72.222,N
636,-0.055,1.770,0.230,119.444,50.000,322.222,994.444,5.556,N
637,-0.080,1.845,0.215,116.667,50.000,308.333,986.111,8.333,N
638,0.005,1.850,0.230,113.889,44.444,311.111,988.889,2.778,N
639,-0.135,1.600,0.165,105.556,69.444,325.000,944.444,44.444,N
640,-0.135,1.445,0.200,94.444,80.556,322.222,813.889,130.556,N
641,-0.100,1.800,0.215,105.556,52.778,308.333,872.222,58.333,N
642,0.005,1.915,0.330,119.444,50.000,325.000,961.111,88.889,N
643,0.065,1.950,0.375,116.667,47.222,322.222,1013.889,52.778,N
644,-0.015,1.905,0.380,119.444,50.000,322.222,1005.556,8.333,N
645,-0.010,1.790,0.290,102.778,52.778,308.333,916.667,88.889,N
646,0.015,1.890,0.345,100.000,44.444,286.111,875.000,41.667,N
647,0.040,1.815,0.250,105.556,69.444,325.000,861.111,13.889,N
648,-0.030,1.815,0.195,108.333,50.000,308.333,908.333,47.222,N
649,-0.045,1.710,0.240,108.333,52.778,319.444,905.556,2.778,N
650,-0.020,1.855,0.200,102.778,50.000,325.000,900.000,5.556,N
651,-0.010,1.905,0.235,100.000,47.222,302.778,908.333,8.333,N
652,0.050,2.000,0.280,108.333,41.667,291.667,916.667,8.333,N
653,0.035,1.970,0.315,105.556,44.444,297.222,913.889,2.778,N
654,0.055,1.900,0.305,105.556,69.444,325.000,911.111,2.778,N
655,0.015,1.965,0.320,113.889,47.222,313.889,941.667,30.556,N
656,0.030,1.980,0.330,111.111,47.222,313.889,980.556,38.889,N
657,0.025,1.990,0.355,113.889,52.778,327.778,1041.667,61.111,N
658,-0.020,1.985,0.365,108.333,80.556,327.778,1000.000,41.667,N
659,0.000,2.030,0.355,105.556,47.222,311.111,966.667,33.333,N
660,-0.015,2.095,0.400,105.556,47.222,305.556,1033.333,66.667,N
661,-0.020,2.065,0.415,113.889,77.778,344.444,1091.667,58.333,N
662,0.050,2.055,0.430,111.111,52.778,330.556,1116.667,25.000,N
663,0.030,2.145,0.415,111.111,50.000,322.222,1058.333,58.333,N
664,0.015,2.110,0.475,105.556,44.444,291.667,1013.889,44.444,N
665,0.010,2.085,0.480,108.333,47.222,300.000,997.222,16.667,N
666,0.030,2.015,0.405,108.333,52.778,325.000,961.111,36.111,N
667,-0.025,1.945,0.375,111.111,77.778,344.444,1002.778,41.667,N
668,0.120,1.925,0.350,119.444,52.778,325.000,997.222,5.556,N
669,0.035,1.720,0.320,116.667,80.556,341.667,930.556,66.667,N
670,0.050,1.540,0.210,108.333,83.333,305.556,919.444,11.111,N
671,-0.095,1.345,0.255,108.333,102.778,322.222,888.889,30.556,N
672,0.175,1.375,0.225,97.222,86.111,297.222,855.556,33.333,N
673,-0.075,1.035,0.160,102.778,111.111,355.556,886.111,30.556,N
674,0.005,1.030,0.040,108.333,102.778,375.000,888.889,2.778,N
675,0.005,1.025,0.110,108.333,111.111,325.000,902.778,13.889,N
676,-0.030,1.065,0.280,100.000,113.889,325.000,858.333,44.444,N
677,-0.025,0.985,0.190,105.556,97.222,322.222,805.556,52.778,N
678,0.050,0.935,0.045,105.556,100.000,311.111,830.556,25.000,N
679,-0.090,0.835,0.190,105.556,100.000,338.889,819.444,11.111,N
680,-0.180,0.830,0.135,108.333,105.556,344.444,900.000,80.556,N
681,-0.180,0.730,0.045,102.778,116.667,358.333,941.667,41.667,N
682,-0.035,0.805,0.190,111.111,105.556,341.667,911.111,30.556,N
683,-0.090,0.795,0.135,102.778,113.889,338.889,908.333,2.778,N
684,0.010,0.935,0.125,102.778,105.556,327.778,936.111,27.778,N
685,-0.045,0.705,-0.050,102.778,102.778,325.000,883.333,52.778,N
686,-0.175,0.730,0.045,105.556,105.556,327.778,836.111,47.222,N
687,-0.050,0.855,0.095,111.111,108.333,358.333,850.000,13.889,N
688,-0.095,0.825,0.045,113.889,113.889,341.667,922.222,72.222,N
689,-0.070,0.805,0.065,105.556,102.778,327.778,944.444,22.222,N
690,0.000,0.870,0.015,97.222,113.889,327.778,955.556,11.111,N
691,-0.185,0.785,0.025,105.556,102.778,311.111,927.778,27.778,N
692,-0.045,0.895,0.225,97.222,108.333,325.000,838.889,88.889,N
693,0.025,0.990,0.115,113.889,113.889,355.556,886.111,47.222,N
694,-0.025,0.975,0.065,105.556,102.778,341.667,958.333,72.222,N
695,-0.050,0.965,0.125,108.333,97.222,327.778,969.444,11.111,N
696,-0.040,0.950,0.130,111.111,113.889,325.000,936.111,33.333,N
697,0.105,1.065,0.175,100.000,116.667,327.778,902.778,33.333,N
698,0.050,1.045,0.085,108.333,100.000,322.222,894.444,8.333,N
699,-0.070,1.070,0.060,97.222,111.111,319.444,905.556,11.111,N
700,-0.010,1.115,0.190,111.111,100.000,355.556,894.444,11.111,N
701,0.120,1.190,0.205,113.889,113.889,341.667,936.111,41.667,N
702,0.065,1.175,0.190,113.889,113.889,344.444,969.444,33.333,N
703,-0.050,1.150,0.165,105.556,80.556,336.111,991.667,22.222,N
704,0.050,1.190,0.195,100.000,116.667,325.000,927.778,63.889,N
705,-0.110,0.985,0.020,105.556,97.222,325.000,905.556,22.222,N
706,-0.140,1.070,0.155,102.778,66.667,341.667,875.000,30.556,N
707,0.070,1.215,0.295,108.333,111.111,347.222,908.333,33.333,N
708,0.070,1.305,0.285,102.778,80.556,355.556,961.111,52.778,N
709,-0.005,1.195,0.190,111.111,102.778,322.222,975.000,13.889,N
710,-0.105,1.120,0.225,100.000,77.778,325.000,866.667,108.333,N
711,0.110,1.420,0.265,100.000,116.667,344.444,888.889,22.222,N
712,-0.030,1.480,0.295,100.000,47.222,291.667,919.444,30.556,N
713,0.080,1.485,0.345,113.889,50.000,311.111,1000.000,80.556,N
714,-0.015,1.430,0.335,113.889,72.222,344.444,1002.778,2.778,N
715,-0.030,1.445,0.320,108.333,50.000,322.222,952.778,50.000,N
716,-0.105,1.400,0.230,102.778,72.222,325.000,886.111,66.667,N
717,-0.025,1.570,0.255,108.333,61.111,311.111,819.444,66.667,N
718,0.045,1.900,0.270,97.222,44.444,294.444,802.778,16.667,N
719,-0.035,1.795,0.255,102.778,47.222,302.778,855.556,52.778,N
720,0.065,1.845,0.260,105.556,47.222,319.444,952.778,97.222,N
721,0.100,1.965,0.350,111.111,47.222,325.000,977.778,25.000,N
722,0.135,1.965,0.295,116.667,47.222,294.444,1016.667,38.889,N
723,0.065,2.020,0.385,105.556,44.444,294.444,1016.667,0.000,N
724,0.265,1.915,0.245,105.556,41.667,294.444,1008.333,8.333,N
725,0.120,1.790,0.305,111.111,72.222,336.111,952.778,55.556,N
726,0.145,1.870,0.345,119.444,50.000,308.333,994.444,41.667,N
727,0.060,1.870,0.325,116.667,50.000,322.222,997.222,2.778,N
728,0.080,1.910,0.335,113.889,47.222,305.556,930.556,66.667,N
729,0.060,1.920,0.210,108.333,44.444,305.556,950.000,19.444,N
730,-0.010,1.800,0.225,105.556,44.444,302.778,922.222,27.778,N
731,0.045,1.780,0.250,105.556,44.444,300.000,936.111,13.889,N
732,0.040,1.910,0.110,113.889,44.444,313.889,988.889,52.778,N
733,-0.080,1.870,0.245,105.556,47.222,322.222,972.222,16.667,N
734,-0.100,1.910,0.165,100.000,44.444,305.556,947.222,25.000,N
735,-0.025,1.870,0.030,108.333,47.222,297.222,927.778,19.444,N
736,0.015,1.875,0.235,100.000,47.222,291.667,825.000,102.778,N
737,-0.035,1.995,0.165,94.444,41.667,300.000,816.667,8.333,N
738,-0.115,1.885,0.065,113.889,44.444,277.778,827.778,11.111,N
739,-0.010,1.980,0.135,119.444,50.000,308.333,872.222,44.444,N
740,-0.005,2.015,0.145,116.667,50.000,311.111,850.000,22.222,N
741,-0.170,1.950,0.105,100.000,47.222,325.000,850.000,0.000,N
742,-0.005,2.130,0.150,97.222,44.444,305.556,830.556,19.444,N
743,0.095,2.130,0.215,91.667,41.667,291.667,830.556,0.000,N
744,0.040,2.170,0.250,113.889,47.222,294.444,822.222,8.333,N
745,0.070,2.120,0.120,111.111,50.000,302.778,794.444,27.778,N
746,0.190,2.245,0.235,100.000,47.222,313.889,833.333,38.889,N
747,0.185,2.115,0.340,119.444,69.444,344.444,861.111,27.778,N
748,0.250,2.060,0.265,108.333,47.222,308.333,833.333,27.778,N
749,0.305,2.045,0.235,105.556,47.222,302.778,850.000,16.667,N
750,0.050,1.955,0.165,91.667,50.000,288.889,769.444,80.556,N
751,0.120,2.045,0.245,111.111,41.667,294.444,786.111,16.667,N
752,-0.005,2.010,0.235,97.222,44.444,297.222,816.667,30.556,N
753,0.065,2.055,0.295,105.556,47.222,302.778,847.222,30.556,N
754,0.090,2.125,0.300,102.778,47.222,313.889,991.667,144.444,N
755,0.020,2.165,0.275,116.667,50.000,325.000,983.333,8.333,N
756,0.145,2.105,0.370,105.556,44.444,294.444,925.000,58.333,N
757,-0.050,1.905,0.025,100.000,44.444,291.667,861.111,63.889,N
758,-0.095,1.945,0.235,108.333,47.222,308.333,805.556,55.556,N
759,-0.065,1.980,0.025,97.222,44.444,300.000,838.889,33.333,N
760,-0.185,1.880,0.110,108.333,52.778,333.333,813.889,25.000,N
761,-0.020,2.035,0.130,119.444,47.222,313.889,866.667,52.778,N
762,-0.010,2.065,0.125,108.333,44.444,308.333,908.333,41.667,N
763,-0.225,1.980,-0.125,100.000,52.778,272.222,863.889,44.444,N
764,-0.090,2.190,0.265,97.222,47.222,280.556,852.778,11.111,N
765,0.085,2.185,0.165,116.667,44.444,294.444,847.222,5.556,N
766,-0.150,0.845,1.165,197.222,86.111,316.667,516.667,330.556,V
767,0.035,2.075,0.045,94.444,50.000,322.222,1119.444,602.778,N
768,-0.005,2.040,0.140,102.778,50.000,305.556,838.889,280.556,N
769,0.140,2.240,0.390,125.000,47.222,316.667,838.889,0.000,N
770,0.150,2.160,0.305,102.778,47.222,302.778,808.333,30.556,N
771,0.205,1.120,1.155,191.667,94.444,327.778,500.000,308.333,V
772,-0.025,2.085,0.070,105.556,41.667,305.556,1044.444,544.444,N
773,-0.025,0.730,1.145,197.222,91.667,333.333,497.222,547.222,V
774,-0.045,2.045,0.080,108.333,50.000,336.111,1097.222,600.000,N
775,0.080,0.890,1.065,197.222,91.667,344.444,505.556,591.667,V
776,-0.085,1.995,0.015,97.222,47.222,300.000,1144.444,638.889,N
777,-0.130,2.020,-0.015,113.889,47.222,297.222,808.333,336.111,N
778,-0.180,0.690,0.475,194.444,83.333,319.444,508.333,300.000,V
779,0.155,2.185,0.215,105.556,44.444,302.778,1083.333,575.000,N
780,0.170,0.945,0.985,197.222,91.667,327.778,488.889,594.444,V
781,0.075,2.125,0.140,100.000,44.444,302.778,1191.667,702.778,N
782,-0.015,2.090,0.095,116.667,50.000,313.889,811.111,380.556,N
783,0.010,-0.470,0.235,72.222,55.556,311.111,775.000,36.111,N
784,-0.090,1.935,0.095,102.778,47.222,283.333,866.667,91.667,N
785,-0.220,0.775,0.920,186.111,83.333,336.111,522.222,344.444,V
786,0.115,2.025,0.110,88.889,44.444,294.444,1047.222,525.000,N
787,0.030,2.080,0.200,94.444,44.444,297.222,750.000,297.222,N
788,0.010,2.125,0.055,94.444,44.444,297.222,730.556,19.444,N
789,0.025,0.865,1.055,197.222,94.444,338.889,477.778,252.778,V
790,1.055,1.715,-0.280,188.889,116.667,405.556,469.444,8.333,V
791,0.185,2.110,0.020,102.778,44.444,294.444,1213.889,744.444,N
792,-0.015,2.165,0.070,105.556,44.444,277.778,808.333,405.556,N
793,-0.005,0.885,1.245,177.778,91.667,333.333,497.222,311.111,V
794,0.025,2.160,0.020,94.444,47.222,313.889,1072.222,575.000,N
795,0.020,0.930,0.940,175.000,91.667,319.444,483.333,588.889,V
796,0.065,2.080,0.145,100.000,44.444,308.333,1038.889,555.556,N
797,0.135,2.055,0.215,116.667,47.222,311.111,783.333,255.556,N
798,0.185,2.115,0.315,102.778,47.222,308.333,819.444,36.111,N
799,0.145,0.845,1.255,197.222,80.556,319.444,519.444,300.000,V
800,0.175,1.785,0.260,94.444,47.222,319.444,1136.111,616.667,N
801,0.130,1.675,0.015,102.778,44.444,294.444,775.000,361.111,N
802,-0.080,0.275,0.780,197.222,80.556,319.444,488.889,286.111,V
803,0.780,1.250,-0.470,197.222,116.667,397.222,472.222,16.667,V
804,-0.020,1.420,0.065,88.889,80.556,302.778,1061.111,588.889,N
805,0.515,-1.590,1.035,36.111,0.000,222.222,502.778,558.333,V
806,-0.025,1.185,0.010,105.556,83.333,325.000,1033.333,530.556,N
807,0.020,1.125,0.130,116.667,86.111,294.444,747.222,286.111,N
808,-0.085,0.340,0.680,197.222,97.222,338.889,513.889,233.333,V
809,0.430,0.955,-0.780,197.222,116.667,400.000,511.111,2.778,V
810,-0.230,0.975,-0.045,94.444,108.333,327.778,1047.222,536.111,N
811,0.315,-1.355,0.515,33.333,0.000,200.000,475.000,572.222,V
812,-0.190,0.865,-0.065,88.889,100.000,327.778,902.778,427.778,N
813,0.235,-1.270,0.770,38.889,0.000,236.111,522.222,380.556,V
814,-0.230,0.810,-0.095,105.556,102.778,341.667,930.556,408.333,N
815,0.345,-1.160,0.780,41.667,2.778,244.444,536.111,394.444,V
816,-0.075,0.900,-0.050,108.333,108.333,341.667,900.000,363.889,N
817,0.260,-1.245,0.925,36.111,2.778,219.444,505.556,394.444,V
818,-0.100,0.835,-0.070,91.667,97.222,308.333,894.444,388.889,N
819,0.385,-0.925,0.670,36.111,0.000,211.111,483.333,411.111,V
820,-0.275,0.620,-0.160,94.444,102.778,322.222,850.000,366.667,N
821,-0.160,0.570,0.030,186.111,102.778,311.111,458.333,391.667,V
822,-0.070,0.860,0.070,97.222,113.889,341.667,897.222,438.889,N
823,0.070,0.630,0.230,191.667,108.333,316.667,477.778,419.444,V
824,-0.135,0.640,-0.140,105.556,97.222,341.667,997.222,519.444,N
825,-0.100,0.865,-0.150,58.333,108.333,336.111,483.333,513.889,V
826,-0.095,0.760,-0.125,102.778,116.667,338.889,997.222,513.889,N
827,-0.095,0.915,-0.270,58.333,105.556,316.667,472.222,525.000,V
828,-0.085,0.735,-0.090,94.444,83.333,291.667,919.444,447.222,N
829,-0.090,0.885,-0.190,194.444,100.000,333.333,450.000,469.444,V
830,-0.060,0.880,-0.015,97.222,113.889,338.889,972.222,522.222,N
831,-0.055,0.870,-0.200,58.333,102.778,355.556,486.111,486.111,V
832,-0.035,0.875,0.000,100.000,111.111,341.667,1016.667,530.556,N
833,-0.020,1.140,-0.185,197.222,111.111,322.222,500.000,516.667,V
834,-0.070,0.900,-0.145,94.444,86.111,297.222,1027.778,527.778,N
835,-0.145,0.955,-0.360,191.667,105.556,397.222,461.111,566.667,V
836,-0.195,0.860,-0.155,105.556,105.556,305.556,950.000,488.889,N
837,-0.105,1.290,-0.295,58.333,116.667,405.556,472.222,477.778,V
838,0.055,1.145,-0.040,100.000,80.556,308.333,905.556,433.333,N
839,0.335,-1.365,0.735,38.889,0.000,222.222,525.000,380.556,V
840,-0.155,0.910,-0.110,102.778,116.667,336.111,911.111,386.111,N
841,-0.085,1.410,-0.380,58.333,108.333,113.889,488.889,422.222,V
842,0.065,1.050,0.225,100.000,111.111,338.889,941.667,452.778,N
843,0.165,1.520,-0.320,197.222,116.667,116.667,494.444,447.222,V
844,0.065,1.130,0.200,111.111,111.111,311.111,913.889,419.444,N
845,0.200,1.580,-0.445,197.222,116.667,405.556,455.556,458.333,V
846,-0.020,1.165,0.185,94.444,111.111,322.222,913.889,458.333,N
847,0.185,1.435,-0.160,186.111,116.667,322.222,455.556,458.333,V
848,0.150,1.240,0.195,105.556,100.000,325.000,972.222,516.667,N
849,0.180,1.515,-0.370,194.444,116.667,116.667,502.778,469.444,V
850,-0.010,1.180,0.225,100.000,113.889,341.667,988.889,486.111,N
851,0.225,1.465,-0.135,191.667,105.556,333.333,477.778,511.111,V
852,0.035,1.180,0.235,91.667,97.222,291.667,911.111,433.333,N
853,0.235,1.570,-0.115,197.222,102.778,111.111,444.444,466.667,V
854,0.065,1.205,0.200,91.667,100.000,325.000,861.111,416.667,N
855,0.200,0.925,0.055,169.444,97.222,308.333,444.444,416.667,V
856,0.020,0.885,0.110,97.222,80.556,325.000,911.111,466.667,N
857,0.100,1.315,-0.260,191.667,105.556,111.111,480.556,430.556,V
858,0.035,0.765,0.200,102.778,69.444,308.333,908.333,427.778,N
859,0.165,1.515,-0.200,197.222,116.667,116.667,480.556,427.778,V
860,-0.130,0.715,0.065,97.222,77.778,322.222,897.222,416.667,N
861,0.065,1.450,-0.340,188.889,108.333,119.444,458.333,438.889,V
862,-0.005,1.180,0.175,97.222,91.667,308.333,883.333,425.000,N
863,0.175,0.915,0.270,166.667,80.556,272.222,441.667,441.667,V
864,0.035,1.000,-0.145,102.778,52.778,316.667,936.111,494.444,N
865,-0.145,0.910,0.185,155.556,108.333,291.667,441.667,494.444,V
866,-0.050,1.260,-0.025,102.778,86.111,291.667,977.778,536.111,N
867,-0.025,0.615,0.625,191.667,94.444,319.444,472.222,505.556,V
868,-0.160,1.095,-0.010,97.222,63.889,311.111,955.556,483.333,N
869,0.015,1.785,-0.215,55.556,88.889,361.111,480.556,475.000,V
870,0.160,1.555,0.290,91.667,77.778,311.111,869.444,388.889,N
871,0.290,1.840,-0.210,183.333,100.000,158.333,438.889,430.556,V
872,0.045,1.350,0.060,100.000,77.778,311.111,863.889,425.000,N
873,0.030,1.735,-0.160,58.333,94.444,350.000,472.222,391.667,V
874,0.170,1.720,0.360,111.111,52.778,305.556,936.111,463.889,N
875,0.310,1.910,0.155,197.222,113.889,322.222,477.778,458.333,V
876,0.170,1.735,0.180,108.333,50.000,305.556,938.889,461.111,N
877,0.180,1.180,0.525,177.778,80.556,302.778,455.556,483.333,V
878,0.015,1.735,0.010,94.444,69.444,302.778,916.667,461.111,N
879,0.010,1.875,-0.290,175.000,102.778,316.667,427.778,488.889,V
880,0.075,1.780,0.260,111.111,44.444,294.444,888.889,461.111,N
881,0.260,1.980,0.075,180.556,102.778,311.111,452.778,436.111,V
882,0.060,1.875,0.160,105.556,50.000,297.222,922.222,469.444,N
883,0.160,1.735,0.220,191.667,102.778,305.556,463.889,458.333,V
884,0.135,1.915,0.125,111.111,47.222,294.444,977.778,513.889,N
885,0.125,1.735,-0.010,194.444,94.444,305.556,480.556,497.222,V
886,-0.005,1.890,0.135,94.444,47.222,283.333,1013.889,533.333,N
887,0.135,1.865,0.070,191.667,100.000,302.778,450.000,563.889,V
888,0.095,2.055,0.075,91.667,44.444,283.333,966.667,516.667,N
889,0.075,1.875,-0.335,183.333,97.222,291.667,441.667,525.000,V
890,0.045,1.970,0.135,100.000,44.444,286.111,986.111,544.444,N
891,0.100,2.065,-0.150,197.222,105.556,347.222,477.778,508.333,V
892,-0.165,1.785,0.035,100.000,50.000,308.333,1055.556,577.778,N
893,-0.115,2.160,-0.255,197.222,100.000,405.556,502.778,552.778,V
894,0.030,2.085,0.105,100.000,44.444,302.778,980.556,477.778,N
895,0.105,2.180,-0.355,183.333,94.444,400.000,461.111,519.444,V
896,-0.025,1.865,0.180,102.778,47.222,269.444,894.444,433.333,N
897,0.130,2.310,-0.405,197.222,91.667,400.000,469.444,425.000,V
898,0.015,2.055,0.070,91.667,44.444,272.222,916.667,447.222,N
899,-0.005,2.240,-0.205,197.222,94.444,138.889,488.889,427.778,V
900,0.355,2.075,0.270,97.222,47.222,300.000,936.111,447.222,N
901,0.105,2.115,-0.290,183.333,102.778,130.556,497.222,438.889,V
902,-0.045,1.450,0.250,108.333,50.000,300.000,927.778,430.556,N
903,0.180,2.015,-0.090,197.222,116.667,116.667,475.000,452.778,V
904,0.050,1.525,0.375,94.444,44.444,277.778,894.444,419.444,N
905,0.355,1.890,-0.090,191.667,88.889,119.444,463.889,430.556,V
906,-0.035,1.445,0.215,108.333,47.222,280.556,922.222,458.333,N
907,0.205,1.890,-0.225,194.444,83.333,127.778,463.889,458.333,V
908,0.100,1.925,0.150,119.444,50.000,291.667,1008.333,544.444,N
909,0.100,1.485,0.000,197.222,91.667,322.222,483.333,525.000,V
910,-0.055,1.725,0.015,94.444,47.222,294.444,1061.111,577.778,N
911,0.810,-1.785,0.505,33.333,2.778,219.444,519.444,541.667,V
912,-0.145,1.675,-0.095,97.222,41.667,272.222,930.556,411.111,N
913,0.435,-2.015,0.735,33.333,0.000,208.333,497.222,433.333,V
914,-0.115,1.685,-0.025,88.889,44.444,258.333,905.556,408.333,N
915,-0.030,-0.680,0.395,52.778,2.778,238.889,513.889,391.667,V
916,-0.055,1.730,-0.040,116.667,50.000,291.667,925.000,411.111,N
917,0.285,1.950,-0.585,58.333,113.889,125.000,552.778,372.222,V
918,-0.035,1.635,0.180,91.667,47.222,288.889,944.444,391.667,N
919,0.085,1.980,-0.310,197.222,108.333,394.444,497.222,447.222,V
920,-0.055,1.640,0.130,88.889,47.222,275.000,972.222,475.000,N
921,0.080,1.950,-0.210,186.111,100.000,308.333,463.889,508.333,V
922,0.065,1.850,0.155,100.000,47.222,277.778,980.556,516.667,N
923,0.130,1.350,0.265,197.222,100.000,305.556,469.444,511.111,V
924,-0.075,1.495,0.020,94.444,52.778,300.000,1077.778,608.333,N
925,-0.050,1.950,-0.350,191.667,88.889,402.778,494.444,583.333,V
926,0.110,1.840,0.115,97.222,47.222,313.889,1158.333,663.889,N
927,0.045,2.055,-0.250,197.222,100.000,347.222,497.222,661.111,V
928,0.145,1.890,0.225,108.333,44.444,269.444,1133.333,636.111,N
929,0.180,1.790,-0.360,197.222,86.111,313.889,466.667,666.667,V
930,-0.010,1.850,0.210,100.000,44.444,269.444,1122.222,655.556,N
931,0.080,1.995,-0.250,197.222,91.667,327.778,483.333,638.889,V
932,0.030,1.930,0.170,97.222,50.000,291.667,1269.444,786.111,N
933,0.040,2.145,-0.245,197.222,116.667,394.444,511.111,758.333,V
934,0.165,1.960,0.360,108.333,47.222,291.667,1191.667,680.556,N
935,0.280,2.090,-0.275,197.222,102.778,394.444,491.667,700.000,V
936,-0.070,1.700,0.140,102.778,44.444,277.778,1180.556,688.889,N
937,0.020,2.085,-0.325,197.222,116.667,405.556,488.889,691.667,V
938,0.030,1.925,0.200,100.000,47.222,308.333,1219.444,730.556,N
939,0.040,1.960,-0.485,194.444,105.556,397.222,508.333,711.111,V
940,-0.030,1.785,0.095,94.444,50.000,313.889,1202.778,694.444,N
941,-0.005,2.210,-0.285,58.333,116.667,405.556,525.000,677.778,V
942,0.220,1.985,0.370,102.778,47.222,275.000,1113.889,588.889,N
943,0.230,2.090,-0.410,58.333,111.111,394.444,491.667,622.222,V
944,0.030,1.675,0.280,88.889,47.222,280.556,1016.667,525.000,N
945,0.075,2.080,-0.455,197.222,116.667,405.556,494.444,522.222,V
946,-0.020,1.800,0.185,97.222,47.222,294.444,1125.000,630.556,N
947,-0.015,2.110,-0.300,197.222,91.667,397.222,513.889,611.111,V
948,0.075,1.905,0.275,108.333,50.000,313.889,1219.444,705.556,N
949,0.165,2.260,-0.280,197.222,116.667,388.889,513.889,705.556,V
950,0.250,1.945,0.355,100.000,44.444,275.000,1141.667,627.778,N
951,0.285,1.920,-0.125,197.222,97.222,330.556,477.778,663.889,V
952,0.100,1.820,0.250,102.778,50.000,308.333,1172.222,694.444,N
953,0.260,2.190,-0.330,58.333,116.667,400.000,527.778,644.444,V
954,0.315,1.890,0.465,91.667,47.222,308.333,1211.111,683.333,N
955,0.400,2.125,-0.410,58.333,113.889,383.333,533.333,677.778,V
956,0.160,1.900,0.385,91.667,47.222,286.111,1102.778,569.444,N
957,0.055,-1.300,0.685,52.778,2.778,247.222,530.556,572.222,V
958,-0.270,1.720,0.065,108.333,47.222,286.111,1033.333,502.778,N
959,-0.190,1.815,-0.385,194.444,111.111,344.444,502.778,530.556,V
960,0.090,2.010,0.265,102.778,47.222,313.889,1144.444,641.667,N
961,0.090,2.180,-0.335,197.222,116.667,400.000,522.222,622.222,V
962,0.020,1.665,0.220,102.778,50.000,308.333,1194.444,672.222,N
963,0.150,1.985,-0.220,58.333,116.667,394.444,544.444,650.000,V
964,-0.100,1.185,0.205,91.667,72.222,305.556,1144.444,600.000,N
965,0.095,1.600,-0.180,197.222,116.667,402.778,480.556,663.889,V
966,0.085,0.880,0.210,94.444,75.000,305.556,1088.889,608.333,N
967,0.270,-0.595,-0.105,36.111,0.000,275.000,533.333,555.556,V
968,-0.130,0.810,0.150,108.333,102.778,325.000,1097.222,563.889,N
969,-0.095,0.870,-0.325,58.333,111.111,400.000,550.000,547.222,V
970,-0.180,0.745,0.110,102.778,100.000,311.111,1097.222,547.222,N
971,0.000,1.040,-0.265,197.222,116.667,316.667,508.333,588.889,V
972,-0.055,0.830,0.095,108.333,66.667,311.111,1041.667,533.333,N
973,-0.025,0.070,0.585,194.444,88.889,325.000,488.889,552.778,V
974,0.585,0.900,-0.430,191.667,116.667,400.000,463.889,25.000,V
975,-0.090,0.895,0.070,100.000,116.667,325.000,1175.000,711.111,N
976,0.035,0.745,-0.115,191.667,116.667,400.000,491.667,683.333,V
977,0.165,0.985,0.355,102.778,113.889,336.111,1113.889,622.222,N
978,0.250,1.035,-0.140,197.222,116.667,380.556,505.556,608.333,V
979,0.280,0.960,-0.430,58.333,116.667,116.667,513.889,8.333,V
980,-0.115,0.810,0.055,97.222,113.889,322.222,1141.667,627.778,N
981,0.055,0.385,0.425,172.222,91.667,302.778,438.889,702.778,V
982,-0.035,0.780,-0.005,97.222,113.889,322.222,1094.444,655.556,N
983,-0.095,0.940,-0.460,197.222,116.667,402.778,488.889,605.556,V
984,-0.135,0.795,0.135,111.111,97.222,330.556,1091.667,602.778,N
985,0.170,-1.155,0.825,38.889,0.000,225.000,561.111,530.556,V
986,-0.110,0.725,0.160,97.222,75.000,325.000,1041.667,480.556,N
987,0.025,-0.820,0.470,61.111,2.778,244.444,522.222,519.444,V
988,-0.140,0.710,0.165,100.000,113.889,305.556,947.222,425.000,N
989,0.090,1.040,-0.405,194.444,116.667,400.000,475.000,472.222,V
990,-0.075,0.745,0.225,102.778,102.778,330.556,991.667,516.667,N
991,0.140,0.870,-0.135,197.222,105.556,347.222,511.111,480.556,V
992,-0.235,0.655,0.030,111.111,102.778,341.667,1061.111,550.000,N
993,-0.010,0.730,-0.250,197.222,97.222,325.000,494.444,566.667,V
994,-0.020,0.905,0.200,108.333,100.000,322.222,1055.556,561.111,N
995,0.155,0.795,-0.020,197.222,105.556,325.000,488.889,566.667,V
996,-0.080,0.975,0.130,88.889,100.000,305.556,1075.000,586.111,N
997,0.080,1.360,-0.225,197.222,116.667,405.556,480.556,594.444,V
998,0.050,1.015,0.220,111.111,111.111,311.111,1077.778,597.222,N
999,0.120,1.150,-0.435,197.222,116.667,383.333,497.222,580.556,V
1000,-0.050,0.940,0.060,105.556,100.000,338.889,1130.556,633.333,N
1001,0.230,-1.405,0.830,36.111,0.000,230.556,550.000,580.556,V
1002,-0.255,0.955,-0.035,88.889,105.556,313.889,1066.667,516.667,N
1003,0.000,1.560,-0.475,58.333,116.667,405.556,494.444,572.222,V
1004,0.030,1.150,0.145,91.667,86.111,291.667,961.111,466.667,N
1005,0.035,1.140,0.060,113.889,83.333,291.667,722.222,238.889,N
1006,-0.255,0.190,0.815,58.333,100.000,338.889,530.556,191.667,V
1007,0.665,0.960,-0.405,197.222,116.667,400.000,511.111,19.444,V
1008,0.035,1.205,0.045,97.222,47.222,300.000,1205.556,694.444,N
1009,0.505,-1.580,0.660,33.333,0.000,216.667,519.444,686.111,V
1010,-0.280,1.010,-0.115,100.000,63.889,291.667,1069.444,550.000,N
1011,-0.170,-1.140,0.375,55.556,2.778,230.556,505.556,563.889,V
1012,-0.115,1.165,0.120,108.333,108.333,322.222,1036.111,530.556,N
1013,0.090,1.805,-0.280,58.333,111.111,366.667,497.222,538.889,V
1014,0.130,1.545,0.235,91.667,52.778,302.778,1133.333,636.111,N
1015,0.055,-0.600,0.615,52.778,5.556,247.222,558.333,575.000,V
1016,-0.195,1.355,-0.080,105.556,52.778,308.333,1091.667,533.333,N
1017,-0.060,1.570,0.070,111.111,47.222,250.000,786.111,305.556,N
1018,-0.055,1.810,0.215,100.000,47.222,288.889,741.667,44.444,N
1019,0.060,1.745,0.105,108.333,44.444,277.778,725.000,16.667,N
1020,-0.315,0.560,0.745,197.222,88.889,322.222,508.333,216.667,V
1021,0.680,1.545,-0.430,197.222,113.889,405.556,469.444,38.889,V
1022,0.220,2.060,0.195,94.444,47.222,311.111,1091.667,622.222,N
1023,0.145,2.005,0.080,111.111,47.222,294.444,800.000,291.667,N
1024,0.065,1.820,0.185,100.000,47.222,283.333,780.556,19.444,N
1025,0.145,1.795,0.110,122.222,47.222,291.667,755.556,25.000,N
1026,-0.105,0.830,1.020,147.222,91.667,322.222,502.778,252.778,V
1027,0.185,1.895,0.330,100.000,44.444,277.778,1061.111,558.333,N
1028,0.135,2.050,-0.110,175.000,102.778,344.444,486.111,575.000,V
1029,0.270,1.845,0.255,94.444,47.222,297.222,1047.222,561.111,N
1030,0.150,0.530,0.460,88.889,66.667,258.333,611.111,436.111,V
1031,0.145,1.860,0.265,133.333,44.444,275.000,997.222,386.111,N
1032,0.095,1.835,0.235,100.000,47.222,275.000,780.556,216.667,N
1033,-0.065,0.925,0.855,55.556,83.333,325.000,508.333,272.222,V
1034,0.855,1.350,-0.110,194.444,113.889,377.778,469.444,38.889,V
1035,0.085,1.880,0.050,88.889,47.222,283.333,1161.111,691.667,N
1036,0.055,-0.640,0.555,30.556,8.333,236.111,505.556,655.556,V
1037,-0.015,1.750,-0.005,88.889,44.444,297.222,1044.444,538.889,N
1038,0.025,0.420,0.345,69.444,80.556,258.333,586.111,458.333,V
1039,0.010,1.830,0.120,100.000,47.222,311.111,1086.111,500.000,N
1040,0.175,1.910,0.130,113.889,47.222,297.222,783.333,302.778,N
1041,0.060,2.015,0.175,97.222,44.444,277.778,822.222,38.889,N
1042,0.080,2.010,0.170,100.000,47.222,275.000,816.667,5.556,N
1043,-0.015,1.945,0.190,91.667,44.444,275.000,861.111,44.444,N
1044,-0.090,0.700,1.065,197.222,94.444,325.000,491.667,369.444,V
1045,0.030,2.000,0.130,100.000,52.778,319.444,1238.889,747.222,N
1046,0.060,2.025,0.230,102.778,52.778,305.556,947.222,291.667,N
1047,0.115,2.050,0.255,94.444,44.444,286.111,897.222,50.000,N
1048,0.205,2.155,0.415,97.222,44.444,294.444,908.333,11.111,N
1049,0.150,2.065,0.240,105.556,47.222,272.222,975.000,66.667,N
1050,0.120,2.055,0.410,108.333,47.222,277.778,891.667,83.333,N
1051,0.270,2.115,0.410,113.889,47.222,283.333,916.667,25.000,N
1052,0.060,1.910,0.360,113.889,50.000,294.444,969.444,52.778,N
1053,0.220,2.190,0.485,119.444,50.000,305.556,941.667,27.778,N
1054,0.390,2.235,0.495,111.111,44.444,302.778,897.222,44.444,N
1055,0.250,2.020,0.365,102.778,47.222,283.333,886.111,11.111,N
1056,0.140,1.950,0.375,102.778,47.222,269.444,833.333,52.778,N
1057,0.220,2.145,0.385,105.556,47.222,286.111,863.889,30.556,N
1058,0.065,1.915,0.285,111.111,50.000,316.667,875.000,11.111,N
1059,0.140,2.020,0.465,102.778,50.000,322.222,911.111,36.111,N
1060,0.100,1.390,0.530,105.556,72.222,308.333,880.556,30.556,N
1061,0.165,1.895,0.410,102.778,47.222,288.889,816.667,63.889,N
1062,0.070,1.970,0.295,116.667,47.222,277.778,816.667,0.000,N
1063,-0.050,1.980,0.285,113.889,44.444,294.444,811.111,5.556,N
1064,0.050,1.870,0.330,113.889,47.222,294.444,800.000,11.111,N
1065,0.005,2.040,0.190,105.556,47.222,297.222,877.778,77.778,N
1066,-0.080,2.000,0.230,102.778,47.222,302.778,897.222,19.444,N
1067,0.140,2.190,0.280,119.444,47.222,305.556,866.667,30.556,N
1068,0.200,2.195,0.240,108.333,47.222,294.444,886.111,19.444,N
1069,0.125,2.110,0.300,94.444,44.444,294.444,872.222,13.889,N
1070,0.250,2.240,0.320,105.556,44.444,283.333,841.667,30.556,N
1071,0.260,2.345,0.340,105.556,44.444,280.556,875.000,33.333,N
1072,0.170,2.125,0.360,111.111,47.222,294.444,952.778,77.778,N
1073,0.220,2.110,0.185,116.667,47.222,297.222,930.556,22.222,N
1074,0.095,2.120,0.180,113.889,47.222,297.222,947.222,16.667,N
1075,0.140,2.040,0.285,111.111,47.222,294.444,952.778,5.556,N
1076,0.170,2.050,0.290,105.556,44.444,280.556,863.889,88.889,N
1077,0.155,2.080,0.200,108.333,47.222,291.667,888.889,25.000,N
1078,0.125,1.980,0.450,116.667,50.000,291.667,952.778,63.889,N
1079,0.175,2.070,0.315,116.667,47.222,302.778,936.111,16.667,N
1080,0.060,2.065,0.205,113.889,50.000,300.000,941.667,5.556,N
1081,0.130,1.930,0.275,111.111,50.000,300.000,897.222,44.444,N
1082,0.170,1.860,0.375,100.000,80.556,322.222,877.778,19.444,N
1083,-0.030,1.795,0.225,105.556,47.222,291.667,883.333,5.556,N
1084,-0.120,1.440,0.195,88.889,77.778,322.222,827.778,55.556,N
1085,-0.005,1.840,0.290,113.889,47.222,294.444,883.333,55.556,N
1086,-0.050,1.685,0.235,100.000,47.222,313.889,930.556,47.222,N
1087,-0.005,1.830,0.250,100.000,52.778,308.333,905.556,25.000,N
1088,-0.120,1.880,-0.005,100.000,47.222,297.222,911.111,5.556,N
1089,-0.105,1.715,0.215,105.556,41.667,277.778,863.889,47.222,N
1090,0.165,1.920,0.540,91.667,44.444,280.556,813.889,50.000,N
1091,0.040,1.740,0.395,105.556,58.333,302.778,788.889,25.000,N
1092,-0.045,1.540,0.295,125.000,75.000,336.111,750.000,38.889,N
1093,-0.035,1.670,0.340,127.778,47.222,311.111,800.000,50.000,N
1094,0.055,1.545,0.390,119.444,50.000,305.556,822.222,22.222,N
1095,-0.115,1.440,0.275,197.222,105.556,344.444,561.111,261.111,V
1096,0.275,1.160,-0.185,172.222,116.667,402.778,461.111,100.000,V
1097,0.145,1.375,0.440,83.333,61.111,305.556,1091.667,630.556,N
1098,0.355,1.015,0.620,197.222,72.222,311.111,502.778,588.889,V
1099,0.095,1.575,0.220,102.778,80.556,325.000,977.778,475.000,N
1100,0.275,-0.850,0.450,52.778,2.778,247.222,555.556,422.222,V
1101,0.090,1.825,0.200,119.444,50.000,311.111,950.000,394.444,N
1102,0.105,0.780,0.760,191.667,91.667,333.333,508.333,441.667,V
1103,0.205,1.780,0.200,100.000,47.222,288.889,977.778,469.444,N
1104,0.730,-1.610,0.665,36.111,0.000,227.778,550.000,427.778,V
1105,0.000,1.700,0.085,100.000,47.222,277.778,930.556,380.556,N
1106,0.100,1.710,0.080,105.556,41.667,283.333,686.111,244.444,N
1107,-0.095,0.650,0.490,197.222,113.889,338.889,497.222,188.889,V
1108,0.490,1.325,-0.430,169.444,116.667,405.556,450.000,47.222,V
1109,0.050,1.500,0.045,100.000,52.778,333.333,1130.556,680.556,N
1110,0.640,-1.250,0.450,30.556,2.778,255.556,550.000,580.556,V
1111,0.155,1.390,0.145,102.778,52.778,308.333,1091.667,541.667,N
1112,0.115,1.135,0.150,108.333,72.222,308.333,752.778,338.889,N
1113,-0.175,0.960,-0.050,97.222,113.889,308.333,738.889,13.889,N
1114,-0.160,0.400,0.405,197.222,111.111,322.222,488.889,250.000,V
1115,0.405,0.910,-0.065,155.556,108.333,391.667,419.444,69.444,V
1116,0.045,0.975,-0.040,108.333,108.333,341.667,1219.444,800.000,N
1117,-0.010,-0.575,0.515,58.333,0.000,255.556,547.222,672.222,V
1118,0.025,0.905,0.155,91.667,100.000,322.222,1147.222,600.000,N
1119,0.050,-0.525,0.495,58.333,0.000,258.333,538.889,608.333,V
1120,-0.050,0.740,0.135,97.222,97.222,308.333,1105.556,566.667,N
1121,0.005,0.830,0.055,100.000,97.222,286.111,736.111,369.444,N
1122,-0.020,0.835,0.130,108.333,102.778,308.333,722.222,13.889,N
1123,0.000,0.745,0.070,105.556,102.778,325.000,733.333,11.111,N
1124,-0.080,0.705,0.055,100.000,116.667,327.778,758.333,25.000,N
1125,-0.105,0.755,-0.020,113.889,100.000,327.778,844.444,86.111,N
1126,-0.075,0.765,0.135,102.778,116.667,338.889,861.111,16.667,N
1127,-0.030,0.220,0.660,197.222,111.111,352.778,519.444,341.667,V
1128,-0.070,0.785,0.025,88.889,100.000,325.000,1116.667,597.222,N
1129,-0.065,0.700,0.075,102.778,100.000,291.667,800.000,316.667,N
1130,-0.110,0.645,0.115,91.667,105.556,308.333,752.778,47.222,N
1131,-0.030,0.815,0.120,116.667,111.111,333.333,841.667,88.889,N
1132,-0.130,0.705,0.030,105.556,97.222,341.667,938.889,97.222,N
1133,-0.215,0.205,0.440,197.222,111.111,336.111,547.222,391.667,V
1134,-0.120,0.530,-0.025,102.778,97.222,325.000,1166.667,619.444,N
1135,-0.225,0.460,-0.030,97.222,102.778,294.444,847.222,319.444,N
1136,-0.190,0.510,0.010,100.000,100.000,291.667,783.333,63.889,N
1137,-0.220,0.150,0.300,197.222,113.889,338.889,516.667,266.667,V
1138,0.300,0.490,-0.270,177.778,111.111,372.222,461.111,55.556,V
1139,-0.245,0.445,-0.050,97.222,77.778,336.111,1202.778,741.667,N
1140,-0.065,-0.875,0.480,72.222,2.778,244.444,541.667,661.111,V
1141,-0.185,0.535,-0.035,105.556,102.778,341.667,1166.667,625.000,N
1142,-0.235,0.555,0.010,108.333,100.000,322.222,822.222,344.444,N
1143,-0.130,0.695,0.125,102.778,102.778,308.333,758.333,63.889,N
1144,-0.035,0.185,0.440,197.222,91.667,327.778,494.444,263.889,V
1145,0.440,1.135,-0.370,166.667,116.667,405.556,436.111,58.333,V
1146,-0.035,0.805,0.005,88.889,111.111,327.778,1175.000,738.889,N
1147,-0.010,-0.675,0.510,55.556,0.000,261.111,530.556,644.444,V
1148,-0.125,0.795,-0.145,100.000,100.000,325.000,1227.778,697.222,N
1149,-0.215,0.785,-0.065,97.222,113.889,341.667,830.556,397.222,N
1150,-0.160,0.845,-0.045,100.000,94.444,288.889,802.778,27.778,N
1151,-0.165,0.805,-0.090,97.222,111.111,322.222,780.556,22.222,N
1152,-0.230,0.740,-0.115,97.222,97.222,308.333,766.667,13.889,N
1153,-0.210,0.875,0.040,97.222,113.889,325.000,766.667,0.000,N
1154,-0.145,0.940,0.005,97.222,113.889,322.222,788.889,22.222,N
1155,-0.085,0.885,-0.055,116.667,102.778,311.111,850.000,61.111,N
1156,-0.300,0.745,-0.150,105.556,80.556,322.222,822.222,27.778,N
1157,-0.170,0.875,0.045,113.889,111.111,327.778,808.333,13.889,N
1158,-0.070,1.125,0.120,102.778,63.889,302.778,836.111,27.778,N
1159,0.090,1.155,0.090,100.000,100.000,291.667,813.889,22.222,N
1160,-0.100,0.855,0.015,100.000,63.889,305.556,769.444,44.444,N
1161,-0.070,0.955,0.015,100.000,116.667,327.778,763.889,5.556,N
1162,-0.070,1.050,0.030,119.444,116.667,341.667,819.444,55.556,N
1163,-0.025,1.205,0.125,105.556,75.000,325.000,875.000,55.556,N
1164,-0.180,0.955,-0.120,97.222,72.222,308.333,863.889,11.111,N
1165,-0.220,0.915,-0.200,94.444,108.333,305.556,805.556,58.333,N
1166,-0.240,0.980,-0.185,97.222,113.889,322.222,786.111,19.444,N
1167,-0.160,1.100,-0.060,94.444,111.111,308.333,797.222,11.111,N
1168,-0.125,1.170,-0.095,91.667,102.778,311.111,811.111,13.889,N
1169,-0.115,1.095,-0.020,97.222,75.000,322.222,838.889,27.778,N
1170,-0.165,1.190,-0.075,105.556,113.889,327.778,850.000,11.111,N
1171,-0.120,1.265,-0.100,100.000,116.667,322.222,838.889,11.111,N
1172,-0.205,1.225,0.050,105.556,63.889,308.333,805.556,33.333,N
1173,0.085,1.550,0.220,94.444,44.444,280.556,822.222,16.667,N
1174,0.030,1.610,0.110,97.222,47.222,291.667,858.333,36.111,N
1175,-0.080,1.585,0.255,102.778,63.889,311.111,847.222,11.111,N
1176,0.020,1.490,0.200,105.556,55.556,325.000,875.000,27.778,N
1177,-0.080,1.640,0.215,105.556,50.000,305.556,913.889,38.889,N
1178,0.150,1.825,0.355,102.778,50.000,311.111,880.556,33.333,N
1179,0.140,1.725,0.195,105.556,47.222,283.333,905.556,25.000,N
1180,-0.240,1.585,0.065,108.333,61.111,294.444,872.222,33.333,N
1181,-0.065,1.530,0.175,100.000,61.111,291.667,802.778,69.444,N
1182,0.105,1.815,0.235,111.111,47.222,300.000,911.111,108.333,N
1183,0.125,1.885,0.305,119.444,50.000,311.111,991.667,80.556,N
1184,0.075,1.980,0.270,111.111,47.222,305.556,969.444,22.222,N
1185,0.090,1.840,0.205,111.111,47.222,305.556,869.444,100.000,N
1186,0.055,2.035,0.285,108.333,44.444,291.667,847.222,22.222,N
1187,0.130,1.825,0.240,97.222,47.222,280.556,777.778,69.444,N
1188,0.110,1.865,0.305,100.000,47.222,288.889,805.556,27.778,N
1189,0.145,1.960,0.320,108.333,47.222,300.000,872.222,66.667,N
1190,0.090,1.955,0.365,111.111,50.000,300.000,952.778,80.556,N
1191,0.135,2.040,0.360,116.667,50.000,316.667,916.667,36.111,N
1192,0.255,2.145,0.375,122.222,52.778,319.444,994.444,77.778,N
1193,0.120,2.005,0.365,108.333,44.444,294.444,988.889,5.556,N
1194,0.210,2.040,0.430,111.111,47.222,294.444,902.778,86.111,N
1195,0.250,1.920,0.470,108.333,44.444,294.444,963.889,61.111,N
1196,0.115,1.855,0.285,116.667,75.000,338.889,1002.778,38.889,N
1197,-0.115,1.440,0.260,58.333,116.667,116.667,608.333,394.444,V
1198,0.205,2.005,0.375,111.111,47.222,308.333,1325.000,716.667,N
1199,0.155,-1.095,0.760,52.778,0.000,263.889,558.333,766.667,V
1200,0.195,1.900,0.320,91.667,44.444,286.111,1136.111,577.778,N
1201,0.030,1.915,0.260,100.000,47.222,305.556,827.778,308.333,N
1202,0.010,1.965,0.390,116.667,50.000,311.111,833.333,5.556,N
1203,0.005,1.655,0.380,113.889,47.222,305.556,936.111,102.778,N
1204,-0.195,1.045,0.350,197.222,102.778,350.000,550.000,386.111,V
1205,0.350,1.395,-0.345,188.889,116.667,405.556,483.333,66.667,V
1206,0.140,1.705,0.360,102.778,47.222,302.778,1283.333,800.000,N
1207,0.325,1.025,0.175,197.222,80.556,325.000,491.667,791.667,V
1208,0.065,1.685,0.375,88.889,44.444,283.333,1227.778,736.111,N
1209,0.225,1.085,0.640,197.222,86.111,322.222,494.444,733.333,V
1210,0.640,1.290,-0.320,191.667,113.889,397.222,458.333,36.111,V
1211,0.045,1.600,0.235,108.333,72.222,358.333,1300.000,841.667,N
1212,0.180,-1.285,0.870,61.111,2.778,269.444,555.556,744.444,V
1213,-0.055,1.610,0.275,111.111,47.222,294.444,1297.222,741.667,N
1214,0.215,2.255,-0.205,197.222,83.333,402.778,497.222,800.000,V
1215,0.200,1.955,0.565,86.111,47.222,291.667,1177.778,680.556,N
1216,0.395,2.295,-0.245,194.444,94.444,375.000,505.556,672.222,V
1217,0.175,1.815,0.500,88.889,50.000,316.667,1263.889,758.333,N
1218,0.245,2.435,-0.270,197.222,91.667,402.778,530.556,733.333,V
1219,0.225,1.935,0.615,111.111,52.778,308.333,1383.333,852.778,N
1220,0.465,2.445,-0.185,194.444,116.667,405.556,508.333,875.000,V
1221,0.225,1.845,0.545,86.111,69.444,319.444,1247.222,738.889,N
1222,0.350,2.340,-0.205,197.222,116.667,391.667,508.333,738.889,V
1223,0.160,1.700,0.505,108.333,50.000,297.222,1280.556,772.222,N
1224,0.295,2.290,-0.295,197.222,116.667,391.667,505.556,775.000,V
1225,0.235,1.810,0.565,108.333,50.000,308.333,1388.889,883.333,N
1226,0.360,2.310,-0.260,197.222,100.000,397.222,522.222,866.667,V
1227,0.360,1.735,0.620,102.778,66.667,322.222,1336.111,813.889,N
1228,0.545,1.955,-0.055,194.444,91.667,397.222,494.444,841.667,V
1229,-0.010,1.480,0.195,100.000,75.000,338.889,1255.556,761.111,N
1230,0.010,-1.425,0.925,55.556,0.000,255.556,547.222,708.333,V
1231,0.010,1.555,0.335,116.667,50.000,313.889,1352.778,805.556,N
1232,0.135,2.130,-0.530,58.333,113.889,405.556,555.556,797.222,V
1233,0.025,1.725,0.195,91.667,47.222,291.667,1277.778,722.222,N
1234,-0.020,1.805,0.330,94.444,47.222,286.111,961.111,316.667,N
1235,0.155,1.930,0.490,102.778,44.444,288.889,891.667,69.444,N
1236,-0.005,0.925,0.845,197.222,86.111,341.667,525.000,366.667,V
1237,0.695,1.515,-0.470,197.222,116.667,400.000,502.778,22.222,V
1238,0.090,1.775,0.385,108.333,52.778,322.222,1363.889,861.111,N
1239,0.210,-1.260,0.835,55.556,0.000,261.111,547.222,816.667,V
1240,0.035,1.885,0.330,108.333,47.222,305.556,1333.333,786.111,N
1241,-0.015,0.880,0.760,197.222,75.000,305.556,544.444,788.889,V
1242,0.755,1.535,-0.345,197.222,116.667,391.667,466.667,77.778,V
1243,0.070,1.750,0.265,97.222,44.444,300.000,1208.333,741.667,N
1244,0.185,-0.990,0.700,61.111,0.000,269.444,538.889,669.444,V
1245,0.035,1.815,0.310,94.444,50.000,333.333,1280.556,741.667,N
1246,-0.005,0.920,0.810,197.222,88.889,338.889,555.556,725.000,V
1247,-0.045,1.695,0.140,97.222,44.444,294.444,1283.333,727.778,N
1248,0.015,1.780,0.355,94.444,41.667,280.556,913.889,369.444,N
1249,-0.005,0.640,0.735,197.222,83.333,322.222,502.778,411.111,V
1250,-0.175,1.520,0.150,111.111,52.778,333.333,1227.778,725.000,N
1251,-0.130,1.585,0.270,108.333,50.000,327.778,952.778,275.000,N
1252,-0.270,0.700,0.710,58.333,113.889,338.889,575.000,377.778,V
1253,0.430,1.285,-0.560,197.222,116.667,405.556,519.444,55.556,V
1254,-0.090,1.575,0.095,111.111,47.222,294.444,1258.333,738.889,N
1255,-0.030,-1.010,0.470,55.556,2.778,258.333,544.444,713.889,V
1256,0.075,1.520,0.280,91.667,47.222,300.000,1200.000,655.556,N
1257,0.090,1.880,-0.395,194.444,113.889,402.778,513.889,686.111,V
1258,0.105,1.230,0.330,100.000,72.222,333.333,1247.222,733.333,N
1259,0.115,0.595,0.685,197.222,88.889,341.667,541.667,705.556,V
1260,-0.115,0.965,0.160,97.222,113.889,355.556,1322.222,780.556,N
1261,-0.085,0.960,0.230,111.111,100.000,319.444,966.667,355.556,N
1262,-0.040,0.390,0.650,194.444,97.222,311.111,511.111,455.556,V
1263,0.420,0.785,-0.360,197.222,116.667,402.778,494.444,16.667,V
1264,0.055,0.960,0.270,102.778,100.000,325.000,1269.444,775.000,N
1265,0.145,0.460,0.875,197.222,100.000,325.000,513.889,755.556,V
1266,-0.010,0.925,0.185,108.333,100.000,341.667,1369.444,855.556,N
1267,-0.035,0.940,0.280,102.778,113.889,336.111,1044.444,325.000,N
1268,-0.040,0.740,0.260,100.000,111.111,322.222,947.222,97.222,N
1269,-0.025,0.790,0.270,105.556,116.667,338.889,986.111,38.889,N
1270,-0.060,0.180,0.585,191.667,102.778,325.000,538.889,447.222,V
1271,0.040,0.805,0.310,108.333,102.778,341.667,1319.444,780.556,N
1272,-0.010,0.770,0.260,113.889,113.889,352.778,1075.000,244.444,N
1273,-0.140,0.660,0.205,100.000,113.889,341.667,997.222,77.778,N
1274,-0.080,0.715,0.180,113.889,113.889,325.000,1050.000,52.778,N
1275,-0.185,0.105,0.470,197.222,116.667,322.222,538.889,511.111,V
1276,-0.110,0.705,0.140,105.556,105.556,327.778,1252.778,713.889,N
1277,-0.160,0.765,0.235,113.889,113.889,358.333,975.000,277.778,N
1278,-0.165,0.235,0.615,194.444,116.667,363.889,580.556,394.444,V
1279,0.455,0.690,-0.110,197.222,113.889,113.889,533.333,47.222,V
1280,0.045,0.945,0.330,102.778,80.556,355.556,1341.667,808.333,N
1281,0.105,-0.585,0.720,58.333,2.778,258.333,555.556,786.111,V
1282,0.065,0.975,0.395,86.111,102.778,311.111,1211.111,655.556,N
1283,0.190,0.645,0.750,197.222,113.889,338.889,513.889,697.222,V
1284,0.100,1.095,0.480,111.111,100.000,391.667,1244.444,730.556,N
1285,0.115,0.570,0.700,197.222,102.778,341.667,619.444,625.000,V
1286,-0.010,0.905,0.395,91.667,88.889,327.778,1294.444,675.000,N
1287,0.085,1.055,0.435,102.778,100.000,322.222,947.222,347.222,N
1288,0.040,0.570,0.570,197.222,105.556,327.778,544.444,402.778,V
1289,0.505,0.855,-0.350,197.222,116.667,116.667,494.444,50.000,V
1290,-0.010,1.005,0.405,88.889,102.778,341.667,1216.667,722.222,N
1291,0.340,0.730,0.655,197.222,102.778,341.667,505.556,711.111,V
1292,-0.115,0.920,0.295,102.778,113.889,341.667,1286.111,780.556,N
1293,-0.005,1.005,0.380,105.556,75.000,327.778,922.222,363.889,N
1294,-0.030,0.680,0.650,194.444,111.111,352.778,550.000,372.222,V
1295,0.610,1.160,-0.255,197.222,116.667,377.778,508.333,41.667,V
1296,-0.075,0.935,0.260,94.444,58.333,305.556,1194.444,686.111,N
1297,0.220,0.820,0.470,194.444,86.111,311.111,480.556,713.889,V
1298,-0.070,1.175,0.270,119.444,83.333,355.556,1247.222,766.667,N
1299,0.085,0.795,0.420,197.222,111.111,350.000,536.111,711.111,V
1300,-0.045,1.130,0.355,91.667,80.556,344.444,1272.222,736.111,N
1301,0.135,1.835,-0.310,197.222,116.667,391.667,536.111,736.111,V
1302,-0.045,1.300,0.350,100.000,63.889,311.111,1236.111,700.000,N
1303,0.220,2.070,-0.310,197.222,116.667,391.667,500.000,736.111,V
1304,0.070,1.655,0.460,102.778,47.222,305.556,1163.889,663.889,N
1305,0.270,1.295,0.500,197.222,105.556,327.778,508.333,655.556,V
1306,0.015,1.705,0.420,91.667,44.444,311.111,1236.111,727.778,N
1307,0.135,2.185,-0.400,197.222,116.667,397.222,536.111,700.000,V
1308,0.120,1.965,0.550,94.444,47.222,297.222,1302.778,766.667,N
1309,0.395,2.240,-0.305,197.222,88.889,405.556,500.000,802.778,V
1310,0.105,1.890,0.525,88.889,44.444,288.889,1188.889,688.889,N
1311,0.410,2.195,-0.315,197.222,97.222,402.778,497.222,691.667,V
1312,0.025,1.825,0.405,108.333,50.000,325.000,1269.444,772.222,N
1313,0.160,2.195,-0.405,197.222,88.889,402.778,538.889,730.556,V
1314,0.085,1.910,0.505,91.667,47.222,305.556,1330.556,791.667,N
1315,0.245,2.180,-0.265,197.222,97.222,358.333,525.000,805.556,V
1316,0.065,1.745,0.425,102.778,47.222,302.778,1241.667,716.667,N
1317,0.295,2.140,-0.390,197.222,88.889,405.556,497.222,744.444,V
1318,-0.045,1.850,0.380,102.778,50.000,322.222,1266.667,769.444,N
1319,0.090,2.145,-0.460,197.222,91.667,391.667,544.444,722.222,V
1320,0.040,1.875,0.455,97.222,44.444,311.111,1283.333,738.889,N
1321,0.125,2.265,-0.360,58.333,91.667,402.778,541.667,741.667,V
1322,0.070,1.925,0.530,102.778,44.444,302.778,1263.889,722.222,N
1323,0.315,2.270,-0.365,197.222,86.111,391.667,508.333,755.556,V
1324,0.115,1.965,0.535,100.000,44.444,291.667,1219.444,711.111,N
1325,0.410,2.370,-0.375,197.222,116.667,377.778,500.000,719.444,V
1326,0.080,1.950,0.525,113.889,47.222,336.111,1291.667,791.667,N
1327,0.130,2.380,-0.450,197.222,91.667,405.556,555.556,736.111,V
1328,0.045,1.955,0.535,97.222,50.000,311.111,1300.000,744.444,N
1329,0.375,2.415,-0.295,197.222,100.000,386.111,508.333,791.667,V
1330,0.060,1.920,0.510,105.556,47.222,305.556,1236.111,727.778,N
1331,0.450,2.350,-0.330,194.444,88.889,397.222,488.889,747.222,V
1332,0.055,2.005,0.545,91.667,47.222,330.556,1250.000,761.111,N
1333,0.160,2.340,-0.245,197.222,100.000,355.556,547.222,702.778,V
1334,0.015,1.880,0.515,113.889,50.000,308.333,1311.111,763.889,N
1335,0.400,2.385,-0.285,197.222,91.667,405.556,511.111,800.000,V
1336,0.095,2.140,0.615,100.000,47.222,311.111,1252.778,741.667,N
1337,0.455,2.415,-0.290,197.222,94.444,366.667,508.333,744.444,V
1338,0.080,2.005,0.495,88.889,44.444,286.111,1197.222,688.889,N
1339,0.290,2.350,-0.365,197.222,100.000,402.778,500.000,697.222,V
1340,-0.045,1.945,0.440,111.111,47.222,308.333,1325.000,825.000,N
1341,0.180,2.380,-0.460,197.222,88.889,405.556,522.222,802.778,V
1342,-0.035,2.000,0.490,100.000,47.222,308.333,1280.556,758.333,N
1343,0.335,2.145,-0.210,197.222,94.444,325.000,513.889,766.667,V
1344,-0.085,1.935,0.480,100.000,41.667,297.222,1227.778,713.889,N
1345,0.275,2.480,-0.370,197.222,102.778,400.000,500.000,727.778,V
1346,0.175,2.140,0.655,116.667,47.222,327.778,1338.889,838.889,N
1347,0.290,2.570,-0.365,197.222,91.667,402.778,541.667,797.222,V
1348,0.045,2.045,0.505,91.667,44.444,311.111,1305.556,763.889,N
1349,0.355,2.410,-0.040,197.222,97.222,322.222,511.111,794.444,V
1350,0.080,2.100,0.585,86.111,44.444,291.667,1197.222,686.111,N
1351,0.375,1.665,0.785,197.222,105.556,311.111,508.333,688.889,V
1352,0.120,2.090,0.560,105.556,50.000,316.667,1227.778,719.444,N
1353,0.540,2.555,-0.195,58.333,116.667,361.111,541.667,686.111,V
1354,0.140,2.095,0.545,91.667,50.000,308.333,1241.667,700.000,N
1355,0.100,2.060,0.620,100.000,47.222,305.556,963.889,277.778,N
1356,0.150,2.200,0.675,102.778,44.444,286.111,963.889,0.000,N
1357,0.090,1.315,1.145,197.222,94.444,319.444,530.556,433.333,V
1358,0.155,2.035,0.610,102.778,44.444,300.000,1191.667,661.111,N
1359,0.175,2.085,0.575,111.111,47.222,311.111,938.889,252.778,N
1360,-0.015,1.940,0.590,116.667,50.000,322.222,988.889,50.000,N
1361,0.110,1.970,0.575,111.111,47.222,316.667,955.556,33.333,N
1362,-0.010,1.285,0.895,197.222,102.778,327.778,555.556,400.000,V
1363,0.090,1.955,0.430,102.778,44.444,294.444,1227.778,672.222,N
1364,0.005,1.910,0.495,105.556,47.222,305.556,963.889,263.889,N
1365,-0.020,2.000,0.465,113.889,47.222,305.556,963.889,0.000,N
1366,0.030,2.020,0.585,113.889,47.222,313.889,997.222,33.333,N
1367,-0.020,1.825,0.530,113.889,47.222,319.444,1008.333,11.111,N
1368,-0.025,1.885,0.520,100.000,47.222,297.222,991.667,16.667,N
1369,-0.005,1.870,0.540,108.333,47.222,283.333,958.333,33.333,N
1370,-0.045,1.880,0.535,108.333,47.222,297.222,1008.333,50.000,N
1371,-0.110,1.220,0.875,197.222,102.778,327.778,547.222,461.111,V
1372,0.095,1.965,0.615,111.111,47.222,327.778,1313.889,766.667,N
1373,0.060,1.845,0.600,119.444,50.000,319.444,1113.889,200.000,N
1374,0.025,1.785,0.545,105.556,47.222,313.889,1036.111,77.778,N
1375,0.050,1.830,0.595,105.556,44.444,297.222,1016.667,19.444,N
1376,-0.040,1.710,0.555,105.556,47.222,311.111,1016.667,0.000,N
1377,-0.020,1.210,0.895,197.222,105.556,338.889,538.889,477.778,V
1378,-0.005,1.715,0.450,113.889,50.000,327.778,1333.333,794.444,N
1379,-0.080,1.530,0.500,113.889,50.000,319.444,1075.000,258.333,N
1380,-0.085,1.070,0.755,197.222,108.333,350.000,566.667,508.333,V
1381,0.015,1.410,0.460,105.556,100.000,322.222,1266.667,700.000,N
1382,-0.115,1.190,0.395,102.778,66.667,322.222,1030.556,236.111,N
1383,-0.030,0.835,0.725,197.222,111.111,338.889,533.333,497.222,V
1384,0.170,1.295,0.680,105.556,105.556,344.444,1316.667,783.333,N
1385,0.160,0.865,0.525,197.222,111.111,363.889,569.444,747.222,V
1386,0.105,0.725,0.445,94.444,100.000,341.667,1272.222,702.778,N
1387,0.255,-0.200,0.370,30.556,2.778,291.667,611.111,661.111,V
1388,-0.190,0.770,0.380,97.222,108.333,336.111,1205.556,594.444,N
1389,0.110,0.605,0.385,197.222,113.889,325.000,522.222,683.333,V
1390,0.205,0.525,-0.450,58.333,116.667,400.000,511.111,11.111,V
1391,-0.135,0.760,0.340,91.667,97.222,355.556,1300.000,788.889,N
1392,0.180,0.685,0.520,197.222,111.111,338.889,552.778,747.222,V
1393,-0.125,0.815,0.425,116.667,116.667,344.444,1336.111,783.333,N
1394,0.230,0.645,0.470,194.444,102.778,327.778,522.222,813.889,V
1395,-0.120,0.750,0.440,97.222,113.889,327.778,1255.556,733.333,N
1396,0.315,1.280,-0.400,197.222,116.667,402.778,502.778,752.778,V
1397,0.010,0.880,0.535,97.222,113.889,361.111,1263.889,761.111,N
1398,0.260,0.815,0.330,197.222,100.000,344.444,550.000,713.889,V
1399,-0.130,0.715,0.390,108.333,108.333,341.667,1330.556,780.556,N
1400,0.210,1.150,-0.420,191.667,116.667,402.778,530.556,800.000,V
1401,0.015,0.935,0.470,108.333,102.778,327.778,1286.111,755.556,N
1402,0.330,0.845,0.400,197.222,108.333,327.778,502.778,783.333,V
1403,-0.090,0.815,0.355,105.556,111.111,338.889,1241.667,738.889,N
1404,0.265,1.215,-0.485,58.333,116.667,116.667,530.556,711.111,V
1405,-0.145,0.635,0.265,102.778,102.778,341.667,1302.778,772.222,N
1406,-0.170,0.740,0.345,111.111,113.889,358.333,1008.333,294.444,N
1407,-0.010,0.480,0.420,197.222,108.333,325.000,555.556,452.778,V
1408,-0.145,0.755,0.400,97.222,113.889,325.000,1197.222,641.667,N
1409,0.195,1.315,-0.420,197.222,113.889,402.778,508.333,688.889,V
1410,0.000,0.770,0.490,100.000,80.556,355.556,1241.667,733.333,N
1411,0.085,0.745,0.375,197.222,116.667,361.111,566.667,675.000,V
1412,-0.120,0.805,0.365,88.889,100.000,344.444,1205.556,638.889,N
1413,0.090,0.740,0.485,197.222,105.556,341.667,558.333,647.222,V
1414,-0.065,0.855,0.425,102.778,100.000,325.000,1091.667,533.333,N
1415,0.180,0.635,0.335,197.222,102.778,327.778,522.222,569.444,V
1416,-0.035,0.850,0.410,94.444,97.222,341.667,1186.111,663.889,N
1417,-0.090,0.810,0.415,100.000,113.889,338.889,919.444,266.667,N
1418,0.005,0.640,0.325,197.222,113.889,341.667,552.778,366.667,V
1419,-0.120,0.785,0.365,108.333,83.333,355.556,1288.889,736.111,N
1420,-0.045,0.780,0.350,58.333,111.111,355.556,580.556,708.333,V
1421,-0.185,0.850,0.360,100.000,72.222,322.222,1288.889,708.333,N
1422,0.185,1.450,-0.415,194.444,116.667,402.778,497.222,791.667,V
1423,0.035,0.980,0.590,86.111,66.667,322.222,1197.222,700.000,N
1424,0.280,0.875,0.595,197.222,108.333,338.889,530.556,666.667,V
1425,0.315,1.385,1.145,108.333,86.111,366.667,1308.333,777.778,N
1426,0.185,0.920,0.510,108.333,72.222,327.778,1000.000,308.333,N
1427,0.050,0.770,0.105,197.222,102.778,330.556,552.778,447.222,V
1428,-0.280,0.635,0.300,97.222,77.778,341.667,1233.333,680.556,N
1429,-0.270,0.810,0.430,100.000,80.556,327.778,969.444,263.889,N
1430,-0.015,0.955,0.290,197.222,102.778,355.556,533.333,436.111,V
1431,-0.235,0.800,0.375,111.111,77.778,338.889,1350.000,816.667,N
1432,0.015,1.055,0.220,197.222,105.556,358.333,547.222,802.778,V
1433,-0.095,1.005,0.585,111.111,83.333,341.667,1372.222,825.000,N
1434,0.165,1.305,0.090,197.222,108.333,350.000,541.667,830.556,V
1435,-0.040,1.110,0.600,105.556,72.222,325.000,1266.667,725.000,N
1436,0.270,1.330,0.345,197.222,102.778,341.667,525.000,741.667,V
1437,-0.005,1.175,0.665,105.556,83.333,355.556,1319.444,794.444,N
1438,0.305,1.705,-0.410,197.222,116.667,116.667,558.333,761.111,V
1439,0.070,1.340,0.710,100.000,66.667,338.889,1355.556,797.222,N
1440,0.245,1.695,0.145,197.222,113.889,358.333,550.000,805.556,V
1441,0.045,1.460,0.655,102.778,66.667,319.444,1252.778,702.778,N
1442,0.445,2.105,-0.265,194.444,116.667,402.778,505.556,747.222,V
1443,0.185,1.605,0.785,111.111,75.000,361.111,1297.222,791.667,N
1444,0.240,2.200,-0.305,197.222,86.111,400.000,572.222,725.000,V
1445,0.190,1.680,0.805,102.778,52.778,322.222,1325.000,752.778,N
1446,0.340,2.025,0.265,197.222,111.111,355.556,550.000,775.000,V
1447,0.025,1.510,0.530,105.556,69.444,325.000,1286.111,736.111,N
1448,0.335,1.055,0.960,197.222,83.333,316.667,513.889,772.222,V
1449,-0.060,1.680,0.310,86.111,47.222,305.556,1200.000,686.111,N
1450,-0.120,1.850,0.375,111.111,47.222,330.556,905.556,294.444,N
1451,-0.080,1.970,0.390,100.000,50.000,322.222,977.778,72.222,N
1452,-0.170,0.895,0.920,197.222,77.778,344.444,563.889,413.889,V
1453,-0.055,2.195,0.425,111.111,47.222,308.333,1347.222,783.333,N
1454,-0.055,2.090,0.525,108.333,44.444,283.333,977.778,369.444,N
1455,0.040,2.140,0.590,105.556,47.222,300.000,930.556,47.222,N
1456,0.020,2.160,0.505,119.444,52.778,338.889,1044.444,113.889,N
1457,-0.100,1.990,0.465,122.222,50.000,325.000,1136.111,91.667,N
1458,-0.060,1.935,0.495,113.889,44.444,311.111,1058.333,77.778,N
1459,0.020,2.120,0.585,105.556,44.444,297.222,1083.333,25.000,N
1460,0.100,2.180,0.630,108.333,41.667,294.444,1066.667,16.667,N
1461,0.025,2.140,0.520,111.111,44.444,297.222,1066.667,0.000,N
1462,0.055,2.120,0.525,119.444,47.222,316.667,1027.778,38.889,N
1463,0.095,2.195,0.580,116.667,44.444,311.111,1094.444,66.667,N
1464,0.060,2.220,0.540,122.222,52.778,313.889,1097.222,2.778,N
1465,0.070,2.195,0.545,113.889,47.222,294.444,1061.111,36.111,N
1466,-0.065,2.100,0.495,108.333,47.222,294.444,1025.000,36.111,N
1467,0.010,2.150,0.555,113.889,47.222,302.778,1041.667,16.667,N
1468,-0.025,2.150,0.575,116.667,47.222,327.778,1155.556,113.889,N
1469,-0.035,2.140,0.465,116.667,47.222,316.667,1127.778,27.778,N
1470,-0.055,2.030,0.465,108.333,47.222,316.667,1069.444,58.333,N
1471,-0.060,2.095,0.440,111.111,44.444,297.222,1016.667,52.778,N
1472,0.050,2.275,0.430,116.667,44.444,308.333,1088.889,72.222,N
1473,-0.080,2.150,0.455,122.222,52.778,325.000,1122.222,33.333,N
1474,-0.075,2.045,0.425,119.444,50.000,316.667,1047.222,75.000,N
1475,-0.075,2.070,0.370,119.444,47.222,305.556,1072.222,25.000,N
1476,-0.050,2.015,0.385,111.111,44.444,297.222,1022.222,50.000,N
1477,-0.160,2.025,0.340,108.333,41.667,308.333,1052.778,30.556,N
1478,-0.050,2.000,0.370,108.333,47.222,313.889,1058.333,5.556,N
1479,-0.040,2.035,0.365,116.667,52.778,338.889,1066.667,8.333,N
1480,-0.005,2.105,0.385,119.444,50.000,327.778,1111.111,44.444,N
1481,0.020,1.985,0.430,116.667,44.444,313.889,991.667,119.444,N
1482,-0.060,1.970,0.305,111.111,47.222,308.333,972.222,19.444,N
1483,-0.110,1.940,0.380,108.333,44.444,302.778,1075.000,102.778,N
1484,0.060,2.050,0.210,119.444,47.222,322.222,1077.778,2.778,N
1485,-0.130,2.030,0.355,116.667,50.000,330.556,1033.333,44.444,N
1486,0.010,2.225,0.455,119.444,50.000,325.000,1066.667,33.333,N
1487,0.075,2.190,0.440,116.667,44.444,305.556,1019.444,47.222,N
1488,0.020,2.175,0.255,113.889,47.222,311.111,1013.889,5.556,N
1489,-0.020,2.185,0.430,113.889,44.444,300.000,961.111,52.778,N
1490,0.000,2.215,0.505,113.889,47.222,319.444,988.889,27.778,N
1491,0.100,2.335,0.610,119.444,50.000,344.444,1088.889,100.000,N
1492,0.140,2.350,0.550,116.667,47.222,322.222,1158.333,69.444,N
1493,0.120,2.335,0.665,113.889,47.222,313.889,1130.556,27.778,N
1494,0.165,2.335,0.640,111.111,47.222,308.333,1108.333,22.222,N
1495,0.135,2.205,0.495,113.889,44.444,311.111,1108.333,0.000,N
1496,0.125,2.190,0.530,125.000,50.000,336.111,1116.667,8.333,N
1497,0.085,2.180,0.525,122.222,47.222,322.222,1127.778,11.111,N
1498,0.125,2.165,0.440,113.889,44.444,311.111,1091.667,36.111,N
1499,0.020,2.085,0.520,105.556,44.444,300.000,1044.444,47.222,N
1500,0.010,2.070,0.450,108.333,44.444,311.111,1005.556,38.889,N
1501,0.055,1.980,0.450,116.667,47.222,322.222,1105.556,100.000,N
1502,-0.010,1.800,0.420,122.222,52.778,333.333,1122.222,16.667,N
1503,-0.105,1.500,0.290,111.111,105.556,355.556,1086.111,36.111,N
1504,-0.110,1.490,0.320,111.111,113.889,341.667,1155.556,69.444,N
1505,-0.095,1.315,0.300,105.556,100.000,322.222,1022.222,133.333,N
1506,-0.165,1.120,0.235,105.556,116.667,336.111,1016.667,5.556,N
1507,-0.125,1.045,0.275,111.111,97.222,341.667,1075.000,58.333,N
1508,-0.120,1.020,0.270,108.333,105.556,358.333,1127.778,52.778,N
1509,-0.125,1.050,0.385,111.111,113.889,344.444,1155.556,27.778,N
1510,-0.085,0.985,0.305,108.333,100.000,325.000,1013.889,141.667,N
1511,-0.035,0.935,0.325,113.889,113.889,341.667,1086.111,72.222,N
1512,-0.060,0.975,0.285,116.667,113.889,355.556,1086.111,0.000,N
1513,-0.180,0.865,0.290,116.667,113.889,352.778,1138.889,52.778,N
1514,-0.130,0.780,0.210,108.333,108.333,344.444,1019.444,119.444,N
1515,-0.235,0.740,0.170,113.889,113.889,338.889,1008.333,11.111,N
1516,-0.215,0.790,0.200,102.778,116.667,341.667,1019.444,11.111,N
1517,-0.110,0.865,0.265,105.556,113.889,341.667,1000.000,19.444,N
1518,-0.100,0.805,0.215,102.778,113.889,352.778,936.111,63.889,N
1519,-0.145,0.735,0.120,111.111,113.889,361.111,1008.333,72.222,N
1520,-0.235,0.805,0.100,111.111,105.556,350.000,1080.556,72.222,N
1521,-0.170,0.820,0.185,111.111,102.778,327.778,1033.333,47.222,N
1522,-0.190,0.845,0.210,102.778,116.667,338.889,958.333,75.000,N
1523,-0.115,0.875,0.235,105.556,113.889,336.111,1002.778,44.444,N
1524,-0.155,0.855,0.200,111.111,111.111,358.333,975.000,27.778,N
1525,-0.100,1.035,0.255,119.444,116.667,355.556,1122.222,147.222,N
1526,-0.080,0.985,0.285,116.667,102.778,344.444,1022.222,100.000,N
1527,-0.135,0.955,0.190,105.556,105.556,341.667,1036.111,13.889,N
1528,-0.160,1.090,0.255,105.556,113.889,338.889,1061.111,25.000,N
1529,-0.080,1.165,0.370,111.111,100.000,341.667,988.889,72.222,N
1530,-0.040,1.195,0.295,119.444,102.778,341.667,1077.778,88.889,N
1531,-0.120,1.195,0.280,113.889,116.667,361.111,1094.444,16.667,N
1532,-0.050,1.245,0.405,113.889,116.667,344.444,1002.778,91.667,N
1533,-0.035,1.355,0.320,105.556,116.667,338.889,969.444,33.333,N
1534,-0.015,1.375,0.350,113.889,94.444,319.444,994.444,25.000,N
1535,0.000,1.370,0.380,111.111,105.556,344.444,1000.000,5.556,N
1536,-0.035,1.430,0.350,119.444,83.333,341.667,1055.556,55.556,N
1537,-0.165,1.365,0.195,111.111,83.333,338.889,1091.667,36.111,N
1538,-0.145,1.410,0.185,111.111,86.111,325.000,1063.889,27.778,N
1539,-0.090,1.520,0.300,108.333,72.222,338.889,1002.778,61.111,N
1540,-0.065,1.675,0.305,108.333,83.333,308.333,941.667,61.111,N
1541,-0.040,1.790,0.230,116.667,50.000,336.111,969.444,27.778,N
1542,-0.095,1.795,0.220,105.556,50.000,338.889,1000.000,30.556,N
1543,-0.105,1.885,0.235,113.889,47.222,330.556,1038.889,38.889,N
1544,-0.025,2.035,0.300,113.889,50.000,316.667,1086.111,47.222,N
1545,0.025,2.055,0.375,108.333,44.444,302.778,991.667,94.444,N
1546,0.010,2.035,0.275,105.556,44.444,305.556,1000.000,8.333,N
1547,-0.050,1.955,0.265,111.111,47.222,336.111,1052.778,52.778,N
1548,0.020,1.995,0.310,113.889,47.222,347.222,1072.222,19.444,N
1549,0.080,2.105,0.375,119.444,50.000,330.556,1088.889,16.667,N
1550,0.125,2.100,0.455,111.111,44.444,311.111,1063.889,25.000,N
1551,0.065,1.970,0.335,108.333,41.667,297.222,997.222,66.667,N
1552,0.005,1.970,0.250,111.111,47.222,325.000,955.556,41.667,N
1553,-0.035,1.920,0.200,108.333,47.222,319.444,941.667,13.889,N
1554,-0.045,1.920,0.310,100.000,47.222,327.778,988.889,47.222,N
1555,-0.035,1.845,0.175,113.889,47.222,316.667,980.556,8.333,N
1556,0.100,1.905,0.220,111.111,44.444,311.111,1019.444,38.889,N
1557,0.020,1.935,0.280,111.111,44.444,305.556,1008.333,11.111,N
1558,-0.005,1.885,0.220,111.111,44.444,311.111,941.667,66.667,N
1559,0.010,1.915,0.225,119.444,44.444,327.778,1016.667,75.000,N
1560,-0.060,1.880,0.150,119.444,50.000,336.111,1097.222,80.556,N
1561,-0.075,1.905,0.160,116.667,44.444,322.222,1044.444,52.778,N
1562,-0.075,1.925,0.185,119.444,47.222,322.222,1050.000,5.556,N
1563,-0.025,1.935,0.250,105.556,44.444,305.556,1000.000,50.000,N
1564,-0.070,1.905,0.215,111.111,47.222,316.667,955.556,44.444,N
1565,-0.040,1.960,0.210,119.444,50.000,338.889,1027.778,72.222,N
1566,-0.070,1.915,0.280,125.000,50.000,341.667,1111.111,83.333,N
1567,0.025,2.055,0.320,113.889,47.222,327.778,1116.667,5.556,N
1568,0.090,2.095,0.365,111.111,44.444,308.333,1100.000,16.667,N
1569,-0.015,1.990,0.290,111.111,47.222,322.222,1038.889,61.111,N
1570,0.040,2.035,0.325,116.667,44.444,333.333,1133.333,94.444,N
1571,0.110,2.030,0.365,119.444,44.444,322.222,1133.333,0.000,N
1572,0.060,2.050,0.360,119.444,50.000,319.444,1136.111,2.778,N
1573,0.065,2.075,0.420,111.111,47.222,313.889,1102.778,33.333,N
1574,0.010,2.005,0.295,108.333,44.444,308.333,1022.222,80.556,N
1575,0.030,1.990,0.360,111.111,47.222,316.667,1041.667,19.444,N
1576,0.075,2.070,0.405,116.667,47.222,327.778,1058.333,16.667,N
1577,0.010,2.000,0.320,125.000,50.000,338.889,1108.333,50.000,N
1578,0.015,2.025,0.350,113.889,47.222,330.556,1172.222,63.889,N
1579,-0.060,1.945,0.290,108.333,44.444,305.556,1061.111,111.111,N
1580,-0.010,2.000,0.350,108.333,44.444,300.000,1086.111,25.000,N
1581,0.065,2.105,0.435,111.111,44.444,316.667,1066.667,19.444,N
1582,0.045,2.075,0.405,116.667,47.222,330.556,1102.778,36.111,N
1583,0.105,2.140,0.405,116.667,47.222,327.778,1150.000,47.222,N
1584,0.145,2.160,0.455,113.889,47.222,319.444,1083.333,66.667,N
1585,0.070,2.160,0.465,111.111,44.444,297.222,1069.444,13.889,N
1586,0.080,2.195,0.465,105.556,47.222,319.444,972.222,97.222,N
1587,0.165,2.230,0.435,113.889,44.444,325.000,1097.222,125.000,N
1588,0.160,2.280,0.610,116.667,47.222,330.556,1113.889,16.667,N
1589,0.245,2.085,0.560,111.111,72.222,347.222,1044.444,69.444,N
1590,0.170,1.795,0.700,111.111,77.778,361.111,969.444,75.000,N
1591,0.125,1.770,0.570,111.111,44.444,305.556,869.444,100.000,N
1592,0.045,1.960,0.370,97.222,41.667,302.778,863.889,5.556,N
1593,0.100,1.990,0.740,105.556,50.000,361.111,844.444,19.444,N
1594,0.180,1.895,0.530,122.222,52.778,305.556,886.111,41.667,N
1595,0.060,1.590,0.475,108.333,47.222,327.778,875.000,11.111,N
1596,0.010,1.565,0.390,116.667,50.000,316.667,836.111,38.889,N
1597,-0.050,1.645,0.365,119.444,44.444,319.444,830.556,5.556,N
1598,-0.060,1.730,0.330,94.444,41.667,297.222,811.111,19.444,N
1599,0.045,1.760,0.345,100.000,44.444,291.667,838.889,27.778,N
1600,0.070,1.795,0.225,108.333,58.333,322.222,838.889,0.000,N
1601,-0.045,1.645,0.255,116.667,52.778,327.778,863.889,25.000,N
1602,-0.090,1.540,0.330,108.333,44.444,316.667,838.889,25.000,N
1603,-0.030,1.660,0.305,113.889,47.222,330.556,855.556,16.667,N
1604,-0.075,1.575,0.285,97.222,44.444,302.778,905.556,50.000,N
1605,0.005,0.535,0.720,188.889,83.333,330.556,519.444,386.111,V
1606,-0.010,1.585,0.350,94.444,63.889,319.444,1186.111,666.667,N
1607,0.060,1.655,0.355,102.778,50.000,319.444,872.222,313.889,N
1608,0.055,0.630,0.690,197.222,108.333,366.667,544.444,327.778,V
1609,0.070,1.660,0.375,102.778,47.222,355.556,1277.778,733.333,N
1610,0.095,1.720,0.440,108.333,47.222,322.222,969.444,308.333,N
1611,0.185,0.665,0.710,191.667,80.556,341.667,522.222,447.222,V
1612,0.140,1.705,0.475,105.556,44.444,308.333,1186.111,663.889,N
1613,0.585,-1.390,0.725,36.111,2.778,252.778,552.778,633.333,V
1614,-0.110,1.265,0.120,91.667,69.444,355.556,1172.222,619.444,N
1615,-0.120,-1.640,0.525,50.000,0.000,277.778,586.111,586.111,V
1616,-0.085,1.230,0.280,94.444,69.444,355.556,1202.778,616.667,N
1617,0.130,0.490,0.530,197.222,83.333,358.333,533.333,669.444,V
1618,0.530,0.870,-0.040,183.333,116.667,116.667,491.667,41.667,V
1619,-0.185,1.270,0.250,55.556,77.778,358.333,1247.222,755.556,N
1620,0.250,0.670,0.575,172.222,83.333,313.889,475.000,772.222,V
1621,-0.020,1.205,0.285,108.333,72.222,358.333,1269.444,794.444,N
1622,0.240,0.550,0.565,194.444,94.444,355.556,511.111,758.333,V
1623,-0.090,1.005,0.235,108.333,66.667,352.778,1305.556,794.444,N
1624,0.180,0.430,0.580,197.222,91.667,358.333,538.889,766.667,V
1625,-0.115,0.865,0.175,88.889,97.222,325.000,1258.333,719.444,N
1626,0.145,0.345,0.460,188.889,91.667,338.889,480.556,777.778,V
1627,-0.145,0.745,0.190,102.778,100.000,325.000,1166.667,686.111,N
1628,0.145,0.290,0.355,197.222,113.889,341.667,497.222,669.444,V
1629,-0.120,0.715,0.240,105.556,102.778,375.000,1338.889,841.667,N
1630,0.190,0.945,-0.200,194.444,105.556,377.778,552.778,786.111,V
1631,0.065,0.815,0.420,105.556,100.000,341.667,1280.556,727.778,N
1632,0.380,1.055,-0.125,197.222,116.667,394.444,508.333,772.222,V
1633,0.025,0.815,0.390,94.444,102.778,327.778,1247.222,738.889,N
1634,0.390,1.090,-0.110,197.222,113.889,394.444,486.111,761.111,V
1635,0.095,0.860,0.435,113.889,113.889,355.556,1269.444,783.333,N
1636,0.355,1.110,-0.095,197.222,116.667,394.444,533.333,736.111,V
1637,0.115,0.750,0.365,105.556,102.778,358.333,1305.556,772.222,N
1638,0.300,1.160,-0.255,191.667,116.667,116.667,536.111,769.444,V
1639,0.020,0.710,0.350,88.889,102.778,325.000,1183.333,647.222,N
1640,0.335,1.220,-0.280,197.222,116.667,394.444,488.889,694.444,V
1641,-0.020,0.655,0.300,94.444,111.111,341.667,1130.556,641.667,N
1642,0.240,1.055,-0.350,197.222,116.667,405.556,508.333,622.222,V
1643,-0.005,0.775,0.340,116.667,116.667,358.333,1263.889,755.556,N
1644,0.265,0.965,-0.180,197.222,116.667,377.778,530.556,733.333,V
1645,-0.065,0.655,0.265,91.667,108.333,338.889,1280.556,750.000,N
1646,0.260,1.090,-0.250,197.222,116.667,405.556,488.889,791.667,V
1647,-0.095,0.685,0.240,97.222,113.889,341.667,1213.889,725.000,N
1648,0.200,1.025,-0.250,191.667,113.889,402.778,491.667,722.222,V
1649,0.055,0.860,0.425,105.556,105.556,344.444,1283.333,791.667,N
1650,0.275,1.160,-0.150,197.222,111.111,400.000,536.111,747.222,V
1651,0.095,0.855,0.350,111.111,100.000,355.556,1316.667,780.556,N
1652,0.295,1.300,-0.215,197.222,116.667,116.667,525.000,791.667,V
1653,0.015,0.965,0.330,100.000,100.000,325.000,1233.333,708.333,N
1654,0.315,1.340,-0.110,186.111,116.667,405.556,486.111,747.222,V
1655,0.210,1.105,0.510,94.444,108.333,355.556,1144.444,658.333,N
1656,0.425,0.640,0.505,197.222,116.667,344.444,519.444,625.000,V
1657,0.150,1.155,0.450,97.222,111.111,355.556,1250.000,730.556,N
1658,0.385,1.235,0.035,194.444,105.556,366.667,527.778,722.222,V
1659,0.120,1.205,0.345,100.000,116.667,341.667,1205.556,677.778,N
1660,0.345,1.365,-0.090,197.222,116.667,388.889,486.111,719.444,V
1661,0.230,1.290,0.460,91.667,108.333,336.111,1077.778,591.667,N
1662,0.445,0.545,0.625,197.222,113.889,338.889,502.778,575.000,V
1663,0.035,1.110,0.310,111.111,105.556,347.222,1227.778,725.000,N
1664,0.205,1.020,0.070,188.889,108.333,338.889,513.889,713.889,V
1665,0.025,1.120,0.180,102.778,94.444,336.111,1280.556,766.667,N
1666,0.170,1.295,-0.255,197.222,113.889,402.778,511.111,769.444,V
1667,0.040,1.270,0.320,94.444,83.333,297.222,1197.222,686.111,N
1668,0.255,0.440,0.610,197.222,113.889,327.778,500.000,697.222,V
1669,0.005,1.200,0.245,108.333,100.000,338.889,1280.556,780.556,N
1670,0.340,-1.185,0.885,41.667,2.778,258.333,550.000,730.556,V
1671,0.010,1.270,0.195,119.444,88.889,325.000,1294.444,744.444,N
1672,0.095,0.525,0.335,194.444,113.889,338.889,536.111,758.333,V
1673,-0.020,1.330,0.230,97.222,113.889,325.000,1225.000,688.889,N
1674,0.155,1.045,-0.015,197.222,102.778,327.778,502.778,722.222,V
1675,0.010,1.510,0.215,100.000,83.333,308.333,1186.111,683.333,N
1676,0.455,-1.420,0.955,38.889,0.000,247.222,533.333,652.778,V
1677,-0.045,1.615,0.155,119.444,52.778,338.889,1238.889,705.556,N
1678,0.040,1.845,0.365,113.889,50.000,325.000,925.000,313.889,N
1679,0.100,0.545,1.150,197.222,97.222,352.778,536.111,388.889,V
1680,0.625,1.240,-0.365,197.222,116.667,375.000,530.556,5.556,V
1681,0.120,2.065,0.330,94.444,44.444,311.111,1250.000,719.444,N
1682,0.840,-1.810,1.120,30.556,0.000,222.222,513.889,736.111,V
1683,-0.005,1.940,0.185,91.667,47.222,305.556,1205.556,691.667,N
1684,0.030,1.975,0.420,113.889,47.222,319.444,891.667,313.889,N
1685,0.015,0.750,1.215,197.222,97.222,355.556,544.444,347.222,V
1686,0.980,1.425,-0.355,197.222,116.667,380.556,522.222,22.222,V
1687,0.120,2.075,0.275,105.556,47.222,319.444,1297.222,775.000,N
1688,0.275,0.835,1.115,194.444,83.333,308.333,486.111,811.111,V
1689,0.095,2.060,0.260,91.667,41.667,297.222,1216.667,730.556,N
1690,0.235,0.855,1.070,197.222,86.111,327.778,486.111,730.556,V
1691,0.035,2.095,0.285,116.667,52.778,344.444,1269.444,783.333,N
1692,0.060,0.690,1.045,197.222,94.444,355.556,566.667,702.778,V
1693,0.010,1.920,0.200,91.667,44.444,311.111,1280.556,713.889,N
1694,0.660,-1.830,1.025,36.111,2.778,238.889,552.778,727.778,V
1695,0.010,1.805,0.395,88.889,44.444,277.778,1180.556,627.778,N
1696,0.220,0.970,0.535,194.444,69.444,316.667,497.222,683.333,V
1697,-0.040,1.585,0.395,108.333,50.000,319.444,1150.000,652.778,N
1698,0.085,0.765,0.575,197.222,88.889,361.111,550.000,600.000,V
1699,0.575,1.135,-0.290,194.444,113.889,405.556,497.222,52.778,V
1700,0.165,1.740,0.385,97.222,80.556,344.444,1294.444,797.222,N
1701,0.355,0.940,0.805,197.222,83.333,327.778,505.556,788.889,V
1702,0.080,1.765,0.395,100.000,44.444,302.778,1263.889,758.333,N
1703,0.310,1.835,-0.195,191.667,97.222,402.778,488.889,775.000,V
1704,0.210,1.945,0.560,105.556,50.000,308.333,1163.889,675.000,N
1705,0.445,0.985,0.695,197.222,86.111,341.667,502.778,661.111,V
1706,-0.050,1.635,0.320,105.556,50.000,322.222,1283.333,780.556,N
1707,0.145,1.720,-0.245,197.222,100.000,402.778,530.556,752.778,V
1708,0.115,1.780,0.420,97.222,44.444,305.556,1211.111,680.556,N
1709,0.365,1.620,-0.100,197.222,100.000,327.778,500.000,711.111,V
1710,0.040,1.650,0.330,91.667,47.222,297.222,1177.778,677.778,N
1711,0.250,1.265,0.080,197.222,97.222,330.556,494.444,683.333,V
1712,0.075,1.855,0.455,97.222,50.000,333.333,1227.778,733.333,N
1713,0.240,1.505,-0.020,197.222,97.222,352.778,538.889,688.889,V
1714,-0.020,1.690,0.345,94.444,44.444,308.333,1227.778,688.889,N
1715,0.170,1.975,-0.225,197.222,100.000,405.556,522.222,705.556,V
1716,0.145,1.795,0.510,108.333,44.444,297.222,1155.556,633.333,N
1717,0.435,1.920,-0.200,197.222,102.778,358.333,491.667,663.889,V
1718,0.055,1.695,0.340,105.556,47.222,300.000,1172.222,680.556,N
1719,0.180,0.875,0.725,197.222,86.111,338.889,516.667,655.556,V
1720,0.010,1.795,0.380,105.556,50.000,319.444,1269.444,752.778,N
1721,0.185,1.955,-0.280,197.222,105.556,394.444,538.889,730.556,V
1722,0.115,1.785,0.380,105.556,47.222,305.556,1275.000,736.111,N
1723,0.225,0.910,0.775,197.222,88.889,322.222,513.889,761.111,V
1724,0.085,1.875,0.450,102.778,44.444,305.556,1216.667,702.778,N
1725,0.245,2.205,-0.285,197.222,102.778,394.444,511.111,705.556,V
1726,0.190,1.895,0.525,102.778,50.000,325.000,1275.000,763.889,N
1727,0.245,2.120,-0.185,197.222,102.778,391.667,544.444,730.556,V
1728,0.180,1.920,0.510,108.333,52.778,322.222,1308.333,763.889,N
1729,0.385,2.215,-0.220,197.222,100.000,391.667,522.222,786.111,V
1730,0.120,1.930,0.500,100.000,47.222,308.333,1172.222,650.000,N
1731,0.325,1.685,0.090,197.222,100.000,327.778,508.333,663.889,V
1732,-0.015,1.690,0.305,100.000,50.000,322.222,1277.778,769.444,N
1733,0.960,-1.580,0.460,36.111,2.778,241.667,558.333,719.444,V
1734,0.040,1.890,0.415,102.778,50.000,325.000,1272.222,713.889,N
1735,0.280,1.785,-0.180,197.222,97.222,341.667,527.778,744.444,V
1736,-0.020,1.665,0.350,100.000,47.222,305.556,1238.889,711.111,N
1737,0.120,-0.905,0.830,55.556,2.778,258.333,555.556,683.333,V
1738,0.070,1.740,0.440,108.333,47.222,300.000,1166.667,611.111,N
1739,0.295,0.710,0.505,197.222,86.111,338.889,505.556,661.111,V
1740,0.060,1.695,0.400,108.333,52.778,336.111,1313.889,808.333,N
1741,0.100,0.850,0.770,197.222,91.667,347.222,563.889,750.000,V
1742,-0.075,1.715,0.395,100.000,47.222,291.667,1311.111,747.222,N
1743,0.240,0.855,0.775,197.222,91.667,336.111,505.556,805.556,V
1744,0.510,1.075,-0.530,197.222,116.667,400.000,505.556,0.000,V
1745,0.030,2.070,0.490,91.667,52.778,322.222,1230.556,725.000,N
1746,0.275,1.445,0.715,197.222,86.111,336.111,525.000,705.556,V
1747,0.100,2.100,0.725,102.778,50.000,325.000,1286.111,761.111,N
1748,0.360,1.350,0.925,194.444,83.333,347.222,555.556,730.556,V
1749,0.925,1.570,-0.110,197.222,116.667,116.667,491.667,63.889,V
1750,0.220,1.755,0.590,105.556,77.778,330.556,1308.333,816.667,N
1751,0.535,1.555,0.440,194.444,75.000,308.333,500.000,808.333,V
1752,0.110,1.870,0.560,108.333,75.000,341.667,1302.778,802.778,N
1753,0.355,1.075,0.700,197.222,86.111,344.444,516.667,786.111,V
1754,0.670,1.485,-0.240,197.222,116.667,400.000,494.444,22.222,V
1755,0.030,1.800,0.365,111.111,50.000,336.111,1433.333,938.889,N
1756,0.015,1.765,0.430,111.111,75.000,341.667,1072.222,361.111,N
1757,-0.005,1.875,0.575,105.556,47.222,302.778,977.778,94.444,N
1758,0.040,1.025,0.830,197.222,83.333,322.222,527.778,450.000,V
1759,0.830,1.530,-0.330,194.444,116.667,363.889,461.111,66.667,V
1760,0.105,1.825,0.425,111.111,75.000,361.111,1350.000,888.889,N
1761,-0.020,1.815,0.525,125.000,66.667,341.667,1158.333,191.667,N
1762,0.055,1.245,0.805,197.222,83.333,333.333,563.889,594.444,V
1763,0.540,1.475,-0.470,197.222,116.667,405.556,500.000,63.889,V
1764,0.015,1.620,0.475,108.333,72.222,330.556,1336.111,836.111,N
1765,0.420,0.925,0.715,197.222,86.111,327.778,494.444,841.667,V
1766,0.685,1.260,-0.385,197.222,116.667,116.667,475.000,19.444,V
1767,0.050,1.275,0.305,108.333,72.222,341.667,1355.556,880.556,N
1768,-0.005,1.145,0.300,113.889,113.889,338.889,1091.667,263.889,N
1769,-0.155,0.935,0.280,113.889,113.889,344.444,963.889,127.778,N
1770,-0.055,1.045,0.415,111.111,108.333,338.889,1013.889,50.000,N
1771,0.000,0.405,0.700,197.222,91.667,336.111,541.667,472.222,V
1772,0.685,0.855,-0.320,197.222,116.667,358.333,480.556,61.111,V
1773,-0.005,0.870,0.265,100.000,116.667,341.667,1283.333,802.778,N
1774,-0.020,0.900,0.370,111.111,113.889,358.333,1097.222,186.111,N
1775,-0.050,0.895,0.350,119.444,116.667,358.333,1138.889,41.667,N
1776,-0.110,0.815,0.280,108.333,113.889,336.111,1102.778,36.111,N
1777,-0.085,0.865,0.405,102.778,113.889,338.889,1063.889,38.889,N
1778,-0.045,0.905,0.420,113.889,113.889,338.889,1147.222,83.333,N
1779,-0.085,0.840,0.360,116.667,105.556,350.000,1055.556,91.667,N
1780,-0.145,0.720,0.245,113.889,111.111,338.889,991.667,63.889,N
1781,-0.170,0.715,0.295,122.222,113.889,352.778,1025.000,33.333,N
1782,-0.135,0.785,0.340,108.333,113.889,338.889,1116.667,91.667,N
1783,-0.120,0.815,0.360,108.333,100.000,322.222,1005.556,111.111,N
1784,-0.080,0.830,0.380,105.556,100.000,325.000,1080.556,75.000,N
1785,-0.110,0.825,0.350,108.333,108.333,352.778,1169.444,88.889,N
1786,-0.025,0.955,0.465,125.000,102.778,358.333,1136.111,33.333,N
1787,0.010,0.950,0.430,125.000,100.000,338.889,1150.000,13.889,N
1788,0.005,1.020,0.460,105.556,116.667,336.111,1161.111,11.111,N
1789,0.010,1.015,0.520,102.778,113.889,336.111,1183.333,22.222,N
1790,0.000,1.025,0.530,116.667,116.667,361.111,1244.444,61.111,N
1791,0.020,1.050,0.505,116.667,113.889,352.778,1202.778,41.667,N
1792,-0.030,1.020,0.520,108.333,100.000,341.667,1222.222,19.444,N
1793,-0.005,1.090,0.440,111.111,113.889,341.667,1111.111,111.111,N
1794,-0.065,1.040,0.445,108.333,102.778,344.444,1111.111,0.000,N
1795,-0.080,1.005,0.355,108.333,100.000,341.667,1061.111,50.000,N
1796,-0.110,1.020,0.350,122.222,111.111,358.333,1155.556,94.444,N
1797,-0.035,1.165,0.430,116.667,100.000,341.667,1241.667,86.111,N
1798,-0.120,1.180,0.350,105.556,113.889,344.444,1180.556,61.111,N
1799,-0.100,1.275,0.375,108.333,108.333,344.444,958.333,222.222,N
1800,-0.045,1.400,0.360,111.111,86.111,322.222,983.333,25.000,N
1801,-0.175,1.245,0.280,125.000,75.000,361.111,1047.222,63.889,N
1802,-0.120,1.275,0.235,122.222,113.889,352.778,966.667,80.556,N
1803,-0.100,1.520,0.410,113.889,66.667,336.111,944.444,22.222,N
1804,-0.155,0.790,0.740,72.222,91.667,333.333,591.667,352.778,V
1805,0.645,1.320,-0.380,191.667,116.667,380.556,502.778,88.889,V
1806,0.075,1.885,0.445,105.556,47.222,302.778,1244.444,741.667,N
1807,0.030,1.970,0.555,116.667,47.222,311.111,961.111,283.333,N
1808,-0.020,1.865,0.545,122.222,50.000,322.222,988.889,27.778,N
1809,-0.040,1.825,0.455,100.000,50.000,322.222,963.889,25.000,N
1810,-0.160,0.980,0.700,86.111,86.111,344.444,577.778,386.111,V
1811,0.610,1.485,-0.420,197.222,111.111,391.667,519.444,58.333,V
1812,0.055,1.915,0.370,80.556,44.444,305.556,1350.000,830.556,N
1813,0.000,1.970,0.490,105.556,44.444,308.333,1100.000,250.000,N
1814,-0.025,2.050,0.525,113.889,50.000,333.333,1125.000,25.000,N
1815,-0.165,1.045,0.895,197.222,91.667,369.444,580.556,544.444,V
1816,0.650,1.520,-0.390,197.222,116.667,405.556,533.333,47.222,V
1817,0.045,1.905,0.410,97.222,44.444,319.444,1422.222,888.889,N
1818,-0.045,2.090,0.545,102.778,47.222,308.333,1127.778,294.444,N
1819,0.070,1.105,0.955,197.222,91.667,338.889,533.333,594.444,V
1820,0.915,1.605,-0.290,197.222,116.667,388.889,483.333,50.000,V
1821,0.200,2.080,0.445,111.111,50.000,330.556,1447.222,963.889,N
1822,0.025,2.160,0.570,116.667,47.222,322.222,1219.444,227.778,N
1823,-0.005,1.110,0.950,197.222,91.667,358.333,563.889,655.556,V
1824,0.845,1.615,-0.305,197.222,116.667,400.000,511.111,52.778,V
1825,0.140,2.120,0.505,91.667,47.222,316.667,1380.556,869.444,N
1826,0.070,2.230,0.625,113.889,47.222,302.778,1213.889,166.667,N
1827,0.180,1.235,0.890,197.222,88.889,352.778,533.333,680.556,V
1828,0.595,1.205,-0.330,58.333,116.667,400.000,536.111,2.778,V
1829,0.155,2.250,0.660,122.222,47.222,333.333,1502.778,966.667,N
1830,0.505,1.175,1.005,197.222,83.333,347.222,530.556,972.222,V
1831,0.965,1.765,-0.190,197.222,116.667,402.778,500.000,30.556,V
1832,0.230,2.145,0.495,100.000,44.444,308.333,1361.111,861.111,N
1833,0.040,2.190,0.580,105.556,47.222,302.778,1119.444,241.667,N
1834,0.100,1.115,1.065,197.222,86.111,344.444,541.667,577.778,V
1835,1.000,1.745,-0.270,197.222,116.667,397.222,500.000,41.667,V
1836,0.205,2.185,0.550,113.889,50.000,327.778,1472.222,972.222,N
1837,0.115,2.295,0.625,113.889,50.000,308.333,1183.333,288.889,N
1838,0.270,1.140,1.150,197.222,86.111,330.556,525.000,658.333,V
1839,1.140,1.740,-0.255,197.222,116.667,375.000,475.000,50.000,V
1840,0.145,2.065,0.480,105.556,55.556,325.000,1391.667,916.667,N
1841,0.120,2.275,0.680,111.111,50.000,313.889,1202.778,188.889,N
1842,0.095,1.110,1.075,197.222,86.111,350.000,566.667,636.111,V
1843,1.015,1.745,-0.280,197.222,116.667,405.556,508.333,58.333,V
1844,0.230,2.180,0.555,108.333,47.222,322.222,1436.111,927.778,N
1845,0.095,2.305,0.670,111.111,44.444,313.889,1155.556,280.556,N
1846,0.270,1.150,1.040,197.222,88.889,325.000,525.000,630.556,V
1847,1.035,1.725,-0.235,194.444,116.667,405.556,466.667,58.333,V
1848,0.195,2.055,0.480,119.444,50.000,338.889,1452.778,986.111,N
1849,0.130,2.260,0.720,119.444,50.000,319.444,1275.000,177.778,N
1850,0.250,1.170,1.040,197.222,91.667,336.111,541.667,733.333,V
1851,0.910,1.630,-0.245,197.222,116.667,386.111,502.778,38.889,V
1852,0.145,2.135,0.565,105.556,44.444,313.889,1369.444,866.667,N
1853,0.270,1.275,0.940,197.222,88.889,338.889,527.778,841.667,V
1854,0.930,1.700,-0.170,197.222,116.667,405.556,480.556,47.222,V
1855,0.200,2.000,0.450,108.333,50.000,355.556,1455.556,975.000,N
1856,0.105,2.130,0.610,122.222,50.000,322.222,1283.333,172.222,N
1857,0.170,1.150,1.025,197.222,86.111,338.889,544.444,738.889,V
1858,0.880,1.550,-0.245,197.222,116.667,388.889,502.778,41.667,V
1859,0.100,1.920,0.425,105.556,47.222,297.222,1355.556,852.778,N
1860,0.385,0.975,0.745,197.222,88.889,325.000,491.667,863.889,V
1861,0.725,1.430,-0.335,194.444,116.667,380.556,477.778,13.889,V
1862,0.110,1.890,0.400,113.889,47.222,316.667,1500.000,1022.222,N
1863,-0.005,1.835,0.430,119.444,52.778,322.222,1194.444,305.556,N
1864,0.020,0.895,0.830,197.222,80.556,325.000,552.778,641.667,V
1865,0.820,1.490,-0.345,197.222,116.667,388.889,477.778,75.000,V
1866,0.005,1.765,0.350,108.333,47.222,316.667,1372.222,894.444,N
1867,-0.030,1.880,0.490,119.444,50.000,322.222,1144.444,227.778,N
1868,-0.005,0.915,0.925,197.222,86.111,347.222,558.333,586.111,V
1869,0.795,1.535,-0.265,197.222,116.667,394.444,519.444,38.889,V
1870,0.070,1.825,0.435,113.889,50.000,325.000,1472.222,952.778,N
1871,0.055,1.995,0.530,102.778,44.444,305.556,1100.000,372.222,N
1872,0.100,0.950,0.950,197.222,86.111,330.556,525.000,575.000,V
1873,0.940,1.590,-0.235,197.222,116.667,388.889,475.000,50.000,V
1874,0.165,1.825,0.480,108.333,50.000,336.111,1355.556,880.556,N
1875,0.065,1.925,0.575,116.667,50.000,325.000,1177.778,177.778,N
1876,0.035,1.010,0.915,197.222,88.889,358.333,563.889,613.889,V
1877,0.810,1.565,-0.215,197.222,116.667,397.222,513.889,50.000,V
