id,Pamp,Ramp,Tamp,PR,QRS,QT,RRI,dRRI,label
1,-0.270,0.700,-0.045,75.000,105.556,105.556,811.111,13.889,/
2,-0.285,0.815,0.080,55.556,105.556,105.556,877.778,66.667,/
3,-0.305,0.800,-0.015,63.889,113.889,113.889,858.333,19.444,/
4,-0.275,0.735,0.020,72.222,105.556,105.556,825.000,33.333,/
5,-0.240,0.955,0.045,130.556,111.111,111.111,805.556,19.444,/
6,-0.275,0.650,0.040,194.444,111.111,111.111,800.000,5.556,/
7,-0.210,0.825,0.410,125.000,58.333,105.556,811.111,11.111,/
8,-0.265,0.940,0.100,116.667,113.889,113.889,808.333,2.778,/
9,-0.300,0.730,-0.030,183.333,116.667,116.667,836.111,27.778,/
10,-0.370,0.525,-0.085,55.556,105.556,105.556,886.111,50.000,/
11,-0.340,0.610,-0.060,55.556,105.556,105.556,850.000,36.111,/
12,-0.270,0.760,-0.040,50.000,97.222,358.333,808.333,41.667,/
13,-0.355,0.410,-0.150,63.889,116.667,372.222,805.556,2.778,/
14,-0.325,0.425,0.005,197.222,97.222,97.222,797.222,8.333,/
15,-0.235,0.890,0.260,61.111,69.444,108.333,827.778,30.556,/
16,-0.355,0.665,-0.090,130.556,113.889,113.889,838.889,11.111,/
17,-0.370,0.630,-0.045,105.556,105.556,105.556,838.889,0.000,/
18,-0.305,0.705,0.010,83.333,116.667,405.556,877.778,38.889,/
19,-0.235,0.865,0.005,172.222,102.778,102.778,822.222,55.556,/
20,-0.290,0.640,-0.120,66.667,113.889,113.889,791.667,30.556,/
21,-0.265,0.755,-0.030,44.444,91.667,291.667,794.444,2.778,/
22,-0.205,0.655,-0.015,69.444,113.889,402.778,808.333,13.889,/
23,-0.300,0.655,0.025,50.000,105.556,105.556,852.778,44.444,/
24,-0.295,0.660,0.115,77.778,94.444,105.556,855.556,2.778,/
25,-0.165,0.865,0.435,116.667,61.111,105.556,838.889,16.667,/
26,-0.250,0.595,0.175,188.889,66.667,105.556,872.222,33.333,/
27,-0.345,0.700,-0.060,141.667,111.111,111.111,805.556,66.667,/
28,-0.365,0.630,-0.095,55.556,102.778,372.222,777.778,27.778,/
29,-0.305,0.640,-0.185,191.667,108.333,108.333,805.556,27.778,/
30,-0.385,0.700,-0.090,55.556,102.778,102.778,825.000,19.444,/
31,-0.360,0.670,-0.080,63.889,113.889,113.889,861.111,36.111,/
32,-0.295,0.605,-0.135,58.333,102.778,102.778,847.222,13.889,/
33,-0.375,0.475,-0.030,55.556,111.111,111.111,827.778,19.444,/
34,-0.395,0.460,-0.060,44.444,94.444,94.444,838.889,11.111,/
35,0.585,0.245,-0.255,61.111,108.333,302.778,852.778,13.889,/
36,-0.430,0.565,-0.180,175.000,108.333,108.333,727.778,125.000,/
37,-0.385,0.495,-0.130,194.444,113.889,113.889,822.222,94.444,/
38,-0.315,0.700,-0.045,86.111,116.667,116.667,855.556,33.333,/
39,-0.310,0.760,-0.080,186.111,102.778,102.778,866.667,11.111,/
40,-0.375,0.805,-0.015,52.778,108.333,108.333,838.889,27.778,/
41,-0.330,0.785,0.040,44.444,91.667,91.667,816.667,22.222,/
42,-0.260,0.680,0.070,197.222,105.556,105.556,825.000,8.333,/
43,-0.290,0.675,0.360,86.111,50.000,91.667,800.000,25.000,/
44,-0.290,0.755,0.055,127.778,97.222,97.222,794.444,5.556,/
45,-0.195,0.780,0.015,102.778,116.667,116.667,836.111,41.667,/
46,-0.345,0.820,0.075,77.778,94.444,94.444,861.111,25.000,/
47,-0.280,0.805,0.035,50.000,105.556,105.556,861.111,0.000,/
48,-0.250,0.750,0.055,177.778,105.556,105.556,819.444,41.667,/
49,-0.330,0.490,0.030,55.556,111.111,111.111,800.000,19.444,/
50,0.650,0.385,-0.110,63.889,108.333,322.222,886.111,86.111,/
51,-0.265,0.780,0.015,194.444,100.000,100.000,750.000,136.111,/
52,-0.360,0.835,-0.010,58.333,108.333,108.333,813.889,63.889,/
53,-0.300,0.585,0.010,97.222,116.667,116.667,858.333,44.444,/
54,-0.290,0.690,-0.045,180.556,97.222,97.222,863.889,5.556,/
55,-0.380,0.395,-0.165,61.111,111.111,388.889,847.222,16.667,/
56,-0.365,0.575,0.145,72.222,66.667,86.111,791.667,55.556,/
57,-0.250,0.575,0.190,183.333,50.000,72.222,797.222,5.556,/
58,-0.345,0.665,0.190,55.556,63.889,105.556,830.556,33.333,/
59,-0.330,0.725,0.030,69.444,116.667,116.667,819.444,11.111,/
60,-0.305,0.765,-0.020,183.333,113.889,113.889,830.556,11.111,/
61,-0.445,0.540,-0.155,197.222,113.889,113.889,850.000,19.444,/
62,-0.400,0.710,-0.035,80.556,111.111,111.111,847.222,2.778,/
63,-0.265,0.630,-0.030,152.778,102.778,102.778,822.222,25.000,/
64,-0.440,0.695,-0.090,58.333,111.111,111.111,791.667,30.556,/
65,-0.360,0.660,0.160,197.222,61.111,86.111,805.556,13.889,/
66,-0.265,0.610,0.255,63.889,66.667,111.111,844.444,38.889,/
67,-0.475,0.590,-0.175,175.000,102.778,102.778,844.444,0.000,/
68,-0.405,0.600,-0.040,61.111,111.111,111.111,838.889,5.556,/
69,-0.250,0.750,0.005,183.333,105.556,105.556,841.667,2.778,/
70,-0.390,0.735,-0.065,63.889,116.667,116.667,830.556,11.111,/
71,-0.340,0.665,0.000,58.333,105.556,105.556,805.556,25.000,/
72,-0.140,0.700,0.365,180.556,55.556,77.778,794.444,11.111,/
73,-0.335,0.685,0.270,127.778,63.889,108.333,808.333,13.889,/
74,-0.445,0.625,-0.080,169.444,111.111,111.111,861.111,52.778,/
75,-0.350,0.730,-0.010,55.556,105.556,391.667,850.000,11.111,/
76,-0.210,0.800,0.150,197.222,102.778,102.778,833.333,16.667,/
77,-0.370,0.605,-0.090,77.778,100.000,100.000,825.000,8.333,/
78,-0.350,0.530,0.000,66.667,108.333,108.333,825.000,0.000,/
79,-0.150,0.745,0.185,63.889,111.111,111.111,805.556,19.444,/
80,-0.385,0.515,0.085,194.444,61.111,83.333,800.000,5.556,/
81,-0.435,0.625,0.075,63.889,50.000,72.222,841.667,41.667,/
82,-0.200,0.805,0.275,58.333,55.556,75.000,869.444,27.778,/
83,-0.350,0.765,0.125,197.222,66.667,91.667,841.667,27.778,/
84,-0.455,0.570,0.060,69.444,66.667,88.889,822.222,19.444,/
85,-0.360,0.805,0.120,83.333,100.000,108.333,797.222,25.000,/
86,-0.225,0.840,0.110,197.222,100.000,100.000,813.889,16.667,/
87,-0.450,0.745,0.085,69.444,66.667,91.667,805.556,8.333,/
88,-0.395,0.680,0.010,61.111,113.889,113.889,811.111,5.556,/
89,0.885,-0.615,0.015,97.222,0.000,272.222,961.111,150.000,/
90,-0.320,0.610,0.200,197.222,61.111,105.556,769.444,191.667,f
91,-0.370,0.525,0.185,61.111,108.333,144.444,830.556,61.111,f
92,-0.220,0.935,0.490,63.889,86.111,100.000,811.111,19.444,f
93,-0.250,0.515,-0.265,188.889,116.667,116.667,816.667,5.556,f
94,-0.430,0.500,-0.360,88.889,116.667,338.889,816.667,0.000,f
95,-0.330,1.155,-0.165,58.333,97.222,302.778,802.778,13.889,f
96,-0.200,0.265,-0.235,186.111,88.889,311.111,794.444,8.333,N
97,-0.350,0.350,-0.230,83.333,94.444,336.111,850.000,55.556,N
98,-0.235,0.470,-0.050,130.556,94.444,308.333,827.778,22.222,N
99,-0.105,0.385,-0.135,172.222,80.556,286.111,780.556,47.222,N
100,-0.275,0.390,-0.220,119.444,88.889,311.111,775.000,5.556,N
101,-0.240,0.475,-0.140,69.444,91.667,327.778,766.667,8.333,N
102,-0.115,0.580,-0.040,55.556,88.889,297.222,786.111,19.444,N
103,-0.165,0.385,-0.160,130.556,94.444,308.333,805.556,19.444,N
104,-0.250,0.445,-0.205,55.556,94.444,297.222,825.000,19.444,N
105,-0.200,0.475,-0.115,75.000,86.111,322.222,822.222,2.778,N
106,-0.185,0.360,-0.200,172.222,86.111,300.000,827.778,5.556,N
107,-0.295,0.405,-0.215,50.000,91.667,266.667,794.444,33.333,N
108,-0.255,0.420,-0.125,61.111,88.889,286.111,744.444,50.000,N
109,-0.160,0.470,-0.145,77.778,91.667,294.444,766.667,22.222,N
110,-0.205,0.460,-0.140,58.333,91.667,311.111,797.222,30.556,N
111,-0.185,0.505,-0.100,66.667,94.444,302.778,827.778,30.556,N
112,-0.190,0.445,-0.185,133.333,94.444,297.222,800.000,27.778,N
113,-0.210,-1.320,0.190,188.889,5.556,197.222,486.111,313.889,V
114,-0.235,0.655,0.180,136.111,111.111,116.667,880.556,394.444,/
115,-0.255,0.705,0.125,175.000,102.778,111.111,811.111,69.444,/
116,-0.385,0.495,0.060,66.667,50.000,72.222,786.111,25.000,/
117,-0.375,0.790,-0.020,61.111,116.667,116.667,800.000,13.889,/
118,-0.330,0.760,0.005,61.111,113.889,113.889,827.778,27.778,/
119,-0.415,0.655,0.050,77.778,63.889,88.889,866.667,38.889,/
120,-0.375,0.660,0.055,58.333,63.889,88.889,847.222,19.444,f
121,-0.335,0.725,0.040,58.333,108.333,108.333,830.556,16.667,f
122,-0.280,0.755,0.200,50.000,100.000,138.889,841.667,11.111,f
123,-0.325,0.630,0.290,80.556,100.000,136.111,800.000,41.667,f
124,-0.305,0.705,0.365,52.778,80.556,113.889,786.111,13.889,f
125,-0.065,0.510,-0.190,58.333,116.667,308.333,863.889,77.778,f
126,-0.325,0.295,-0.180,52.778,105.556,105.556,805.556,58.333,f
127,-0.335,0.550,-0.230,55.556,108.333,325.000,869.444,63.889,f
128,-0.275,1.205,-0.195,55.556,91.667,311.111,833.333,36.111,f
129,-0.260,0.455,-0.120,47.222,94.444,288.889,788.889,44.444,N
130,-0.210,0.370,-0.110,155.556,91.667,291.667,811.111,22.222,N
131,-0.195,0.505,-0.105,55.556,97.222,288.889,791.667,19.444,N
132,-0.195,0.555,-0.105,100.000,94.444,288.889,783.333,8.333,N
133,-0.190,0.465,-0.130,66.667,91.667,300.000,816.667,33.333,N
134,-0.245,0.440,-0.150,55.556,94.444,308.333,841.667,25.000,N
135,-0.240,0.470,-0.160,52.778,94.444,300.000,858.333,16.667,N
136,-0.190,0.485,-0.055,55.556,91.667,291.667,808.333,50.000,N
137,-0.225,0.400,-0.115,58.333,94.444,305.556,769.444,38.889,N
138,-0.220,1.230,-0.150,52.778,94.444,294.444,811.111,41.667,f
139,-0.250,0.465,-0.170,125.000,91.667,305.556,786.111,25.000,N
140,-0.230,0.365,-0.170,61.111,94.444,308.333,783.333,2.778,N
141,-0.300,1.120,-0.215,66.667,97.222,308.333,838.889,55.556,f
142,-0.300,0.380,-0.210,80.556,94.444,302.778,833.333,5.556,N
143,-0.225,0.395,-0.190,50.000,94.444,302.778,833.333,0.000,N
144,-0.315,0.305,-0.215,80.556,94.444,288.889,797.222,36.111,N
145,-0.290,0.390,-0.200,66.667,91.667,294.444,772.222,25.000,N
146,-0.245,0.365,-0.160,77.778,97.222,311.111,794.444,22.222,N
147,-0.315,0.275,-0.235,113.889,97.222,322.222,802.778,8.333,N
148,-0.295,0.420,-0.185,69.444,91.667,316.667,819.444,16.667,N
149,-0.175,0.455,-0.100,52.778,94.444,322.222,830.556,11.111,N
150,-0.205,0.435,-0.140,88.889,91.667,313.889,819.444,11.111,N
151,-0.165,0.490,-0.090,61.111,97.222,305.556,830.556,11.111,N
152,-0.120,0.420,-0.130,52.778,91.667,294.444,769.444,61.111,N
153,-0.230,0.405,-0.145,61.111,91.667,291.667,772.222,2.778,N
154,-0.205,0.460,-0.130,58.333,94.444,325.000,802.778,30.556,N
155,-0.170,0.385,-0.180,58.333,91.667,327.778,811.111,8.333,N
156,-0.290,0.370,-0.200,55.556,88.889,313.889,830.556,19.444,N
157,-0.230,0.455,-0.120,72.222,100.000,319.444,830.556,0.000,N
158,-0.210,0.340,-0.170,55.556,86.111,313.889,805.556,25.000,N
159,-0.290,0.385,-0.235,55.556,91.667,297.222,813.889,8.333,N
160,-0.230,0.465,-0.095,52.778,91.667,286.111,777.778,36.111,N
161,-0.240,0.300,-0.200,194.444,91.667,300.000,763.889,13.889,N
162,-0.270,0.430,-0.220,63.889,94.444,319.444,802.778,38.889,N
163,-0.225,0.470,-0.110,47.222,86.111,311.111,844.444,41.667,N
164,-0.205,0.350,-0.230,158.333,94.444,291.667,819.444,25.000,N
165,-0.335,0.345,-0.280,66.667,91.667,302.778,802.778,16.667,N
166,-0.320,0.375,-0.220,61.111,91.667,288.889,794.444,8.333,N
167,-0.235,0.330,-0.230,52.778,88.889,305.556,775.000,19.444,N
168,-0.330,0.350,-0.255,63.889,91.667,286.111,791.667,16.667,N
169,-0.305,0.375,-0.190,47.222,91.667,338.889,766.667,25.000,N
170,-0.210,0.340,-0.195,80.556,91.667,336.111,783.333,16.667,N
171,-0.330,0.295,-0.260,130.556,91.667,322.222,866.667,83.333,N
172,-0.310,0.400,-0.195,61.111,83.333,294.444,833.333,33.333,N
173,-0.270,0.305,-0.235,150.000,91.667,297.222,788.889,44.444,N
174,-0.335,0.330,-0.260,61.111,91.667,277.778,791.667,2.778,N
175,-0.255,0.415,-0.145,97.222,83.333,297.222,775.000,16.667,N
176,-0.265,0.290,-0.200,197.222,91.667,283.333,777.778,2.778,N
177,-0.270,0.420,-0.165,66.667,91.667,311.111,786.111,8.333,N
178,-0.175,0.470,-0.125,69.444,94.444,322.222,800.000,13.889,N
179,-0.240,0.405,-0.155,86.111,94.444,319.444,850.000,50.000,N
180,-0.205,0.470,-0.090,75.000,86.111,325.000,825.000,25.000,N
181,-0.175,0.425,-0.130,169.444,94.444,302.778,772.222,52.778,N
182,-0.220,0.475,-0.135,61.111,94.444,291.667,780.556,8.333,N
183,-0.205,0.520,-0.125,166.667,97.222,294.444,769.444,11.111,N
184,-0.135,0.530,-0.065,50.000,94.444,305.556,783.333,13.889,N
185,-0.210,0.375,-0.140,161.111,91.667,322.222,794.444,11.111,N
186,-0.230,0.445,-0.150,133.333,94.444,322.222,822.222,27.778,N
187,-0.180,0.480,-0.080,91.667,91.667,330.556,841.667,19.444,N
188,-0.195,0.355,-0.150,188.889,88.889,313.889,813.889,27.778,N
189,-0.230,0.440,-0.145,52.778,88.889,294.444,780.556,33.333,N
190,-0.180,0.515,-0.090,58.333,91.667,294.444,769.444,11.111,N
191,-0.145,0.435,-0.105,66.667,94.444,319.444,761.111,8.333,N
192,-0.215,0.470,-0.145,180.556,94.444,322.222,811.111,50.000,N
193,-0.180,0.490,-0.065,63.889,94.444,311.111,816.667,5.556,N
194,-0.160,0.405,-0.095,188.889,86.111,305.556,811.111,5.556,N
195,-0.205,0.480,-0.135,75.000,91.667,319.444,836.111,25.000,N
196,-0.155,0.545,-0.055,55.556,86.111,291.667,813.889,22.222,N
197,-0.190,0.415,-0.115,125.000,83.333,294.444,766.667,47.222,N
198,-0.220,0.490,-0.130,52.778,91.667,300.000,763.889,2.778,N
199,-0.210,0.530,-0.105,58.333,91.667,319.444,772.222,8.333,N
200,-0.160,0.485,-0.115,136.111,88.889,330.556,811.111,38.889,N
201,-0.215,0.450,-0.115,61.111,94.444,325.000,838.889,27.778,N
202,-0.195,0.540,-0.105,50.000,91.667,305.556,819.444,19.444,N
203,-0.160,0.460,-0.115,75.000,88.889,325.000,808.333,11.111,N
204,-0.235,0.440,-0.140,66.667,91.667,297.222,808.333,0.000,N
205,-0.220,0.515,-0.135,80.556,91.667,300.000,766.667,41.667,N
206,-0.200,0.435,-0.125,152.778,88.889,313.889,752.778,13.889,N
207,-0.230,0.440,-0.150,100.000,94.444,316.667,797.222,44.444,N
208,-0.220,0.510,-0.095,61.111,94.444,322.222,827.778,30.556,N
209,-0.150,0.465,-0.095,111.111,91.667,319.444,833.333,5.556,N
210,-0.220,0.435,-0.115,66.667,94.444,316.667,819.444,13.889,N
211,-0.185,0.525,-0.110,69.444,94.444,319.444,802.778,16.667,N
212,-0.180,0.970,0.320,69.444,69.444,111.111,816.667,13.889,f
213,-0.165,0.765,0.135,186.111,102.778,102.778,802.778,13.889,/
214,-0.195,0.780,0.355,163.889,63.889,108.333,791.667,11.111,/
215,-0.220,0.855,0.345,55.556,50.000,94.444,830.556,38.889,/
216,-0.330,0.765,0.155,111.111,63.889,94.444,866.667,36.111,/
217,-0.315,0.815,0.155,77.778,63.889,105.556,866.667,0.000,/
218,-0.270,0.555,0.020,55.556,105.556,105.556,827.778,38.889,/
219,-0.290,0.725,0.245,55.556,55.556,77.778,797.222,30.556,/
220,-0.275,0.625,0.100,113.889,116.667,116.667,825.000,27.778,/
221,-0.260,0.635,0.080,116.667,116.667,116.667,805.556,19.444,/
222,-0.275,0.850,0.260,50.000,50.000,75.000,797.222,8.333,/
223,-0.280,0.710,0.135,108.333,113.889,113.889,844.444,47.222,/
224,-0.310,0.815,0.225,91.667,63.889,91.667,863.889,19.444,/
225,-0.325,0.745,0.185,55.556,58.333,75.000,850.000,13.889,/
226,-0.295,0.895,-0.010,55.556,91.667,91.667,800.000,50.000,/
227,-0.340,0.575,0.195,197.222,66.667,91.667,805.556,5.556,/
228,-0.330,0.650,0.200,38.889,44.444,80.556,827.778,22.222,/
229,-0.275,0.785,0.230,55.556,41.667,61.111,816.667,11.111,/
230,-0.240,0.805,0.295,191.667,58.333,86.111,833.333,16.667,/
231,-0.295,0.575,0.240,191.667,61.111,88.889,852.778,19.444,/
232,-0.270,0.615,0.265,72.222,58.333,77.778,858.333,5.556,/
233,-0.255,0.575,0.240,194.444,58.333,102.778,822.222,36.111,/
234,-0.330,0.705,0.265,197.222,66.667,113.889,786.111,36.111,/
235,-0.310,0.770,0.305,66.667,66.667,108.333,802.778,16.667,/
236,-0.300,0.685,0.325,197.222,41.667,88.889,827.778,25.000,/
237,-0.300,0.820,0.325,91.667,61.111,105.556,830.556,2.778,/
238,-0.325,0.745,0.045,69.444,116.667,116.667,844.444,13.889,/
239,-0.290,0.625,0.190,197.222,63.889,88.889,844.444,0.000,/
240,-0.315,0.605,0.020,75.000,116.667,116.667,841.667,2.778,/
241,-0.295,0.735,0.005,52.778,105.556,391.667,813.889,27.778,/
242,-0.290,0.815,0.260,66.667,63.889,88.889,794.444,19.444,/
243,-0.290,0.890,0.135,113.889,111.111,111.111,813.889,19.444,/
244,-0.255,0.740,0.120,66.667,113.889,113.889,852.778,38.889,/
245,0.790,0.385,-0.205,61.111,108.333,366.667,902.778,50.000,/
246,-0.300,0.685,0.230,183.333,52.778,77.778,783.333,119.444,/
247,-0.315,0.740,-0.005,183.333,111.111,111.111,827.778,44.444,/
248,-0.320,0.510,0.030,55.556,100.000,100.000,822.222,5.556,/
249,-0.370,0.715,0.020,66.667,116.667,116.667,800.000,22.222,/
250,-0.315,0.735,0.045,80.556,102.778,380.556,794.444,5.556,/
251,-0.230,0.775,0.305,130.556,63.889,88.889,833.333,38.889,/
252,-0.260,0.865,0.310,63.889,66.667,88.889,866.667,33.333,/
253,-0.235,0.920,0.250,188.889,58.333,77.778,841.667,25.000,/
254,-0.095,1.040,0.475,58.333,69.444,105.556,833.333,8.333,/
255,-0.290,0.700,0.250,188.889,58.333,80.556,816.667,16.667,/
256,-0.315,0.730,0.060,119.444,105.556,105.556,813.889,2.778,/
257,-0.330,0.690,0.045,175.000,102.778,102.778,805.556,8.333,/
258,-0.360,0.820,0.230,197.222,63.889,88.889,805.556,0.000,/
259,-0.350,0.755,0.140,58.333,63.889,88.889,861.111,55.556,/
260,-0.290,0.870,0.070,66.667,108.333,108.333,861.111,0.000,/
261,-0.320,0.690,0.040,52.778,105.556,105.556,833.333,27.778,/
262,-0.325,0.795,0.200,52.778,55.556,77.778,816.667,16.667,/
263,-0.225,0.690,0.315,186.111,66.667,108.333,797.222,19.444,/
264,-0.250,0.925,0.400,63.889,69.444,122.222,813.889,16.667,/
265,-0.325,0.790,0.080,191.667,94.444,102.778,808.333,5.556,/
266,-0.320,0.645,0.210,55.556,55.556,77.778,830.556,22.222,/
267,-0.315,0.605,0.025,50.000,102.778,102.778,877.778,47.222,/
268,-0.300,0.790,0.215,55.556,55.556,72.222,855.556,22.222,/
269,-0.310,0.720,0.230,44.444,50.000,77.778,822.222,33.333,/
270,-0.260,0.940,0.335,197.222,69.444,111.111,805.556,16.667,/
271,-0.225,0.900,0.460,161.111,63.889,111.111,794.444,11.111,/
272,-0.195,0.740,0.460,122.222,58.333,108.333,827.778,33.333,/
273,-0.300,0.840,0.060,52.778,102.778,102.778,827.778,0.000,/
274,-0.310,0.670,0.005,58.333,108.333,108.333,838.889,11.111,/
275,-0.300,0.635,0.200,197.222,63.889,91.667,872.222,33.333,/
276,-0.330,0.580,-0.055,58.333,105.556,105.556,841.667,30.556,/
277,-0.350,0.595,0.125,94.444,61.111,77.778,788.889,52.778,/
278,-0.275,0.810,0.340,150.000,69.444,113.889,797.222,8.333,/
279,-0.280,0.765,0.225,47.222,50.000,102.778,805.556,8.333,/
280,-0.335,0.710,-0.045,61.111,111.111,111.111,847.222,41.667,/
281,-0.305,0.710,0.165,41.667,47.222,66.667,847.222,0.000,/
282,-0.305,0.560,0.200,47.222,50.000,75.000,841.667,5.556,/
283,-0.305,0.675,-0.015,58.333,105.556,105.556,872.222,30.556,/
284,-0.315,0.645,0.125,122.222,91.667,102.778,819.444,52.778,/
285,-0.240,0.700,0.340,141.667,58.333,105.556,780.556,38.889,/
286,-0.320,0.775,0.190,127.778,58.333,83.333,802.778,22.222,/
287,-0.335,0.790,0.145,108.333,50.000,72.222,816.667,13.889,/
288,-0.360,0.760,0.150,138.889,55.556,77.778,861.111,44.444,/
289,-0.370,0.775,0.140,83.333,69.444,91.667,844.444,16.667,/
290,-0.305,0.725,0.015,58.333,111.111,111.111,830.556,13.889,/
291,-0.290,0.795,0.240,58.333,61.111,91.667,844.444,13.889,/
292,-0.260,0.770,0.245,66.667,66.667,91.667,808.333,36.111,/
293,-0.150,0.910,0.485,66.667,52.778,102.778,786.111,22.222,/
294,-0.270,0.815,0.095,183.333,102.778,102.778,816.667,30.556,/
295,-0.240,0.870,0.080,61.111,97.222,97.222,844.444,27.778,/
296,-0.350,0.705,0.045,86.111,105.556,105.556,875.000,30.556,/
297,-0.415,0.660,0.105,50.000,50.000,91.667,844.444,30.556,/
298,-0.385,0.530,-0.120,47.222,97.222,97.222,813.889,30.556,/
299,-0.325,0.650,0.150,41.667,44.444,58.333,827.778,13.889,/
300,-0.260,0.685,0.285,194.444,58.333,100.000,800.000,27.778,/
301,-0.295,0.890,0.220,197.222,69.444,111.111,791.667,8.333,/
302,-0.260,0.850,0.280,161.111,63.889,86.111,827.778,36.111,/
303,-0.300,0.735,0.230,130.556,44.444,69.444,852.778,25.000,/
304,-0.315,0.800,0.190,52.778,61.111,83.333,872.222,19.444,/
305,-0.300,0.775,0.100,77.778,113.889,113.889,822.222,50.000,/
306,-0.275,0.725,0.265,188.889,52.778,77.778,794.444,27.778,/
307,-0.295,0.800,0.250,183.333,66.667,105.556,830.556,36.111,/
308,-0.255,0.815,0.230,61.111,50.000,66.667,811.111,19.444,/
309,-0.245,0.985,0.305,69.444,55.556,77.778,808.333,2.778,/
310,-0.240,0.765,0.270,55.556,55.556,94.444,852.778,44.444,/
311,-0.250,0.815,0.240,58.333,55.556,83.333,850.000,2.778,/
312,-0.200,0.845,0.315,197.222,52.778,75.000,858.333,8.333,/
313,-0.235,0.675,0.285,52.778,52.778,75.000,802.778,55.556,/
314,-0.205,0.805,0.285,72.222,66.667,88.889,783.333,19.444,/
315,-0.190,0.610,0.295,197.222,47.222,69.444,830.556,47.222,/
316,-0.270,0.640,0.270,180.556,66.667,108.333,813.889,16.667,/
317,-0.225,0.770,0.270,116.667,55.556,77.778,825.000,11.111,/
318,-0.310,0.695,0.245,177.778,58.333,80.556,852.778,27.778,/
319,-0.325,0.710,0.185,194.444,58.333,80.556,850.000,2.778,/
320,-0.275,0.810,0.155,127.778,116.667,116.667,833.333,16.667,/
321,-0.340,0.545,0.195,191.667,58.333,94.444,800.000,33.333,/
322,-0.345,0.645,0.165,72.222,55.556,94.444,794.444,5.556,/
323,-0.275,0.625,0.220,75.000,55.556,69.444,838.889,44.444,/
324,-0.320,0.675,0.205,50.000,50.000,91.667,841.667,2.778,/
325,-0.345,0.720,0.175,52.778,52.778,94.444,836.111,5.556,/
326,-0.275,0.865,0.240,105.556,52.778,75.000,841.667,5.556,/
327,-0.335,0.795,0.220,66.667,66.667,88.889,838.889,2.778,/
328,-0.315,0.910,0.260,77.778,63.889,102.778,808.333,30.556,/
329,-0.240,0.865,0.280,50.000,47.222,66.667,791.667,16.667,/
330,-0.290,0.870,0.260,50.000,50.000,91.667,800.000,8.333,/
331,-0.265,0.975,0.240,75.000,58.333,77.778,855.556,55.556,f
332,-0.205,0.710,0.230,47.222,102.778,138.889,861.111,5.556,f
333,-0.250,0.820,0.450,58.333,94.444,133.333,825.000,36.111,f
334,-0.245,0.845,0.265,75.000,61.111,77.778,830.556,5.556,/
335,0.755,0.330,-0.205,61.111,108.333,341.667,883.333,52.778,/
336,-0.300,0.565,0.320,55.556,61.111,108.333,750.000,133.333,/
337,-0.345,0.400,0.010,166.667,116.667,116.667,794.444,44.444,/
338,-0.360,0.590,0.155,169.444,66.667,91.667,830.556,36.111,/
339,-0.385,0.540,0.015,52.778,102.778,102.778,869.444,38.889,/
340,-0.310,0.710,-0.055,66.667,100.000,100.000,844.444,25.000,/
341,-0.305,0.880,0.205,58.333,58.333,77.778,825.000,19.444,/
342,-0.305,0.735,-0.065,50.000,100.000,100.000,808.333,16.667,/
343,-0.320,0.730,-0.010,58.333,105.556,105.556,808.333,0.000,/
344,-0.275,0.850,0.090,58.333,108.333,108.333,802.778,5.556,/
345,-0.365,0.725,-0.005,69.444,113.889,113.889,808.333,5.556,/
346,-0.305,0.740,0.075,108.333,105.556,105.556,855.556,47.222,/
347,-0.255,0.745,0.205,197.222,58.333,77.778,869.444,13.889,/
348,-0.310,0.830,0.200,150.000,63.889,88.889,838.889,30.556,/
349,-0.285,0.700,0.180,83.333,50.000,75.000,819.444,19.444,/
350,-0.285,0.495,0.190,186.111,50.000,75.000,800.000,19.444,/
351,-0.325,0.440,0.210,69.444,63.889,108.333,813.889,13.889,/
352,-0.255,0.715,0.270,66.667,63.889,88.889,813.889,0.000,/
353,-0.210,0.680,0.305,194.444,47.222,75.000,830.556,16.667,/
354,-0.240,0.660,0.290,194.444,55.556,102.778,863.889,33.333,/
355,-0.250,0.640,0.335,63.889,66.667,111.111,858.333,5.556,/
356,-0.260,0.680,0.320,66.667,38.889,77.778,816.667,41.667,/
357,-0.330,0.680,0.295,97.222,66.667,111.111,794.444,22.222,/
358,-0.325,0.680,0.315,138.889,41.667,88.889,794.444,0.000,f
359,-0.280,0.735,0.300,147.222,52.778,111.111,825.000,30.556,f
360,-0.320,0.630,0.290,169.444,86.111,108.333,838.889,13.889,f
361,-0.300,0.765,0.125,83.333,100.000,108.333,844.444,5.556,/
362,-0.260,0.630,0.100,50.000,100.000,100.000,869.444,25.000,/
363,-0.290,0.650,0.070,63.889,116.667,116.667,847.222,22.222,/
364,-0.265,0.645,-0.030,55.556,111.111,111.111,794.444,52.778,/
365,-0.230,0.860,0.250,186.111,66.667,88.889,791.667,2.778,/
366,-0.265,0.545,0.050,38.889,94.444,94.444,805.556,13.889,/
367,-0.270,0.745,0.065,44.444,97.222,97.222,836.111,30.556,/
368,-0.250,0.835,0.220,88.889,58.333,75.000,844.444,8.333,/
369,-0.330,0.575,0.010,52.778,108.333,108.333,841.667,2.778,/
370,-0.295,0.565,0.050,91.667,116.667,116.667,861.111,19.444,/
371,-0.235,0.725,0.275,188.889,55.556,80.556,813.889,47.222,/
372,-0.225,0.845,0.125,38.889,91.667,91.667,786.111,27.778,/
373,-0.170,0.715,0.375,66.667,66.667,88.889,808.333,22.222,/
374,-0.180,0.825,0.330,152.778,66.667,88.889,816.667,8.333,/
375,-0.205,0.765,0.290,88.889,66.667,86.111,869.444,52.778,/
376,-0.215,0.805,0.220,188.889,113.889,113.889,852.778,16.667,/
377,-0.235,0.720,0.275,194.444,52.778,75.000,833.333,19.444,/
378,-0.300,0.710,0.230,66.667,66.667,108.333,841.667,8.333,/
379,-0.270,0.555,0.245,122.222,63.889,75.000,805.556,36.111,/
380,-0.320,0.610,0.235,186.111,58.333,94.444,786.111,19.444,/
381,-0.345,0.805,0.210,52.778,52.778,77.778,811.111,25.000,/
382,-0.330,0.870,0.215,69.444,58.333,105.556,833.333,22.222,/
383,-0.355,0.715,0.255,58.333,66.667,116.667,875.000,41.667,/
384,-0.335,0.730,0.325,88.889,44.444,88.889,847.222,27.778,/
385,-0.275,0.805,0.375,116.667,66.667,119.444,808.333,38.889,f
386,-0.325,0.780,0.330,130.556,63.889,108.333,827.778,19.444,f
387,-0.345,0.790,0.335,155.556,58.333,111.111,811.111,16.667,f
388,0.825,0.395,-0.265,52.778,88.889,297.222,844.444,33.333,f
389,-0.200,0.400,-0.295,58.333,116.667,375.000,833.333,11.111,f
390,-0.295,0.515,-0.230,58.333,113.889,338.889,850.000,16.667,f
391,-0.195,0.910,0.415,61.111,55.556,97.222,827.778,22.222,/
392,-0.230,0.880,0.270,172.222,69.444,88.889,827.778,0.000,/
393,-0.220,0.900,0.295,61.111,63.889,105.556,788.889,38.889,/
394,-0.120,0.795,0.215,86.111,116.667,116.667,825.000,36.111,/
395,-0.225,0.875,0.295,47.222,50.000,72.222,808.333,16.667,/
396,-0.215,0.940,0.120,69.444,105.556,105.556,808.333,0.000,/
397,-0.180,0.815,0.250,52.778,105.556,105.556,850.000,41.667,/
398,-0.230,0.660,0.120,61.111,111.111,111.111,855.556,5.556,/
399,-0.235,0.760,0.175,55.556,97.222,97.222,852.778,2.778,/
400,-0.250,0.715,0.270,186.111,52.778,94.444,805.556,47.222,/
401,-0.300,0.625,0.350,75.000,41.667,88.889,788.889,16.667,/
402,0.645,0.315,-0.125,63.889,111.111,333.333,891.667,102.778,/
403,-0.370,0.655,0.260,63.889,66.667,111.111,763.889,127.778,/
404,-0.425,0.590,0.130,66.667,66.667,108.333,836.111,72.222,/
405,-0.345,0.815,0.175,69.444,47.222,75.000,850.000,13.889,/
406,-0.320,0.760,0.215,183.333,69.444,94.444,847.222,2.778,/
407,-0.345,0.660,-0.060,66.667,102.778,102.778,836.111,11.111,/
408,-0.365,0.820,0.135,91.667,47.222,61.111,791.667,44.444,/
409,-0.245,0.785,0.340,155.556,61.111,102.778,783.333,8.333,/
410,-0.335,0.590,0.225,180.556,63.889,105.556,838.889,55.556,/
411,-0.290,0.825,0.200,72.222,69.444,83.333,838.889,0.000,/
412,-0.325,0.660,0.215,86.111,66.667,88.889,847.222,8.333,/
413,-0.290,0.680,0.000,63.889,113.889,113.889,844.444,2.778,/
414,-0.220,0.700,0.285,58.333,47.222,72.222,830.556,13.889,/
415,-0.225,0.750,0.320,172.222,55.556,94.444,827.778,2.778,/
416,0.825,0.390,-0.065,58.333,105.556,313.889,847.222,19.444,/
417,-0.185,0.695,0.330,63.889,63.889,88.889,741.667,105.556,/
418,-0.265,0.705,0.215,58.333,55.556,77.778,861.111,119.444,/
419,-0.270,0.780,0.100,91.667,105.556,105.556,850.000,11.111,/
420,-0.250,0.870,0.225,186.111,69.444,91.667,827.778,22.222,/
421,-0.310,0.710,-0.030,66.667,113.889,113.889,830.556,2.778,/
422,-0.265,0.590,0.235,58.333,55.556,77.778,808.333,22.222,/
423,-0.185,0.700,0.250,197.222,47.222,72.222,808.333,0.000,/
424,-0.245,0.730,0.365,47.222,47.222,94.444,797.222,11.111,/
425,-0.295,0.850,0.180,44.444,47.222,88.889,816.667,19.444,/
426,-0.275,0.700,0.185,158.333,41.667,66.667,880.556,63.889,/
427,-0.335,0.530,0.175,113.889,63.889,105.556,852.778,27.778,/
428,-0.340,0.675,-0.070,55.556,105.556,105.556,825.000,27.778,/
429,-0.325,0.580,0.180,88.889,52.778,75.000,816.667,8.333,/
430,-0.370,0.610,0.130,58.333,63.889,108.333,808.333,8.333,/
431,-0.280,0.760,0.335,138.889,55.556,97.222,805.556,2.778,/
432,-0.305,0.850,0.315,61.111,66.667,111.111,811.111,5.556,/
433,-0.355,0.770,0.190,61.111,63.889,105.556,844.444,33.333,/
434,-0.280,0.775,0.210,61.111,63.889,105.556,872.222,27.778,/
435,-0.290,0.550,0.205,144.444,58.333,77.778,844.444,27.778,/
436,-0.295,0.760,0.015,38.889,94.444,94.444,802.778,41.667,/
437,-0.300,0.830,0.220,108.333,55.556,75.000,794.444,8.333,/
438,-0.345,0.780,0.195,50.000,50.000,88.889,811.111,16.667,/
439,-0.340,0.650,0.195,55.556,55.556,77.778,819.444,8.333,/
440,-0.220,0.800,0.475,105.556,58.333,111.111,833.333,13.889,/
441,-0.280,0.880,0.240,183.333,66.667,88.889,861.111,27.778,/
442,-0.295,0.700,0.215,155.556,66.667,88.889,872.222,11.111,/
443,-0.250,0.850,0.275,47.222,47.222,69.444,827.778,44.444,/
444,-0.250,0.705,0.275,186.111,55.556,77.778,788.889,38.889,/
445,-0.295,0.830,0.040,61.111,111.111,111.111,791.667,2.778,/
446,-0.295,0.920,0.205,47.222,52.778,75.000,819.444,27.778,/
447,-0.160,0.945,0.390,147.222,69.444,113.889,833.333,13.889,/
448,-0.240,0.915,0.375,69.444,52.778,105.556,838.889,5.556,/
449,-0.285,0.790,0.225,100.000,66.667,108.333,861.111,22.222,/
450,-0.265,0.755,0.140,41.667,91.667,91.667,852.778,8.333,/
451,-0.250,0.800,0.235,197.222,47.222,69.444,794.444,58.333,/
452,-0.335,0.740,0.015,66.667,102.778,102.778,788.889,5.556,/
453,-0.305,0.620,0.040,94.444,113.889,113.889,805.556,16.667,/
454,-0.245,0.835,0.135,111.111,113.889,113.889,838.889,33.333,/
455,-0.330,0.545,0.180,186.111,55.556,75.000,855.556,16.667,/
456,-0.260,0.710,0.370,80.556,47.222,94.444,841.667,13.889,/
457,-0.270,0.810,0.155,94.444,116.667,116.667,855.556,13.889,/
458,-0.365,0.530,0.030,194.444,108.333,108.333,825.000,30.556,/
459,-0.395,0.740,0.120,125.000,58.333,94.444,783.333,41.667,/
460,-0.365,0.700,-0.045,188.889,113.889,113.889,797.222,13.889,/
461,-0.255,0.900,0.110,69.444,116.667,116.667,811.111,13.889,/
462,-0.315,0.785,0.205,55.556,63.889,108.333,858.333,47.222,/
463,-0.315,0.730,0.180,197.222,58.333,83.333,858.333,0.000,/
464,0.810,0.375,-0.185,61.111,111.111,336.111,897.222,38.889,/
465,-0.360,0.760,0.230,138.889,66.667,122.222,772.222,125.000,/
466,-0.395,0.805,0.090,97.222,69.444,108.333,811.111,38.889,/
467,-0.345,0.515,0.040,180.556,108.333,108.333,794.444,16.667,/
468,-0.340,0.750,0.170,186.111,52.778,77.778,808.333,13.889,/
469,-0.315,0.740,0.075,61.111,111.111,111.111,841.667,33.333,/
470,-0.275,0.550,0.170,75.000,61.111,80.556,880.556,38.889,/
471,-0.240,0.690,0.135,52.778,105.556,105.556,847.222,33.333,/
472,-0.310,0.640,0.255,58.333,63.889,102.778,813.889,33.333,/
473,-0.270,0.725,0.165,58.333,77.778,86.111,819.444,5.556,/
474,0.620,0.350,-0.185,58.333,108.333,347.222,863.889,44.444,/
475,-0.305,0.710,0.320,61.111,66.667,119.444,730.556,133.333,/
476,-0.360,0.675,0.105,58.333,61.111,75.000,825.000,94.444,/
477,-0.365,0.600,0.125,188.889,63.889,88.889,852.778,27.778,/
478,-0.395,0.665,0.115,197.222,63.889,91.667,866.667,13.889,/
479,-0.365,0.525,-0.070,111.111,111.111,111.111,833.333,33.333,/
480,-0.335,0.545,0.175,155.556,58.333,80.556,797.222,36.111,/
481,-0.365,0.650,-0.015,69.444,116.667,116.667,825.000,27.778,/
482,-0.375,0.735,0.115,77.778,61.111,80.556,808.333,16.667,/
483,-0.315,0.685,0.075,191.667,111.111,111.111,816.667,8.333,/
484,-0.320,0.690,0.305,147.222,63.889,111.111,852.778,36.111,/
485,-0.375,0.760,0.185,66.667,69.444,122.222,852.778,0.000,/
486,-0.320,0.815,0.180,55.556,58.333,83.333,858.333,5.556,/
487,-0.340,0.835,0.170,63.889,63.889,86.111,805.556,52.778,/
488,-0.275,0.560,0.110,183.333,116.667,116.667,786.111,19.444,/
489,-0.285,0.770,0.275,69.444,77.778,102.778,822.222,36.111,/
490,-0.300,0.635,0.250,172.222,61.111,100.000,819.444,2.778,/
491,-0.305,0.800,0.145,52.778,66.667,80.556,830.556,11.111,/
492,-0.340,0.810,0.185,63.889,69.444,111.111,861.111,30.556,/
493,-0.310,0.770,0.170,61.111,66.667,88.889,847.222,13.889,/
494,0.650,0.320,-0.160,58.333,108.333,338.889,902.778,55.556,/
495,-0.280,0.545,0.220,188.889,58.333,97.222,741.667,161.111,/
496,-0.310,0.485,-0.100,175.000,108.333,108.333,783.333,41.667,/
497,-0.355,0.565,0.145,166.667,63.889,88.889,841.667,58.333,/
498,-0.345,0.655,0.005,58.333,108.333,108.333,844.444,2.778,/
499,-0.320,0.580,-0.015,80.556,111.111,111.111,836.111,8.333,/
500,-0.315,0.725,0.165,63.889,63.889,86.111,850.000,13.889,/
501,-0.330,0.680,0.165,61.111,58.333,77.778,827.778,22.222,/
502,-0.265,0.780,0.255,177.778,58.333,102.778,816.667,11.111,/
503,-0.245,0.670,0.365,97.222,47.222,88.889,788.889,27.778,/
504,-0.360,0.655,0.055,172.222,102.778,102.778,791.667,2.778,/
505,-0.360,0.605,0.145,130.556,55.556,80.556,863.889,72.222,/
506,-0.370,0.770,0.135,177.778,63.889,91.667,858.333,5.556,/
507,-0.400,0.695,0.115,86.111,66.667,91.667,838.889,19.444,/
508,-0.380,0.815,-0.105,36.111,86.111,86.111,836.111,2.778,/
509,-0.405,0.625,-0.065,102.778,116.667,116.667,813.889,22.222,/
510,-0.420,0.405,0.115,63.889,63.889,102.778,813.889,0.000,/
511,-0.345,0.610,0.195,183.333,55.556,91.667,791.667,22.222,/
512,-0.230,0.785,0.415,72.222,52.778,102.778,813.889,22.222,/
513,-0.310,0.865,0.225,66.667,52.778,91.667,877.778,63.889,/
514,-0.250,0.710,0.240,47.222,47.222,86.111,852.778,25.000,/
515,-0.280,0.535,0.090,194.444,111.111,111.111,825.000,27.778,/
516,-0.365,0.760,-0.165,86.111,116.667,388.889,808.333,16.667,/
517,-0.335,0.840,0.235,83.333,66.667,108.333,797.222,11.111,/
518,-0.330,0.695,0.220,180.556,63.889,88.889,816.667,19.444,/
519,-0.270,0.705,0.395,63.889,47.222,94.444,811.111,5.556,/
520,-0.330,0.745,0.175,47.222,52.778,77.778,838.889,27.778,/
521,-0.350,0.735,0.160,175.000,55.556,77.778,888.889,50.000,/
522,-0.375,0.760,-0.080,66.667,102.778,102.778,847.222,41.667,/
523,-0.305,0.700,-0.095,41.667,94.444,94.444,808.333,38.889,/
524,-0.350,0.690,0.020,91.667,111.111,111.111,794.444,13.889,/
525,-0.330,0.570,-0.005,63.889,111.111,111.111,805.556,11.111,/
526,-0.295,0.725,0.090,102.778,116.667,116.667,825.000,19.444,/
527,-0.305,0.835,0.225,66.667,66.667,108.333,827.778,2.778,/
528,-0.320,0.790,0.220,66.667,66.667,91.667,850.000,22.222,/
529,0.805,0.460,-0.080,61.111,108.333,352.778,933.333,83.333,/
530,-0.280,0.575,0.305,47.222,44.444,88.889,763.889,169.444,/
531,-0.300,0.595,0.080,194.444,113.889,113.889,780.556,16.667,/
532,-0.250,0.880,0.160,52.778,86.111,88.889,794.444,13.889,/
533,-0.240,0.805,0.235,191.667,52.778,75.000,819.444,25.000,/
534,-0.295,0.830,0.225,111.111,66.667,91.667,838.889,19.444,/
535,-0.305,0.815,0.185,58.333,91.667,105.556,850.000,11.111,/
536,-0.180,0.850,0.375,186.111,69.444,116.667,855.556,5.556,/
537,-0.275,0.755,0.325,94.444,66.667,113.889,855.556,0.000,/
538,-0.265,0.905,0.290,186.111,66.667,108.333,797.222,58.333,/
539,-0.280,0.720,0.235,191.667,58.333,77.778,786.111,11.111,/
540,-0.310,0.815,0.080,191.667,108.333,108.333,800.000,13.889,/
541,-0.260,0.735,0.035,66.667,116.667,116.667,841.667,41.667,/
542,-0.275,0.715,0.255,194.444,63.889,88.889,847.222,5.556,/
543,-0.310,0.680,0.205,55.556,55.556,80.556,841.667,5.556,/
544,-0.260,0.670,0.240,191.667,50.000,94.444,852.778,11.111,/
545,-0.215,0.910,0.450,66.667,36.111,77.778,822.222,30.556,/
546,-0.270,0.630,0.265,194.444,58.333,91.667,794.444,27.778,/
547,-0.230,0.855,0.160,188.889,113.889,113.889,797.222,2.778,/
548,-0.290,0.700,0.215,188.889,58.333,83.333,816.667,19.444,/
549,-0.300,0.685,0.215,61.111,66.667,88.889,869.444,52.778,/
550,-0.275,0.835,0.030,116.667,113.889,113.889,855.556,13.889,/
551,-0.260,0.730,0.220,194.444,63.889,83.333,830.556,25.000,/
552,-0.285,0.805,0.230,66.667,52.778,75.000,836.111,5.556,/
553,-0.210,0.575,0.265,191.667,58.333,86.111,811.111,25.000,/
554,-0.200,0.700,0.405,63.889,47.222,91.667,786.111,25.000,/
555,-0.330,0.780,0.165,183.333,69.444,108.333,802.778,16.667,/
556,-0.305,0.690,0.180,180.556,66.667,88.889,833.333,30.556,/
557,-0.280,0.795,0.205,188.889,55.556,77.778,872.222,38.889,/
558,-0.290,0.770,0.225,66.667,66.667,108.333,847.222,25.000,/
559,-0.250,0.760,0.055,100.000,105.556,105.556,811.111,36.111,/
560,-0.250,0.785,0.255,161.111,44.444,72.222,833.333,22.222,/
561,-0.260,0.880,0.240,141.667,61.111,80.556,811.111,22.222,/
562,-0.210,0.855,0.380,169.444,52.778,94.444,794.444,16.667,/
563,-0.210,0.845,0.320,66.667,66.667,111.111,833.333,38.889,/
564,-0.310,0.710,0.175,172.222,66.667,88.889,852.778,19.444,/
565,-0.300,0.775,0.180,191.667,63.889,75.000,863.889,11.111,/
566,-0.290,0.860,0.240,197.222,50.000,72.222,827.778,36.111,/
567,-0.285,0.810,0.020,55.556,105.556,105.556,791.667,36.111,/
568,-0.235,0.830,0.265,61.111,58.333,100.000,819.444,27.778,/
569,-0.215,0.835,0.290,72.222,66.667,88.889,808.333,11.111,/
570,-0.245,0.850,0.250,50.000,58.333,77.778,805.556,2.778,/
571,-0.255,0.610,0.260,80.556,63.889,83.333,852.778,47.222,/
572,-0.175,0.825,0.430,80.556,50.000,91.667,850.000,2.778,/
573,-0.300,0.725,0.205,158.333,58.333,77.778,863.889,13.889,/
574,-0.275,0.850,0.255,55.556,52.778,94.444,813.889,50.000,/
575,-0.295,0.895,0.200,155.556,58.333,97.222,786.111,27.778,/
576,-0.325,0.740,0.165,88.889,55.556,77.778,830.556,44.444,/
577,-0.335,0.675,0.155,55.556,44.444,75.000,822.222,8.333,/
578,-0.345,0.805,0.175,172.222,66.667,86.111,830.556,8.333,/
579,-0.305,0.780,-0.005,61.111,111.111,111.111,852.778,22.222,/
580,-0.265,0.845,0.250,55.556,55.556,75.000,844.444,8.333,/
581,-0.280,0.775,0.255,63.889,63.889,86.111,841.667,2.778,/
582,-0.210,0.875,0.355,188.889,55.556,94.444,791.667,50.000,/
583,-0.185,0.935,0.445,55.556,52.778,102.778,783.333,8.333,/
584,-0.300,0.775,0.145,194.444,108.333,108.333,838.889,55.556,/
585,-0.345,0.805,0.165,66.667,66.667,88.889,838.889,0.000,/
586,-0.340,0.855,0.165,105.556,69.444,80.556,836.111,2.778,/
587,-0.355,0.645,0.195,50.000,55.556,77.778,852.778,16.667,/
588,-0.350,0.715,0.190,72.222,55.556,94.444,833.333,19.444,/
589,-0.290,0.890,0.220,52.778,41.667,69.444,819.444,13.889,/
590,-0.215,0.795,0.465,136.111,58.333,100.000,797.222,22.222,/
591,-0.230,1.030,0.315,100.000,69.444,108.333,791.667,5.556,/
592,-0.205,0.930,0.295,91.667,91.667,108.333,858.333,66.667,/
593,-0.230,0.675,0.205,191.667,105.556,105.556,850.000,8.333,/
594,-0.235,0.620,0.245,175.000,55.556,72.222,833.333,16.667,/
595,-0.260,0.670,-0.025,77.778,111.111,111.111,836.111,2.778,/
596,-0.280,0.570,0.075,188.889,116.667,116.667,811.111,25.000,/
597,-0.325,0.500,-0.080,80.556,111.111,111.111,808.333,2.778,/
598,-0.340,0.545,0.100,194.444,102.778,111.111,797.222,11.111,/
599,-0.240,0.855,0.360,127.778,61.111,111.111,813.889,16.667,/
600,-0.255,0.645,0.280,52.778,55.556,108.333,880.556,66.667,/
601,-0.275,0.790,0.005,63.889,113.889,113.889,858.333,22.222,/
602,-0.275,0.665,0.100,191.667,94.444,94.444,830.556,27.778,/
603,-0.310,0.535,0.055,147.222,108.333,108.333,816.667,13.889,/
604,-0.325,0.650,-0.075,66.667,116.667,405.556,805.556,11.111,/
605,-0.370,0.465,0.040,94.444,111.111,111.111,811.111,5.556,/
606,-0.285,0.580,0.000,50.000,102.778,102.778,808.333,2.778,/
607,-0.255,0.785,0.150,55.556,105.556,105.556,836.111,27.778,/
608,-0.305,0.630,0.040,55.556,100.000,100.000,880.556,44.444,/
609,-0.275,0.700,-0.010,80.556,113.889,113.889,847.222,33.333,/
610,-0.280,0.795,0.220,197.222,66.667,88.889,797.222,50.000,/
611,-0.250,0.640,-0.010,63.889,113.889,113.889,800.000,2.778,/
612,-0.235,0.690,0.200,58.333,91.667,102.778,811.111,11.111,/
613,-0.145,0.645,0.320,191.667,61.111,102.778,816.667,5.556,/
614,-0.225,0.840,0.320,52.778,61.111,111.111,830.556,13.889,/
615,-0.290,0.830,0.210,75.000,75.000,94.444,866.667,36.111,/
616,-0.370,0.600,0.110,163.889,50.000,91.667,875.000,8.333,/
617,-0.390,0.685,-0.020,161.111,108.333,108.333,825.000,50.000,/
618,-0.330,0.770,0.065,61.111,111.111,111.111,788.889,36.111,/
619,-0.320,0.695,0.210,188.889,58.333,94.444,794.444,5.556,/
620,-0.290,0.740,0.090,94.444,116.667,116.667,816.667,22.222,/
621,-0.205,0.910,0.190,55.556,105.556,105.556,830.556,13.889,/
622,-0.200,0.960,0.340,61.111,63.889,102.778,838.889,8.333,/
623,-0.215,0.880,0.315,188.889,61.111,86.111,861.111,22.222,/
624,0.845,0.520,-0.125,58.333,108.333,366.667,908.333,47.222,/
625,-0.225,0.710,0.170,194.444,91.667,91.667,744.444,163.889,/
626,-0.240,0.805,0.275,186.111,52.778,72.222,791.667,47.222,/
627,-0.280,0.715,0.235,188.889,58.333,80.556,802.778,11.111,/
628,-0.355,0.635,0.160,61.111,66.667,108.333,841.667,38.889,/
629,-0.315,0.655,0.055,52.778,100.000,100.000,855.556,13.889,/
630,-0.290,0.720,0.255,197.222,63.889,86.111,844.444,11.111,/
631,-0.275,0.930,0.260,47.222,52.778,91.667,852.778,8.333,/
632,-0.265,0.715,0.225,191.667,61.111,72.222,827.778,25.000,/
633,0.775,0.400,-0.175,58.333,105.556,347.222,838.889,11.111,/
634,-0.270,0.655,0.330,58.333,66.667,119.444,738.889,100.000,/
635,-0.310,0.795,0.240,197.222,69.444,122.222,808.333,69.444,/
636,-0.380,0.760,0.170,191.667,69.444,111.111,861.111,52.778,/
637,-0.425,0.710,0.025,83.333,113.889,116.667,858.333,2.778,/
638,-0.390,0.795,0.145,77.778,66.667,88.889,830.556,27.778,/
639,-0.380,0.660,0.155,55.556,55.556,77.778,841.667,11.111,/
640,-0.330,0.625,-0.040,52.778,105.556,105.556,813.889,27.778,/
641,-0.290,0.645,-0.035,61.111,108.333,108.333,788.889,25.000,/
642,-0.320,0.795,0.195,61.111,63.889,88.889,808.333,19.444,/
643,-0.250,0.795,0.115,58.333,108.333,108.333,841.667,33.333,/
644,-0.220,0.875,0.295,147.222,47.222,72.222,869.444,27.778,/
645,-0.245,0.590,0.080,44.444,94.444,94.444,847.222,22.222,/
646,-0.275,0.655,0.250,55.556,58.333,77.778,811.111,36.111,/
647,-0.255,0.680,0.255,194.444,63.889,91.667,825.000,13.889,/
648,-0.320,0.775,0.340,80.556,47.222,94.444,800.000,25.000,/
649,-0.405,0.730,0.150,119.444,66.667,91.667,788.889,11.111,/
650,-0.395,0.915,0.140,197.222,63.889,88.889,827.778,38.889,/
651,-0.350,0.920,0.215,100.000,66.667,88.889,852.778,25.000,/
652,-0.295,0.800,0.075,69.444,105.556,105.556,872.222,19.444,/
653,-0.270,0.745,0.250,186.111,55.556,77.778,830.556,41.667,/
654,-0.290,0.635,-0.035,52.778,102.778,102.778,800.000,30.556,/
655,-0.320,0.860,0.180,58.333,47.222,69.444,825.000,25.000,/
656,-0.245,0.855,0.320,194.444,36.111,80.556,808.333,16.667,/
657,-0.350,0.890,0.350,133.333,66.667,111.111,811.111,2.778,/
658,-0.390,0.940,0.140,197.222,63.889,105.556,850.000,38.889,/
659,-0.360,0.700,-0.075,83.333,116.667,116.667,852.778,2.778,/
660,-0.370,0.740,0.170,58.333,58.333,80.556,861.111,8.333,/
661,-0.325,0.525,-0.165,66.667,116.667,116.667,808.333,52.778,/
662,-0.300,0.835,-0.035,144.444,111.111,111.111,775.000,33.333,/
663,-0.315,0.905,0.225,52.778,61.111,80.556,827.778,52.778,/
664,-0.315,0.865,0.200,55.556,63.889,83.333,822.222,5.556,/
665,-0.245,0.675,0.400,102.778,52.778,105.556,825.000,2.778,/
666,-0.300,0.805,0.260,194.444,58.333,83.333,855.556,30.556,/
667,-0.305,0.635,0.185,194.444,58.333,77.778,850.000,5.556,/
668,-0.315,0.450,-0.050,86.111,116.667,388.889,844.444,5.556,/
669,-0.345,0.455,-0.005,61.111,113.889,113.889,794.444,50.000,/
670,-0.260,0.850,0.275,197.222,69.444,108.333,786.111,8.333,/
671,-0.230,0.680,0.405,77.778,38.889,86.111,841.667,55.556,/
672,-0.290,0.740,0.205,63.889,47.222,72.222,836.111,5.556,/
673,-0.240,0.630,0.250,58.333,63.889,88.889,836.111,0.000,/
674,-0.240,0.805,0.065,44.444,94.444,94.444,844.444,8.333,/
675,-0.270,0.800,0.110,58.333,111.111,111.111,833.333,11.111,/
676,-0.260,0.730,-0.010,52.778,102.778,102.778,811.111,22.222,/
677,-0.270,0.655,0.210,94.444,61.111,75.000,791.667,19.444,/
678,-0.245,0.650,0.270,180.556,63.889,108.333,800.000,8.333,/
679,-0.285,0.715,0.255,58.333,66.667,108.333,855.556,55.556,/
680,-0.330,0.705,-0.005,136.111,100.000,100.000,852.778,2.778,/
681,-0.370,0.665,0.005,194.444,111.111,111.111,838.889,13.889,/
682,-0.355,0.755,-0.040,55.556,111.111,111.111,836.111,2.778,/
683,-0.300,0.595,-0.075,66.667,102.778,102.778,822.222,13.889,/
684,-0.305,0.675,0.190,58.333,58.333,80.556,805.556,16.667,/
685,-0.275,0.845,0.050,55.556,102.778,102.778,797.222,8.333,/
686,-0.270,0.795,0.205,61.111,61.111,86.111,822.222,25.000,/
687,-0.215,0.610,0.400,47.222,44.444,88.889,869.444,47.222,/
688,-0.300,0.670,0.180,113.889,61.111,75.000,847.222,22.222,/
689,-0.225,0.850,0.260,55.556,55.556,77.778,827.778,19.444,/
690,-0.180,1.020,0.340,180.556,47.222,66.667,808.333,19.444,/
691,-0.185,0.665,0.105,77.778,108.333,108.333,813.889,5.556,/
692,-0.165,0.805,0.335,69.444,55.556,75.000,811.111,2.778,/
693,-0.180,0.815,0.190,63.889,113.889,113.889,808.333,2.778,/
694,-0.265,0.770,0.255,69.444,66.667,94.444,852.778,44.444,/
695,-0.215,0.810,0.275,197.222,66.667,111.111,877.778,25.000,/
696,0.780,0.390,-0.190,58.333,108.333,352.778,897.222,19.444,/
697,-0.315,0.580,0.205,113.889,63.889,91.667,755.556,141.667,/
698,-0.325,0.440,0.060,130.556,113.889,113.889,800.000,44.444,/
699,-0.190,0.175,-0.310,194.444,83.333,319.444,561.111,238.889,V
700,-0.355,0.655,0.175,61.111,61.111,102.778,836.111,275.000,/
701,-0.335,0.770,0.195,80.556,63.889,86.111,819.444,16.667,/
702,0.840,0.470,-0.110,66.667,113.889,380.556,911.111,91.667,/
703,-0.230,0.680,0.195,125.000,105.556,105.556,813.889,97.222,/
704,-0.235,0.880,0.110,155.556,88.889,88.889,833.333,19.444,/
705,-0.250,0.840,0.120,136.111,100.000,100.000,794.444,38.889,/
706,-0.275,0.585,0.245,86.111,66.667,88.889,800.000,5.556,/
707,-0.270,0.625,0.040,66.667,113.889,113.889,813.889,13.889,/
708,-0.220,0.655,0.045,66.667,113.889,113.889,833.333,19.444,/
709,-0.255,0.730,0.265,194.444,58.333,77.778,841.667,8.333,/
710,-0.280,0.645,0.245,66.667,63.889,88.889,858.333,16.667,/
711,-0.220,0.810,0.440,58.333,72.222,111.111,861.111,2.778,/
712,-0.225,0.735,0.020,175.000,108.333,108.333,816.667,44.444,/
713,-0.340,0.580,0.040,194.444,113.889,113.889,783.333,33.333,/
714,-0.300,0.515,-0.040,36.111,86.111,86.111,794.444,11.111,/
715,-0.215,0.585,0.080,197.222,100.000,100.000,827.778,33.333,/
716,-0.275,0.835,0.265,158.333,61.111,91.667,841.667,13.889,/
717,-0.215,0.815,0.290,55.556,50.000,77.778,847.222,5.556,/
718,-0.180,0.725,0.285,155.556,55.556,86.111,852.778,5.556,/
719,-0.265,0.610,0.265,188.889,47.222,72.222,847.222,5.556,/
720,-0.300,0.810,0.075,152.778,111.111,111.111,800.000,47.222,/
721,-0.250,0.630,0.115,144.444,113.889,113.889,788.889,11.111,/
722,-0.325,0.650,0.250,166.667,63.889,102.778,805.556,16.667,/
723,-0.340,0.745,0.155,188.889,58.333,80.556,855.556,50.000,/
724,-0.320,0.865,0.180,86.111,94.444,102.778,858.333,2.778,/
725,-0.330,0.735,0.230,66.667,66.667,91.667,836.111,22.222,/
726,-0.365,0.595,0.020,61.111,113.889,113.889,847.222,11.111,/
727,-0.330,0.710,-0.010,102.778,113.889,113.889,816.667,30.556,/
728,-0.270,0.870,0.065,100.000,116.667,116.667,786.111,30.556,/
729,-0.275,0.765,0.345,150.000,50.000,94.444,797.222,11.111,/
730,-0.300,0.775,0.270,86.111,77.778,119.444,822.222,25.000,/
731,-0.270,0.760,0.155,50.000,86.111,91.667,866.667,44.444,/
732,-0.315,0.760,0.210,180.556,63.889,88.889,855.556,11.111,/
733,-0.335,0.710,0.045,52.778,105.556,105.556,827.778,27.778,/
734,-0.285,0.570,-0.005,172.222,116.667,116.667,830.556,2.778,/
735,-0.220,0.495,0.050,180.556,113.889,113.889,811.111,19.444,/
736,-0.275,0.830,0.250,66.667,66.667,91.667,788.889,22.222,/
737,-0.270,0.810,0.160,75.000,100.000,108.333,822.222,33.333,/
738,-0.235,0.730,0.375,105.556,52.778,105.556,847.222,25.000,/
739,-0.290,0.850,0.260,188.889,55.556,77.778,866.667,19.444,/
740,-0.300,0.670,0.175,50.000,50.000,72.222,847.222,19.444,/
741,-0.285,0.675,0.225,188.889,55.556,75.000,802.778,44.444,/
742,-0.305,0.585,0.190,150.000,52.778,94.444,811.111,8.333,/
743,-0.335,0.700,-0.020,86.111,105.556,105.556,805.556,5.556,/
744,-0.350,0.650,0.020,41.667,91.667,91.667,802.778,2.778,/
745,-0.385,0.650,0.125,66.667,69.444,91.667,841.667,38.889,/
746,-0.375,0.670,0.145,55.556,63.889,111.111,855.556,13.889,/
747,-0.325,0.575,0.290,61.111,44.444,94.444,872.222,16.667,/
748,-0.350,0.475,0.155,152.778,50.000,77.778,825.000,47.222,/
749,-0.345,0.665,0.135,191.667,41.667,61.111,788.889,36.111,/
750,-0.325,0.515,0.155,133.333,66.667,88.889,825.000,36.111,/
751,-0.335,0.675,0.165,61.111,63.889,86.111,811.111,13.889,/
752,-0.330,0.795,0.170,63.889,66.667,91.667,819.444,8.333,/
753,-0.335,0.790,0.185,86.111,69.444,94.444,852.778,33.333,/
754,-0.215,0.680,0.395,66.667,50.000,102.778,850.000,2.778,/
755,-0.315,0.655,0.150,58.333,63.889,108.333,841.667,8.333,/
756,-0.290,0.470,0.045,177.778,108.333,108.333,800.000,41.667,/
757,-0.295,0.655,0.175,191.667,55.556,75.000,780.556,19.444,/
758,-0.305,0.515,0.000,58.333,111.111,111.111,836.111,55.556,/
759,-0.265,0.715,0.210,52.778,55.556,77.778,827.778,8.333,/
760,-0.235,0.615,0.225,63.889,58.333,80.556,841.667,13.889,/
761,-0.190,0.660,0.395,86.111,38.889,88.889,858.333,16.667,/
762,-0.265,0.625,0.005,80.556,111.111,111.111,841.667,16.667,/
763,-0.250,0.875,0.070,136.111,113.889,113.889,825.000,16.667,/
764,-0.310,0.735,0.065,180.556,108.333,108.333,788.889,36.111,/
765,-0.305,0.725,-0.030,66.667,116.667,116.667,788.889,0.000,/
766,-0.315,0.665,0.200,66.667,50.000,88.889,850.000,61.111,/
767,-0.345,0.910,0.200,55.556,63.889,88.889,844.444,5.556,/
768,-0.280,0.675,0.305,180.556,66.667,108.333,838.889,5.556,/
769,-0.280,0.670,0.265,86.111,63.889,111.111,841.667,2.778,/
770,-0.280,0.515,0.100,61.111,113.889,113.889,819.444,22.222,/
771,-0.255,0.640,0.260,55.556,50.000,69.444,811.111,8.333,/
772,-0.245,0.700,-0.060,86.111,100.000,100.000,794.444,16.667,/
773,-0.255,0.710,0.280,52.778,55.556,77.778,802.778,8.333,/
774,-0.260,0.620,0.245,63.889,66.667,88.889,875.000,72.222,/
775,-0.290,0.580,0.175,52.778,108.333,108.333,863.889,11.111,/
776,-0.160,0.890,0.425,161.111,63.889,105.556,822.222,41.667,/
777,-0.215,0.895,0.425,138.889,55.556,97.222,822.222,0.000,/
778,-0.240,0.765,0.150,52.778,100.000,100.000,813.889,8.333,/
779,-0.260,0.540,-0.035,194.444,111.111,111.111,811.111,2.778,/
780,-0.270,0.655,0.130,55.556,105.556,105.556,794.444,16.667,/
781,-0.235,1.005,0.100,86.111,116.667,116.667,827.778,33.333,/
782,-0.280,0.795,0.250,83.333,66.667,88.889,883.333,55.556,/
783,-0.280,0.855,0.240,77.778,63.889,88.889,844.444,38.889,/
784,-0.180,0.675,0.375,177.778,61.111,100.000,813.889,30.556,/
785,-0.235,0.985,0.360,77.778,69.444,113.889,800.000,13.889,/
786,-0.220,1.020,0.235,38.889,75.000,91.667,811.111,11.111,/
787,-0.255,0.895,0.305,66.667,66.667,91.667,813.889,2.778,/
788,-0.235,0.850,0.130,55.556,105.556,105.556,819.444,5.556,/
789,-0.215,0.870,0.055,61.111,102.778,102.778,861.111,41.667,/
790,-0.265,0.910,0.305,155.556,55.556,77.778,872.222,11.111,/
791,-0.175,1.025,0.110,52.778,102.778,102.778,830.556,41.667,/
792,-0.145,0.780,0.345,197.222,50.000,72.222,800.000,30.556,/
793,0.775,0.535,-0.085,58.333,108.333,352.778,847.222,47.222,/
794,-0.200,0.855,0.295,169.444,55.556,94.444,755.556,91.667,/
795,-0.205,0.815,0.260,197.222,63.889,75.000,825.000,69.444,/
796,-0.280,0.550,0.210,186.111,52.778,91.667,838.889,13.889,/
797,-0.325,0.615,0.175,58.333,61.111,88.889,858.333,19.444,/
798,-0.275,0.875,0.245,69.444,61.111,77.778,861.111,2.778,/
799,-0.220,0.810,0.265,197.222,66.667,88.889,811.111,50.000,/
800,-0.250,0.725,0.250,58.333,61.111,83.333,794.444,16.667,/
801,-0.205,0.765,0.195,75.000,111.111,111.111,800.000,5.556,/
802,-0.250,0.795,0.285,80.556,66.667,88.889,833.333,33.333,/
803,-0.285,0.880,0.245,197.222,66.667,91.667,852.778,19.444,/
804,-0.260,0.805,0.240,69.444,66.667,91.667,838.889,13.889,/
805,-0.290,0.690,0.255,63.889,63.889,108.333,861.111,22.222,/
806,-0.300,0.560,0.165,83.333,63.889,91.667,838.889,22.222,/
807,0.850,0.365,-0.245,58.333,105.556,333.333,841.667,2.778,/
808,-0.320,0.885,0.240,180.556,63.889,111.111,733.333,108.333,/
809,-0.275,0.785,0.065,97.222,116.667,116.667,805.556,72.222,/
810,-0.260,0.870,0.295,41.667,47.222,72.222,844.444,38.889,/
811,-0.245,0.860,0.235,116.667,66.667,88.889,855.556,11.111,/
812,-0.220,0.785,0.275,111.111,55.556,77.778,841.667,13.889,/
813,-0.265,0.700,0.225,158.333,61.111,80.556,850.000,8.333,/
814,-0.300,0.730,0.025,75.000,116.667,116.667,816.667,33.333,/
815,-0.295,0.705,0.195,113.889,63.889,88.889,788.889,27.778,/
816,-0.315,0.535,0.220,61.111,61.111,108.333,811.111,22.222,/
817,-0.270,0.705,0.255,52.778,55.556,91.667,825.000,13.889,/
818,-0.210,0.895,0.475,102.778,52.778,102.778,869.444,44.444,/
819,-0.275,0.895,0.220,88.889,63.889,77.778,850.000,19.444,/
820,-0.275,0.725,0.210,66.667,63.889,102.778,827.778,22.222,/
821,-0.265,0.650,0.245,194.444,63.889,91.667,827.778,0.000,/
822,-0.225,0.800,0.270,77.778,66.667,86.111,800.000,27.778,/
823,-0.225,0.815,0.095,50.000,102.778,102.778,791.667,8.333,/
824,-0.260,0.625,0.235,58.333,58.333,80.556,822.222,30.556,/
825,-0.160,0.890,0.460,113.889,55.556,105.556,844.444,22.222,/
826,-0.210,1.000,0.295,63.889,100.000,111.111,877.778,33.333,/
827,-0.235,0.685,0.255,58.333,58.333,75.000,847.222,30.556,/
828,-0.255,0.595,0.010,197.222,113.889,113.889,802.778,44.444,/
829,-0.260,0.740,0.020,58.333,105.556,105.556,825.000,22.222,/
830,-0.300,0.710,0.240,130.556,63.889,91.667,808.333,16.667,/
831,-0.250,0.730,0.050,61.111,108.333,108.333,797.222,11.111,/
832,-0.235,0.790,0.260,55.556,52.778,72.222,844.444,47.222,/
833,-0.090,0.875,0.385,194.444,66.667,91.667,850.000,5.556,/
834,-0.170,0.740,0.375,52.778,38.889,91.667,866.667,16.667,/
835,-0.255,0.710,0.060,41.667,88.889,88.889,816.667,50.000,/
836,-0.290,0.645,-0.025,72.222,108.333,108.333,783.333,33.333,/
837,-0.315,0.640,0.185,197.222,66.667,88.889,830.556,47.222,/
838,-0.375,0.765,0.010,80.556,113.889,113.889,811.111,19.444,/
839,-0.385,0.775,-0.020,63.889,102.778,102.778,819.444,8.333,/
840,-0.360,0.445,0.020,58.333,113.889,113.889,863.889,44.444,/
841,-0.355,0.725,0.190,63.889,66.667,111.111,852.778,11.111,/
842,-0.335,0.645,0.190,80.556,47.222,69.444,847.222,5.556,/
843,0.825,0.410,-0.220,58.333,105.556,322.222,855.556,8.333,/
844,-0.305,0.815,0.215,197.222,66.667,105.556,727.778,127.778,/
845,-0.345,0.595,0.015,83.333,97.222,97.222,836.111,108.333,/
846,-0.395,0.755,0.125,58.333,63.889,105.556,827.778,8.333,/
847,-0.405,0.715,-0.075,61.111,113.889,113.889,833.333,5.556,/
848,-0.370,0.760,-0.055,77.778,111.111,111.111,850.000,16.667,/
849,-0.325,0.755,0.220,119.444,66.667,88.889,838.889,11.111,/
850,-0.300,0.685,-0.060,58.333,108.333,391.667,825.000,13.889,/
851,-0.285,0.785,0.030,66.667,113.889,113.889,788.889,36.111,/
852,-0.250,0.850,0.285,88.889,58.333,83.333,791.667,2.778,/
853,-0.240,0.575,0.265,61.111,55.556,100.000,852.778,61.111,/
854,-0.285,0.745,0.175,58.333,83.333,88.889,850.000,2.778,/
855,0.750,0.410,-0.175,63.889,111.111,352.778,905.556,55.556,/
856,-0.260,0.610,0.240,197.222,44.444,63.889,780.556,125.000,/
857,-0.320,0.715,-0.070,133.333,116.667,116.667,822.222,41.667,/
858,-0.360,0.560,-0.075,197.222,116.667,116.667,816.667,5.556,/
859,-0.360,0.465,-0.115,191.667,108.333,108.333,788.889,27.778,/
860,-0.395,0.595,-0.100,63.889,111.111,111.111,805.556,16.667,/
861,-0.400,0.590,0.000,113.889,113.889,113.889,866.667,61.111,/
862,-0.375,0.665,-0.110,63.889,108.333,108.333,850.000,16.667,/
863,-0.390,0.590,0.095,108.333,55.556,75.000,825.000,25.000,/
864,-0.285,0.535,0.215,175.000,58.333,97.222,819.444,5.556,/
865,-0.290,0.685,0.310,36.111,33.333,86.111,811.111,8.333,/
866,-0.355,0.525,-0.150,97.222,100.000,100.000,813.889,2.778,/
867,-0.355,0.605,0.100,183.333,66.667,86.111,800.000,13.889,/
868,-0.385,0.590,0.090,47.222,52.778,75.000,836.111,36.111,/
869,-0.375,0.435,0.100,169.444,63.889,83.333,883.333,47.222,/
870,-0.400,0.675,0.100,161.111,61.111,80.556,841.667,41.667,/
871,-0.345,0.530,0.180,61.111,61.111,100.000,816.667,25.000,/
872,-0.310,0.675,0.190,197.222,63.889,88.889,802.778,13.889,/
873,-0.325,0.665,0.205,91.667,58.333,77.778,811.111,8.333,/
874,-0.270,0.805,0.235,183.333,66.667,91.667,808.333,2.778,/
875,-0.305,0.800,0.010,197.222,102.778,102.778,813.889,5.556,/
876,-0.330,0.670,0.160,186.111,55.556,75.000,855.556,41.667,/
877,-0.330,0.630,0.000,55.556,105.556,105.556,869.444,13.889,/
878,-0.400,0.430,0.080,91.667,58.333,75.000,836.111,33.333,/
879,-0.410,0.485,0.100,197.222,61.111,83.333,805.556,30.556,/
880,-0.350,0.710,0.175,194.444,61.111,102.778,794.444,11.111,/
881,-0.245,0.760,0.350,75.000,47.222,91.667,822.222,27.778,/
882,-0.300,0.600,-0.095,91.667,108.333,108.333,827.778,5.556,/
883,-0.290,0.785,0.250,58.333,63.889,88.889,836.111,8.333,/
884,-0.205,0.860,0.250,52.778,58.333,75.000,861.111,25.000,/
885,-0.275,0.700,-0.055,133.333,105.556,105.556,861.111,0.000,/
886,-0.350,0.725,0.010,77.778,108.333,108.333,808.333,52.778,/
887,-0.280,0.765,0.020,66.667,97.222,97.222,788.889,19.444,/
888,-0.300,0.635,-0.065,197.222,108.333,108.333,797.222,8.333,/
889,-0.340,0.485,0.065,58.333,111.111,111.111,830.556,33.333,/
890,-0.235,0.850,0.125,61.111,108.333,108.333,833.333,2.778,/
891,-0.275,0.685,0.005,83.333,116.667,116.667,838.889,5.556,/
892,-0.355,0.695,0.180,47.222,50.000,75.000,869.444,30.556,/
893,-0.265,0.640,0.245,172.222,63.889,102.778,838.889,30.556,/
894,-0.270,0.735,0.220,80.556,66.667,88.889,794.444,44.444,/
895,-0.295,0.705,0.280,69.444,52.778,86.111,802.778,8.333,/
896,-0.235,0.875,0.295,177.778,61.111,86.111,805.556,2.778,/
897,-0.285,0.725,0.240,147.222,61.111,105.556,850.000,44.444,/
898,-0.340,0.635,0.245,58.333,61.111,108.333,850.000,0.000,/
899,-0.395,0.685,0.070,177.778,58.333,94.444,833.333,16.667,/
900,-0.435,0.635,0.065,125.000,63.889,83.333,855.556,22.222,/
901,-0.395,0.755,0.135,52.778,52.778,88.889,808.333,47.222,/
902,-0.380,0.440,-0.045,58.333,111.111,111.111,786.111,22.222,/
903,-0.385,0.695,0.065,61.111,63.889,88.889,802.778,16.667,/
904,-0.375,0.725,0.170,86.111,66.667,91.667,822.222,19.444,/
905,-0.315,0.705,0.205,55.556,58.333,102.778,872.222,50.000,/
906,-0.250,0.730,0.390,86.111,69.444,116.667,852.778,19.444,/
907,-0.280,0.795,0.110,69.444,105.556,105.556,830.556,22.222,/
908,-0.255,0.745,0.085,194.444,111.111,111.111,838.889,8.333,/
909,-0.260,0.675,0.090,36.111,88.889,88.889,805.556,33.333,/
910,-0.255,0.845,0.295,55.556,55.556,77.778,788.889,16.667,/
911,-0.235,0.835,0.130,191.667,108.333,108.333,819.444,30.556,/
912,-0.265,0.860,0.135,55.556,102.778,105.556,847.222,27.778,/
913,-0.280,0.785,0.280,58.333,61.111,88.889,872.222,25.000,/
914,-0.220,0.840,0.335,63.889,50.000,75.000,838.889,33.333,/
915,-0.130,0.840,0.520,133.333,50.000,91.667,802.778,36.111,/
916,-0.200,0.890,0.210,172.222,113.889,113.889,825.000,22.222,/
917,-0.230,0.625,0.130,197.222,113.889,113.889,802.778,22.222,/
918,-0.255,0.735,0.000,52.778,105.556,105.556,791.667,11.111,/
919,-0.270,0.815,0.125,61.111,113.889,113.889,841.667,50.000,/
920,-0.260,0.700,0.075,58.333,105.556,105.556,861.111,19.444,/
921,-0.265,0.510,-0.035,58.333,102.778,102.778,863.889,2.778,/
922,-0.290,0.485,0.015,63.889,113.889,113.889,825.000,38.889,/
923,-0.295,0.685,0.235,52.778,58.333,80.556,791.667,33.333,/
924,-0.305,0.615,0.045,169.444,94.444,94.444,827.778,36.111,/
925,0.735,0.375,-0.195,58.333,105.556,338.889,858.333,30.556,/
926,-0.330,0.525,0.205,183.333,63.889,88.889,761.111,97.222,/
927,-0.380,0.595,-0.110,61.111,105.556,105.556,852.778,91.667,/
928,-0.360,0.635,0.175,55.556,52.778,88.889,852.778,0.000,/
929,-0.335,0.530,0.040,188.889,111.111,111.111,847.222,5.556,/
930,-0.340,0.425,-0.155,52.778,102.778,102.778,797.222,50.000,/
931,-0.340,0.840,0.090,58.333,108.333,108.333,788.889,8.333,/
932,-0.325,0.785,0.190,77.778,58.333,105.556,833.333,44.444,/
933,-0.375,0.645,0.130,55.556,52.778,75.000,827.778,5.556,/
934,0.640,0.360,-0.185,63.889,111.111,380.556,902.778,75.000,/
935,-0.265,0.835,0.220,83.333,63.889,72.222,791.667,111.111,/
936,-0.290,0.585,0.050,52.778,102.778,102.778,855.556,63.889,/
937,-0.310,0.710,0.220,175.000,61.111,77.778,822.222,33.333,/
938,-0.310,0.530,-0.105,197.222,113.889,113.889,788.889,33.333,/
939,-0.330,0.630,-0.010,175.000,108.333,108.333,794.444,5.556,/
940,-0.275,0.775,0.260,58.333,55.556,77.778,847.222,52.778,/
941,-0.250,0.725,0.070,66.667,116.667,116.667,844.444,2.778,/
942,-0.285,0.580,0.035,111.111,116.667,116.667,830.556,13.889,/
943,-0.285,0.820,0.240,75.000,58.333,77.778,841.667,11.111,/
944,-0.275,0.725,0.100,66.667,116.667,116.667,830.556,11.111,/
945,-0.305,0.595,0.070,194.444,97.222,97.222,808.333,22.222,/
946,0.630,0.195,-0.190,55.556,100.000,336.111,844.444,36.111,/
947,-0.270,0.725,0.395,75.000,38.889,91.667,766.667,77.778,/
948,-0.330,0.450,0.000,61.111,108.333,108.333,869.444,102.778,/
949,-0.320,0.650,0.100,94.444,108.333,108.333,850.000,19.444,/
950,-0.310,0.520,0.195,61.111,61.111,100.000,833.333,16.667,/
951,-0.295,0.580,-0.065,69.444,108.333,108.333,825.000,8.333,/
952,-0.280,0.805,0.265,63.889,61.111,102.778,813.889,11.111,/
953,-0.220,0.755,0.105,63.889,111.111,111.111,797.222,16.667,/
954,-0.215,0.775,0.285,66.667,61.111,80.556,797.222,0.000,/
955,-0.215,0.765,0.285,66.667,66.667,88.889,841.667,44.444,/
956,-0.195,0.845,0.370,152.778,66.667,113.889,866.667,25.000,/
957,-0.260,0.560,0.210,44.444,47.222,88.889,847.222,19.444,/
958,-0.325,0.540,0.195,191.667,58.333,94.444,825.000,22.222,/
959,-0.295,0.625,0.030,194.444,111.111,111.111,802.778,22.222,/
960,-0.280,0.695,0.005,61.111,97.222,97.222,819.444,16.667,/
961,-0.290,0.695,0.240,55.556,55.556,77.778,808.333,11.111,/
962,-0.250,0.810,0.230,52.778,55.556,75.000,816.667,8.333,/
963,-0.180,0.885,0.170,75.000,105.556,105.556,869.444,52.778,/
964,-0.180,0.795,0.340,155.556,52.778,75.000,863.889,5.556,/
965,-0.215,0.710,0.300,66.667,66.667,108.333,827.778,36.111,/
966,-0.215,0.840,0.270,191.667,55.556,75.000,805.556,22.222,/
967,0.760,0.380,-0.200,61.111,108.333,358.333,852.778,47.222,/
968,-0.305,0.735,0.205,150.000,83.333,88.889,761.111,91.667,/
969,-0.315,0.650,-0.020,77.778,116.667,116.667,819.444,58.333,/
970,-0.310,0.740,0.245,47.222,50.000,75.000,827.778,8.333,/
971,-0.300,0.825,0.160,55.556,69.444,75.000,872.222,44.444,/
972,-0.280,0.865,0.065,41.667,94.444,94.444,855.556,16.667,/
973,-0.215,0.920,0.185,50.000,100.000,100.000,808.333,47.222,/
974,-0.205,0.845,0.330,52.778,52.778,94.444,802.778,5.556,/
975,-0.185,0.665,0.265,191.667,58.333,100.000,802.778,0.000,/
976,-0.245,0.955,0.440,111.111,50.000,105.556,827.778,25.000,/
977,-0.330,0.520,0.200,191.667,61.111,91.667,841.667,13.889,/
978,-0.365,0.680,-0.005,194.444,111.111,111.111,833.333,8.333,/
979,-0.370,0.550,-0.025,66.667,116.667,116.667,875.000,41.667,/
980,-0.345,0.635,0.210,61.111,61.111,83.333,827.778,47.222,/
981,-0.335,0.745,0.005,63.889,113.889,113.889,783.333,44.444,/
982,-0.320,0.590,-0.055,66.667,113.889,113.889,802.778,19.444,/
983,-0.265,0.720,0.000,102.778,116.667,116.667,805.556,2.778,/
984,-0.240,0.870,0.070,69.444,116.667,116.667,847.222,41.667,/
985,-0.285,0.810,0.220,80.556,66.667,88.889,847.222,0.000,/
986,-0.150,0.850,0.390,172.222,55.556,102.778,838.889,8.333,/
987,-0.170,0.740,0.480,102.778,66.667,119.444,866.667,27.778,/
988,-0.250,0.775,0.035,169.444,97.222,97.222,811.111,55.556,/
989,-0.305,0.680,-0.125,186.111,105.556,105.556,788.889,22.222,/
990,-0.325,0.580,-0.010,177.778,113.889,113.889,805.556,16.667,/
991,-0.270,0.785,0.095,52.778,100.000,100.000,825.000,19.444,/
992,-0.225,1.000,0.130,52.778,102.778,102.778,866.667,41.667,/
993,-0.180,0.825,0.350,80.556,66.667,88.889,844.444,22.222,/
994,-0.160,0.985,0.245,55.556,108.333,108.333,825.000,19.444,/
995,-0.175,0.645,0.050,100.000,105.556,105.556,844.444,19.444,/
996,-0.205,0.790,0.295,197.222,63.889,88.889,800.000,44.444,/
997,-0.200,0.760,0.295,177.778,61.111,105.556,777.778,22.222,/
998,0.780,0.375,-0.110,55.556,100.000,341.667,869.444,91.667,/
999,-0.285,0.740,0.050,197.222,111.111,111.111,800.000,69.444,/
1000,-0.310,0.700,-0.010,69.444,113.889,113.889,872.222,72.222,/
1001,-0.270,0.695,0.000,72.222,100.000,100.000,836.111,36.111,/
1002,-0.235,0.710,0.110,91.667,105.556,105.556,819.444,16.667,/
1003,-0.215,0.885,0.065,52.778,102.778,102.778,830.556,11.111,/
1004,-0.185,0.550,0.080,69.444,116.667,405.556,797.222,33.333,/
1005,-0.155,0.930,0.415,55.556,58.333,80.556,788.889,8.333,/
1006,-0.140,0.905,0.370,55.556,61.111,105.556,836.111,47.222,/
1007,-0.175,0.855,0.335,186.111,55.556,100.000,861.111,25.000,/
1008,-0.135,0.960,0.535,88.889,58.333,108.333,852.778,8.333,/
1009,-0.230,0.665,0.075,58.333,111.111,111.111,819.444,33.333,/
1010,-0.220,0.675,0.070,194.444,111.111,111.111,802.778,16.667,/
1011,-0.215,0.860,0.115,150.000,111.111,111.111,819.444,16.667,/
1012,-0.255,0.655,-0.030,186.111,102.778,102.778,802.778,16.667,/
1013,-0.240,0.905,0.150,50.000,102.778,102.778,816.667,13.889,/
1014,-0.210,0.790,0.250,94.444,100.000,105.556,858.333,41.667,/
1015,-0.120,0.855,0.395,197.222,66.667,105.556,869.444,11.111,/
1016,-0.100,0.945,0.475,100.000,66.667,111.111,838.889,30.556,/
1017,-0.155,0.765,0.405,75.000,38.889,77.778,805.556,33.333,/
1018,-0.175,0.815,0.355,77.778,47.222,86.111,802.778,2.778,/
1019,-0.270,0.895,0.005,191.667,108.333,108.333,816.667,13.889,/
1020,-0.300,0.630,-0.050,113.889,113.889,113.889,819.444,2.778,/
1021,-0.280,0.855,0.255,63.889,66.667,91.667,836.111,16.667,/
1022,-0.270,0.610,0.065,66.667,116.667,116.667,850.000,13.889,/
1023,-0.265,0.950,0.095,91.667,108.333,108.333,861.111,11.111,/
1024,-0.180,0.660,0.070,58.333,111.111,391.667,816.667,44.444,/
1025,-0.025,0.950,0.185,197.222,113.889,113.889,786.111,30.556,/
1026,-0.145,0.675,0.335,100.000,66.667,88.889,819.444,33.333,/
1027,-0.145,0.875,0.435,161.111,63.889,108.333,830.556,11.111,/
1028,-0.225,0.775,0.365,197.222,66.667,111.111,836.111,5.556,/
1029,-0.335,0.610,0.025,100.000,105.556,105.556,852.778,16.667,/
1030,-0.360,0.795,0.165,194.444,61.111,88.889,841.667,11.111,/
1031,-0.345,0.695,0.175,69.444,66.667,88.889,838.889,2.778,/
1032,-0.335,0.695,-0.025,61.111,113.889,113.889,797.222,41.667,/
1033,-0.285,0.680,0.145,177.778,111.111,111.111,783.333,13.889,/
1034,-0.255,0.855,0.090,61.111,111.111,111.111,830.556,47.222,/
1035,-0.235,0.720,0.105,72.222,88.889,88.889,844.444,13.889,/
1036,-0.240,0.835,0.295,61.111,61.111,88.889,838.889,5.556,/
1037,-0.245,0.775,0.105,127.778,113.889,113.889,852.778,13.889,/
1038,-0.290,0.735,0.105,91.667,116.667,116.667,825.000,27.778,/
1039,-0.320,0.840,0.170,194.444,63.889,86.111,822.222,2.778,/
1040,-0.350,0.475,0.125,194.444,61.111,100.000,802.778,19.444,/
1041,-0.365,0.615,0.255,108.333,55.556,97.222,791.667,11.111,/
1042,-0.405,0.550,0.030,63.889,86.111,94.444,861.111,69.444,/
1043,-0.415,0.650,0.015,61.111,111.111,111.111,863.889,2.778,/
1044,-0.380,0.620,-0.045,97.222,111.111,111.111,836.111,27.778,/
1045,-0.355,0.645,-0.040,100.000,116.667,116.667,836.111,0.000,/
1046,-0.345,0.735,0.195,55.556,55.556,77.778,802.778,33.333,/
1047,-0.365,0.815,0.040,55.556,102.778,102.778,813.889,11.111,/
1048,-0.365,0.745,-0.035,100.000,105.556,105.556,800.000,13.889,/
1049,-0.365,0.820,0.095,72.222,108.333,108.333,805.556,5.556,/
1050,-0.360,0.680,0.185,52.778,58.333,80.556,880.556,75.000,/
1051,-0.310,0.860,0.385,119.444,52.778,108.333,861.111,19.444,/
1052,-0.335,0.700,0.135,191.667,108.333,108.333,825.000,36.111,/
1053,-0.380,0.775,0.055,191.667,94.444,94.444,816.667,8.333,/
1054,-0.365,0.540,-0.130,66.667,113.889,113.889,805.556,11.111,/
1055,-0.310,0.760,0.105,186.111,105.556,105.556,822.222,16.667,/
1056,-0.295,0.890,0.040,55.556,111.111,111.111,808.333,13.889,/
1057,-0.305,0.760,0.170,194.444,100.000,113.889,833.333,25.000,/
1058,-0.200,0.780,0.290,197.222,66.667,91.667,886.111,52.778,/
1059,-0.255,0.980,0.335,52.778,61.111,108.333,844.444,41.667,/
1060,-0.335,0.520,-0.135,163.889,111.111,111.111,805.556,38.889,/
1061,-0.370,0.610,-0.050,161.111,111.111,111.111,797.222,8.333,/
1062,-0.365,0.630,-0.030,55.556,108.333,108.333,797.222,0.000,/
1063,-0.310,0.850,-0.060,61.111,100.000,100.000,822.222,25.000,/
1064,-0.255,0.620,0.160,77.778,111.111,111.111,830.556,8.333,/
1065,-0.205,0.780,0.120,52.778,105.556,105.556,844.444,13.889,/
1066,-0.225,0.785,0.270,55.556,58.333,77.778,883.333,38.889,/
1067,-0.140,0.760,0.435,186.111,63.889,102.778,827.778,55.556,/
1068,-0.165,0.930,0.430,52.778,58.333,105.556,788.889,38.889,/
1069,-0.155,0.655,0.350,52.778,47.222,83.333,802.778,13.889,/
1070,-0.265,0.915,0.310,197.222,69.444,108.333,808.333,5.556,/
1071,-0.315,0.680,-0.015,66.667,113.889,113.889,847.222,38.889,/
1072,-0.350,0.840,-0.010,94.444,111.111,111.111,847.222,0.000,/
1073,-0.345,0.530,0.170,188.889,58.333,83.333,844.444,2.778,/
1074,-0.320,0.605,-0.095,52.778,102.778,102.778,861.111,16.667,/
1075,-0.305,0.610,-0.050,75.000,116.667,383.333,802.778,58.333,/
1076,-0.270,0.820,0.125,50.000,97.222,97.222,777.778,25.000,/
1077,-0.265,0.580,0.230,183.333,61.111,102.778,800.000,22.222,/
1078,-0.165,0.815,0.465,113.889,63.889,122.222,833.333,33.333,/
1079,-0.220,0.960,0.305,133.333,69.444,108.333,866.667,33.333,/
1080,-0.265,0.870,0.035,150.000,116.667,116.667,850.000,16.667,/
1081,-0.290,0.540,0.015,94.444,108.333,108.333,844.444,5.556,/
1082,-0.275,0.800,-0.005,61.111,111.111,111.111,833.333,11.111,/
1083,-0.300,0.625,-0.085,61.111,108.333,375.000,797.222,36.111,/
1084,-0.295,0.930,0.015,52.778,105.556,105.556,777.778,19.444,/
1085,-0.270,0.720,0.085,52.778,102.778,102.778,816.667,38.889,/
1086,-0.280,0.910,0.185,61.111,61.111,86.111,861.111,44.444,/
1087,-0.330,0.820,0.190,97.222,66.667,86.111,852.778,8.333,/
1088,-0.280,0.735,0.365,150.000,66.667,119.444,836.111,16.667,/
1089,-0.305,0.800,0.245,55.556,47.222,91.667,830.556,5.556,/
1090,-0.295,0.590,0.205,61.111,44.444,86.111,811.111,19.444,/
1091,-0.345,0.775,0.125,197.222,63.889,88.889,786.111,25.000,/
1092,-0.335,0.845,0.160,66.667,55.556,100.000,805.556,19.444,/
1093,-0.295,0.685,0.300,91.667,47.222,91.667,841.667,36.111,/
1094,-0.255,0.840,0.285,91.667,41.667,86.111,880.556,38.889,/
1095,-0.265,0.615,0.250,91.667,44.444,83.333,850.000,30.556,/
1096,-0.305,0.865,-0.065,52.778,105.556,105.556,813.889,36.111,/
1097,-0.280,0.665,0.000,77.778,105.556,105.556,819.444,5.556,/
1098,-0.290,0.855,-0.020,47.222,97.222,97.222,805.556,13.889,/
1099,-0.315,0.610,-0.065,191.667,111.111,111.111,797.222,8.333,/
1100,-0.275,0.800,0.075,55.556,111.111,111.111,830.556,33.333,/
1101,-0.235,0.770,0.100,58.333,102.778,102.778,847.222,16.667,/
1102,-0.285,0.680,0.165,80.556,102.778,113.889,872.222,25.000,/
1103,-0.240,0.750,0.335,186.111,58.333,100.000,830.556,41.667,/
1104,-0.225,0.725,0.320,61.111,41.667,83.333,786.111,44.444,/
1105,-0.230,0.800,0.285,63.889,47.222,88.889,819.444,33.333,/
1106,-0.255,0.680,0.180,55.556,55.556,94.444,822.222,2.778,/
1107,-0.300,0.695,-0.025,100.000,116.667,116.667,813.889,8.333,/
1108,-0.255,0.685,0.075,105.556,116.667,116.667,855.556,41.667,/
1109,-0.230,0.810,0.325,191.667,58.333,83.333,852.778,2.778,/
1110,-0.245,0.715,0.090,69.444,116.667,116.667,861.111,8.333,/
1111,-0.235,0.695,0.055,77.778,108.333,108.333,805.556,55.556,/
1112,-0.230,0.870,0.040,188.889,116.667,116.667,777.778,27.778,/
1113,-0.270,0.850,0.145,61.111,113.889,113.889,827.778,50.000,/
1114,-0.205,1.040,0.285,75.000,66.667,80.556,825.000,2.778,/
1115,-0.130,0.895,0.455,186.111,66.667,108.333,830.556,5.556,/
1116,-0.260,0.955,0.350,197.222,69.444,122.222,850.000,19.444,/
1117,-0.300,0.905,0.255,80.556,66.667,111.111,847.222,2.778,/
1118,-0.290,0.750,0.080,188.889,116.667,116.667,836.111,11.111,/
1119,-0.310,0.930,-0.015,194.444,111.111,111.111,791.667,44.444,/
1120,-0.275,0.605,0.000,105.556,102.778,102.778,791.667,0.000,/
1121,-0.225,0.800,0.200,161.111,111.111,111.111,841.667,50.000,/
1122,-0.255,0.715,0.095,75.000,105.556,105.556,844.444,2.778,/
1123,-0.265,0.715,0.095,63.889,116.667,116.667,841.667,2.778,/
1124,-0.220,0.775,0.040,58.333,108.333,108.333,844.444,2.778,/
1125,-0.200,0.915,0.205,63.889,113.889,113.889,822.222,22.222,/
1126,-0.160,1.005,0.350,66.667,66.667,86.111,819.444,2.778,/
1127,0.935,0.545,-0.060,58.333,105.556,333.333,850.000,30.556,/
1128,-0.160,0.940,0.355,55.556,63.889,108.333,738.889,111.111,/
1129,-0.185,0.785,0.355,47.222,50.000,91.667,858.333,119.444,/
1130,-0.265,0.825,0.225,50.000,52.778,94.444,852.778,5.556,/
1131,-0.320,0.830,-0.030,58.333,105.556,105.556,838.889,13.889,/
1132,-0.305,0.565,-0.095,41.667,94.444,94.444,833.333,5.556,/
1133,-0.265,0.850,0.055,50.000,100.000,100.000,811.111,22.222,/
1134,-0.260,0.535,-0.030,77.778,108.333,391.667,825.000,13.889,/
1135,-0.235,0.850,0.065,66.667,94.444,377.778,797.222,27.778,/
1136,-0.240,0.830,0.290,77.778,63.889,91.667,819.444,22.222,/
1137,-0.270,0.755,0.105,58.333,108.333,108.333,880.556,61.111,/
1138,-0.270,0.630,0.225,55.556,52.778,75.000,847.222,33.333,/
1139,-0.245,0.700,0.345,163.889,52.778,94.444,816.667,30.556,/
1140,-0.320,0.650,0.000,197.222,113.889,113.889,811.111,5.556,/
1141,-0.325,0.595,-0.150,52.778,100.000,100.000,802.778,8.333,/
1142,-0.350,0.715,-0.145,58.333,105.556,105.556,805.556,2.778,/
1143,-0.390,0.675,-0.100,69.444,102.778,102.778,813.889,8.333,/
1144,-0.350,0.690,-0.010,50.000,97.222,97.222,844.444,30.556,/
1145,-0.345,0.685,0.020,58.333,105.556,105.556,875.000,30.556,/
1146,-0.335,0.815,0.055,69.444,116.667,116.667,844.444,30.556,/
1147,-0.290,0.565,0.185,52.778,50.000,66.667,813.889,30.556,/
1148,0.745,0.400,-0.205,58.333,105.556,361.111,855.556,41.667,/
1149,-0.330,0.690,0.080,133.333,113.889,113.889,761.111,94.444,/
1150,-0.390,0.790,-0.030,180.556,111.111,111.111,813.889,52.778,/
1151,-0.400,0.650,-0.075,197.222,97.222,97.222,833.333,19.444,/
1152,-0.390,0.670,-0.065,58.333,102.778,102.778,861.111,27.778,/
1153,-0.335,0.730,-0.010,86.111,116.667,116.667,861.111,0.000,/
1154,-0.235,0.820,0.015,58.333,108.333,108.333,822.222,38.889,/
1155,-0.215,0.800,0.075,63.889,113.889,113.889,791.667,30.556,/
1156,-0.210,0.875,0.120,52.778,108.333,108.333,791.667,0.000,/
1157,-0.220,0.795,0.060,183.333,113.889,113.889,825.000,33.333,/
1158,-0.265,0.780,0.105,63.889,116.667,116.667,836.111,11.111,/
1159,-0.280,0.610,0.095,83.333,116.667,116.667,847.222,11.111,/
1160,-0.185,0.845,0.355,177.778,50.000,94.444,863.889,16.667,/
1161,-0.250,0.650,0.380,83.333,55.556,97.222,855.556,8.333,/
1162,-0.345,0.855,-0.135,163.889,86.111,86.111,797.222,58.333,/
1163,-0.370,0.605,-0.150,58.333,108.333,388.889,794.444,2.778,/
1164,-0.395,0.755,-0.030,55.556,108.333,108.333,797.222,2.778,/
1165,-0.375,0.680,-0.025,86.111,116.667,116.667,844.444,47.222,/
1166,-0.265,0.925,0.075,66.667,116.667,116.667,847.222,2.778,/
1167,-0.210,0.910,0.120,186.111,102.778,102.778,836.111,11.111,/
1168,-0.235,0.660,0.165,61.111,116.667,116.667,863.889,27.778,/
1169,-0.245,0.870,0.140,197.222,116.667,116.667,819.444,44.444,/
1170,0.755,0.415,-0.190,55.556,105.556,341.667,838.889,19.444,/
1171,-0.310,0.795,0.060,191.667,105.556,105.556,747.222,91.667,/
1172,-0.415,0.655,-0.075,55.556,100.000,100.000,816.667,69.444,/
1173,-0.360,0.650,0.000,72.222,116.667,116.667,866.667,50.000,/
1174,-0.390,0.645,-0.020,75.000,108.333,108.333,852.778,13.889,/
1175,-0.380,0.900,0.015,55.556,105.556,105.556,830.556,22.222,/
1176,-0.355,0.520,0.035,55.556,105.556,105.556,850.000,19.444,/
1177,-0.235,0.805,0.365,158.333,66.667,105.556,802.778,47.222,/
1178,-0.265,0.845,0.255,52.778,55.556,94.444,783.333,19.444,/
1179,-0.275,0.900,0.085,52.778,102.778,102.778,811.111,27.778,/
1180,-0.210,0.785,0.135,61.111,111.111,111.111,841.667,30.556,/
1181,-0.260,0.835,0.275,177.778,61.111,83.333,866.667,25.000,/
1182,-0.260,0.845,0.085,55.556,111.111,111.111,844.444,22.222,/
1183,-0.245,0.895,0.080,66.667,116.667,116.667,811.111,33.333,/
1184,-0.240,0.950,0.295,63.889,61.111,88.889,825.000,13.889,/
1185,-0.215,0.710,0.170,69.444,116.667,116.667,808.333,16.667,/
1186,-0.175,0.935,0.360,147.222,63.889,105.556,797.222,11.111,/
1187,-0.045,1.010,0.470,47.222,33.333,72.222,833.333,36.111,/
1188,-0.170,0.770,0.180,61.111,111.111,111.111,861.111,27.778,/
1189,-0.200,0.850,0.125,166.667,116.667,116.667,875.000,13.889,/
1190,0.865,-0.650,-0.050,86.111,2.778,258.333,908.333,33.333,/
1191,-0.265,0.860,0.050,100.000,116.667,116.667,705.556,202.778,/
1192,-0.280,0.520,-0.015,77.778,111.111,111.111,827.778,122.222,/
1193,-0.240,0.905,0.140,61.111,108.333,108.333,802.778,25.000,/
1194,-0.225,0.715,0.295,83.333,52.778,72.222,808.333,5.556,/
1195,-0.235,0.670,0.315,180.556,50.000,91.667,844.444,36.111,/
1196,-0.240,0.815,0.305,66.667,33.333,75.000,852.778,8.333,/
1197,0.790,-0.800,-0.180,86.111,0.000,258.333,938.889,86.111,/
1198,-0.310,0.900,-0.035,61.111,111.111,111.111,719.444,219.444,/
1199,-0.205,0.540,-0.030,52.778,88.889,88.889,794.444,75.000,/
1200,-0.190,0.960,0.125,197.222,113.889,113.889,827.778,33.333,/
1201,-0.235,0.600,0.095,102.778,113.889,113.889,819.444,8.333,/
1202,-0.235,0.945,0.235,80.556,100.000,111.111,830.556,11.111,/
1203,-0.230,0.625,0.260,188.889,55.556,75.000,855.556,25.000,/
1204,-0.205,0.955,0.400,97.222,52.778,97.222,847.222,8.333,/
1205,-0.290,0.705,-0.065,86.111,102.778,102.778,833.333,13.889,/
1206,-0.285,0.805,-0.085,177.778,111.111,111.111,791.667,41.667,/
1207,-0.290,0.640,0.035,50.000,105.556,105.556,794.444,2.778,/
1208,-0.260,0.795,-0.015,69.444,113.889,113.889,830.556,36.111,/
1209,-0.245,0.890,0.050,138.889,102.778,102.778,836.111,5.556,/
1210,-0.315,0.675,0.175,61.111,61.111,88.889,838.889,2.778,/
1211,-0.240,0.825,0.390,119.444,38.889,91.667,844.444,5.556,/
1212,-0.195,0.725,0.425,97.222,63.889,108.333,844.444,0.000,/
1213,-0.260,0.705,0.030,77.778,113.889,113.889,813.889,30.556,/
1214,-0.250,0.770,-0.030,141.667,111.111,111.111,794.444,19.444,/
1215,-0.240,0.785,0.050,163.889,97.222,97.222,808.333,13.889,/
1216,-0.285,0.700,0.025,55.556,102.778,102.778,855.556,47.222,/
1217,-0.290,0.745,-0.010,75.000,108.333,108.333,852.778,2.778,/
1218,-0.215,0.650,0.160,55.556,105.556,105.556,830.556,22.222,/
1219,-0.190,0.880,0.345,194.444,47.222,88.889,827.778,2.778,/
1220,-0.210,0.580,0.350,75.000,41.667,86.111,825.000,2.778,/
1221,-0.260,0.725,0.015,125.000,108.333,108.333,797.222,27.778,/
1222,-0.285,0.600,-0.105,166.667,97.222,97.222,791.667,5.556,/
1223,-0.350,0.770,-0.015,66.667,113.889,113.889,833.333,41.667,/
1224,-0.315,0.655,-0.020,197.222,113.889,113.889,866.667,33.333,/
1225,-0.275,0.470,-0.015,58.333,113.889,113.889,847.222,19.444,/
1226,-0.270,0.855,0.205,63.889,66.667,91.667,833.333,13.889,/
1227,-0.170,0.760,0.460,127.778,44.444,88.889,813.889,19.444,/
1228,-0.230,0.610,0.110,55.556,111.111,111.111,819.444,5.556,/
1229,-0.295,0.630,-0.070,194.444,94.444,94.444,800.000,19.444,/
1230,-0.355,0.580,-0.065,183.333,116.667,116.667,802.778,2.778,/
1231,-0.295,0.540,0.005,97.222,111.111,111.111,863.889,61.111,/
1232,-0.270,0.745,0.055,72.222,105.556,105.556,858.333,5.556,/
1233,-0.215,0.575,0.155,50.000,100.000,100.000,833.333,25.000,/
1234,-0.215,0.845,0.305,91.667,61.111,83.333,819.444,13.889,/
1235,-0.210,0.740,0.315,183.333,50.000,91.667,794.444,25.000,/
1236,-0.235,0.730,0.280,52.778,50.000,91.667,813.889,19.444,/
1237,-0.340,0.640,-0.005,161.111,108.333,108.333,811.111,2.778,/
1238,-0.345,0.770,0.005,66.667,116.667,116.667,825.000,13.889,/
1239,-0.290,0.720,0.080,63.889,113.889,113.889,877.778,52.778,/
1240,-0.270,0.720,0.075,55.556,105.556,105.556,861.111,16.667,/
1241,-0.250,0.660,0.045,58.333,105.556,105.556,816.667,44.444,/
1242,-0.295,0.630,0.225,50.000,50.000,75.000,808.333,8.333,/
1243,-0.215,0.845,0.280,191.667,63.889,108.333,797.222,11.111,/
1244,-0.200,0.680,0.440,119.444,52.778,105.556,825.000,27.778,/
1245,-0.260,0.895,0.090,116.667,100.000,100.000,827.778,2.778,/
1246,-0.250,0.695,0.085,52.778,102.778,102.778,838.889,11.111,/
1247,-0.205,0.895,0.130,163.889,111.111,111.111,875.000,36.111,/
1248,-0.255,0.565,0.055,52.778,105.556,105.556,841.667,33.333,/
1249,-0.280,0.895,0.025,50.000,105.556,105.556,783.333,58.333,/
1250,0.825,-0.715,-0.110,88.889,0.000,244.444,886.111,102.778,/
1251,-0.260,0.875,0.085,58.333,111.111,111.111,719.444,166.667,/
1252,-0.230,0.785,0.270,63.889,66.667,91.667,838.889,119.444,/
1253,-0.110,0.945,0.405,197.222,66.667,111.111,847.222,8.333,/
1254,-0.175,0.930,0.445,72.222,41.667,91.667,841.667,5.556,/
1255,-0.270,0.560,0.010,80.556,116.667,116.667,877.778,36.111,/
1256,-0.295,0.595,-0.130,194.444,113.889,113.889,813.889,63.889,/
1257,-0.355,0.500,-0.150,113.889,113.889,113.889,783.333,30.556,/
1258,-0.310,0.820,-0.115,80.556,116.667,397.222,800.000,16.667,/
1259,-0.290,0.670,0.015,147.222,113.889,113.889,819.444,19.444,/
1260,-0.305,0.815,0.005,61.111,108.333,108.333,861.111,41.667,/
1261,-0.320,0.715,0.040,102.778,113.889,113.889,841.667,19.444,/
1262,-0.270,0.705,0.260,183.333,50.000,72.222,833.333,8.333,/
1263,-0.290,0.765,0.335,72.222,52.778,94.444,850.000,16.667,/
1264,-0.310,0.570,-0.015,58.333,105.556,105.556,802.778,47.222,/
1265,-0.250,0.590,-0.005,175.000,108.333,108.333,786.111,16.667,/
1266,-0.250,0.755,0.000,52.778,102.778,102.778,813.889,27.778,/
1267,-0.270,0.780,0.035,169.444,113.889,113.889,844.444,30.556,/
1268,-0.245,0.690,-0.005,163.889,94.444,94.444,877.778,33.333,/
1269,-0.340,0.525,-0.105,52.778,102.778,102.778,841.667,36.111,/
1270,-0.350,0.690,-0.065,83.333,116.667,116.667,813.889,27.778,/
1271,-0.300,0.665,0.215,69.444,52.778,75.000,833.333,19.444,/
1272,-0.285,0.615,0.195,169.444,66.667,88.889,800.000,33.333,/
1273,-0.220,0.715,0.370,72.222,50.000,88.889,783.333,16.667,/
1274,-0.255,0.485,-0.060,183.333,113.889,113.889,830.556,47.222,/
1275,-0.325,0.710,0.000,69.444,102.778,102.778,855.556,25.000,/
1276,-0.320,0.460,-0.120,122.222,111.111,111.111,866.667,11.111,/
1277,-0.335,0.445,-0.075,191.667,108.333,108.333,822.222,44.444,/
1278,-0.340,0.690,-0.010,61.111,111.111,111.111,802.778,19.444,/
1279,-0.265,0.800,-0.030,61.111,102.778,102.778,830.556,27.778,/
1280,-0.285,0.670,0.230,52.778,50.000,72.222,808.333,22.222,/
1281,-0.255,0.825,0.235,58.333,58.333,80.556,805.556,2.778,/
1282,0.825,0.440,-0.085,61.111,108.333,363.889,911.111,105.556,/
1283,-0.280,0.635,0.025,191.667,91.667,91.667,805.556,105.556,/
1284,-0.310,0.545,-0.045,55.556,108.333,108.333,847.222,41.667,/
1285,-0.305,0.725,-0.055,141.667,108.333,108.333,802.778,44.444,/
1286,-0.250,0.750,0.045,191.667,105.556,105.556,800.000,2.778,/
1287,-0.275,0.725,0.010,77.778,111.111,111.111,819.444,19.444,/
1288,-0.300,0.830,0.050,105.556,108.333,108.333,811.111,8.333,/
1289,-0.255,0.600,0.250,188.889,61.111,86.111,830.556,19.444,/
1290,-0.265,0.910,0.300,30.556,36.111,77.778,847.222,16.667,/
1291,-0.290,0.730,0.015,44.444,91.667,91.667,861.111,13.889,/
1292,-0.200,0.830,0.025,41.667,91.667,91.667,830.556,30.556,/
1293,-0.250,0.770,0.025,122.222,91.667,91.667,797.222,33.333,/
1294,-0.280,0.960,0.060,77.778,113.889,113.889,805.556,8.333,/
1295,-0.260,0.595,0.020,61.111,94.444,94.444,830.556,25.000,/
1296,-0.290,0.860,0.250,58.333,58.333,77.778,830.556,0.000,/
1297,-0.255,0.730,0.285,55.556,52.778,75.000,847.222,16.667,/
1298,-0.225,0.885,0.310,197.222,61.111,105.556,838.889,8.333,/
1299,0.835,0.500,-0.145,63.889,111.111,361.111,911.111,72.222,/
1300,-0.245,0.805,0.120,197.222,100.000,100.000,744.444,166.667,/
1301,-0.260,0.825,0.050,61.111,105.556,105.556,783.333,38.889,/
1302,-0.270,0.730,0.055,166.667,100.000,100.000,819.444,36.111,/
1303,-0.325,0.935,0.025,58.333,108.333,108.333,838.889,19.444,/
1304,-0.285,0.725,0.040,58.333,113.889,113.889,841.667,2.778,/
1305,-0.220,0.725,0.105,100.000,113.889,113.889,850.000,8.333,/
1306,-0.245,0.880,0.090,63.889,116.667,116.667,836.111,13.889,/
1307,-0.250,0.630,0.095,61.111,113.889,113.889,827.778,8.333,/
1308,-0.255,0.770,0.060,63.889,113.889,113.889,800.000,27.778,/
1309,-0.275,0.910,0.220,197.222,69.444,108.333,786.111,13.889,/
1310,-0.200,0.850,0.485,97.222,66.667,122.222,847.222,61.111,/
1311,-0.200,0.795,0.285,186.111,66.667,108.333,855.556,8.333,/
1312,-0.270,0.750,0.055,55.556,105.556,105.556,836.111,19.444,/
1313,-0.285,0.745,0.000,77.778,111.111,111.111,844.444,8.333,/
1314,-0.290,0.820,0.005,113.889,113.889,113.889,813.889,30.556,/
1315,-0.325,0.745,-0.055,52.778,108.333,108.333,811.111,2.778,/
1316,-0.320,0.625,-0.040,66.667,116.667,377.778,794.444,16.667,/
1317,-0.265,0.805,0.030,169.444,116.667,116.667,800.000,5.556,/
1318,-0.300,0.840,0.080,72.222,116.667,116.667,869.444,69.444,/
1319,-0.235,0.775,0.115,52.778,102.778,102.778,863.889,5.556,/
1320,-0.155,0.800,0.400,186.111,58.333,105.556,838.889,25.000,/
1321,-0.220,0.630,0.315,52.778,36.111,75.000,827.778,11.111,/
1322,-0.320,0.565,-0.080,58.333,105.556,105.556,802.778,25.000,/
1323,-0.315,0.650,-0.085,50.000,102.778,102.778,813.889,11.111,/
1324,-0.335,0.550,-0.065,50.000,105.556,105.556,802.778,11.111,/
1325,-0.285,0.705,0.030,111.111,94.444,94.444,822.222,19.444,/
1326,-0.270,0.665,0.025,144.444,111.111,111.111,883.333,61.111,/
1327,-0.325,0.810,-0.010,150.000,113.889,113.889,852.778,30.556,/
1328,-0.335,0.490,-0.115,58.333,108.333,108.333,811.111,41.667,/
1329,-0.320,0.630,-0.070,55.556,105.556,105.556,797.222,13.889,/
1330,-0.330,0.795,0.050,55.556,108.333,108.333,797.222,0.000,/
1331,-0.220,0.820,0.370,130.556,58.333,102.778,825.000,27.778,/
1332,-0.290,0.730,-0.050,77.778,116.667,116.667,819.444,5.556,/
1333,-0.295,0.550,-0.005,177.778,111.111,111.111,847.222,27.778,/
1334,-0.335,0.865,-0.010,66.667,116.667,116.667,888.889,41.667,/
1335,-0.360,0.570,-0.090,61.111,105.556,372.222,838.889,50.000,/
1336,-0.305,0.735,-0.080,111.111,113.889,113.889,788.889,50.000,/
1337,-0.315,0.675,0.035,55.556,105.556,105.556,794.444,5.556,/
1338,-0.220,0.835,0.390,161.111,66.667,111.111,805.556,11.111,/
1339,-0.170,0.730,0.510,113.889,63.889,108.333,833.333,27.778,/
1340,-0.245,0.860,0.055,50.000,102.778,102.778,838.889,5.556,/
1341,-0.250,0.895,0.065,83.333,116.667,116.667,847.222,8.333,/
1342,-0.280,0.815,-0.030,183.333,102.778,102.778,869.444,22.222,/
1343,-0.300,0.665,-0.135,197.222,113.889,391.667,811.111,58.333,/
1344,-0.265,0.475,-0.110,63.889,116.667,405.556,783.333,27.778,/
1345,-0.300,0.730,-0.005,58.333,108.333,108.333,794.444,11.111,/
1346,-0.285,0.755,0.075,52.778,102.778,102.778,827.778,33.333,/
1347,-0.245,0.845,0.275,194.444,63.889,102.778,858.333,30.556,/
1348,-0.285,0.620,0.290,86.111,50.000,88.889,858.333,0.000,/
1349,-0.310,0.790,0.060,63.889,111.111,111.111,844.444,13.889,/
1350,-0.300,0.755,-0.075,136.111,105.556,105.556,841.667,2.778,/
1351,-0.315,0.730,-0.140,52.778,108.333,108.333,797.222,44.444,/
1352,-0.300,0.715,-0.025,136.111,100.000,100.000,780.556,16.667,/
1353,-0.310,0.700,-0.015,155.556,116.667,116.667,805.556,25.000,/
1354,-0.330,0.725,0.015,91.667,111.111,111.111,852.778,47.222,/
1355,-0.390,0.470,-0.065,69.444,116.667,116.667,861.111,8.333,/
1356,-0.355,0.705,0.135,188.889,58.333,77.778,836.111,25.000,/
1357,-0.380,0.645,0.075,36.111,44.444,55.556,836.111,0.000,/
1358,-0.260,0.800,0.370,130.556,69.444,108.333,819.444,16.667,/
1359,-0.310,0.505,-0.005,175.000,108.333,108.333,794.444,25.000,/
1360,-0.365,0.725,0.005,52.778,102.778,102.778,797.222,2.778,/
1361,-0.360,0.610,-0.050,50.000,102.778,102.778,830.556,33.333,/
1362,-0.360,0.850,0.160,36.111,41.667,72.222,869.444,38.889,/
1363,-0.345,0.685,0.045,61.111,111.111,111.111,855.556,13.889,/
1364,-0.285,0.630,-0.085,100.000,113.889,400.000,825.000,30.556,/
1365,-0.305,0.680,0.060,158.333,108.333,108.333,822.222,2.778,/
1366,-0.315,0.600,-0.050,61.111,116.667,116.667,805.556,16.667,/
1367,-0.310,0.590,-0.010,52.778,100.000,100.000,788.889,16.667,/
1368,-0.310,0.805,0.260,88.889,55.556,86.111,822.222,33.333,/
1369,-0.330,0.790,0.160,186.111,69.444,88.889,844.444,22.222,/
1370,-0.300,0.850,0.185,86.111,91.667,100.000,869.444,25.000,/
1371,0.765,0.370,-0.245,58.333,105.556,338.889,902.778,33.333,/
1372,-0.335,0.770,0.235,50.000,55.556,94.444,747.222,155.556,/
1373,-0.320,0.640,0.240,52.778,52.778,94.444,819.444,72.222,/
1374,-0.345,0.855,0.240,55.556,55.556,97.222,808.333,11.111,/
1375,-0.360,0.660,0.145,58.333,58.333,83.333,808.333,0.000,/
1376,-0.310,0.735,0.070,61.111,105.556,105.556,850.000,41.667,/
1377,-0.260,0.860,0.300,144.444,63.889,88.889,852.778,2.778,/
1378,-0.260,0.935,0.145,108.333,105.556,105.556,861.111,8.333,/
1379,-0.270,0.690,0.085,58.333,108.333,108.333,822.222,38.889,/
1380,-0.280,0.645,0.045,61.111,113.889,113.889,783.333,38.889,/
1381,-0.255,0.695,0.180,80.556,97.222,105.556,816.667,33.333,/
1382,-0.220,0.860,0.325,197.222,63.889,105.556,819.444,2.778,/
1383,-0.320,0.595,0.230,55.556,52.778,91.667,822.222,2.778,/
1384,-0.345,0.745,0.115,91.667,63.889,88.889,855.556,33.333,/
1385,-0.325,0.645,0.015,197.222,116.667,116.667,852.778,2.778,/
1386,-0.320,0.845,0.050,63.889,113.889,113.889,850.000,2.778,/
1387,-0.315,0.465,-0.090,63.889,108.333,108.333,800.000,50.000,/
1388,-0.240,0.610,-0.065,150.000,116.667,116.667,786.111,13.889,/
1389,-0.280,0.735,0.050,50.000,102.778,102.778,836.111,50.000,/
1390,-0.275,0.750,0.095,69.444,116.667,116.667,833.333,2.778,/
1391,-0.230,0.760,0.255,58.333,61.111,80.556,838.889,5.556,/
1392,-0.295,0.635,0.075,58.333,111.111,111.111,852.778,13.889,/
1393,-0.290,0.820,0.190,180.556,63.889,105.556,833.333,19.444,/
1394,0.805,-0.745,-0.115,83.333,0.000,238.889,902.778,69.444,/
1395,-0.350,0.615,-0.145,133.333,102.778,102.778,702.778,200.000,/
1396,-0.335,0.655,-0.030,58.333,108.333,108.333,791.667,88.889,/
1397,-0.275,0.885,0.135,63.889,108.333,108.333,852.778,61.111,/
1398,-0.210,0.985,0.290,80.556,63.889,88.889,850.000,2.778,/
1399,-0.245,0.785,0.245,58.333,55.556,75.000,844.444,5.556,/
1400,0.845,0.440,-0.040,58.333,105.556,319.444,902.778,58.333,/
1401,-0.210,0.615,-0.025,191.667,108.333,108.333,763.889,138.889,/
1402,-0.260,0.775,-0.085,188.889,108.333,108.333,813.889,50.000,/
1403,-0.280,0.660,-0.040,63.889,113.889,386.111,794.444,19.444,/
1404,-0.255,0.565,0.030,91.667,105.556,105.556,805.556,11.111,/
1405,-0.295,0.670,0.010,61.111,111.111,111.111,875.000,69.444,/
1406,-0.285,0.880,0.075,94.444,111.111,111.111,850.000,25.000,/
1407,-0.285,0.745,0.080,55.556,105.556,105.556,827.778,22.222,/
1408,-0.245,0.755,0.245,188.889,58.333,97.222,816.667,11.111,/
1409,-0.190,0.775,0.330,61.111,63.889,102.778,805.556,11.111,/
1410,-0.230,0.800,0.015,61.111,108.333,108.333,813.889,8.333,/
1411,-0.240,0.755,0.020,191.667,113.889,113.889,802.778,11.111,/
1412,-0.220,0.805,0.075,47.222,97.222,97.222,833.333,30.556,/
1413,-0.265,0.705,-0.005,166.667,116.667,116.667,886.111,52.778,/
1414,-0.335,0.895,0.045,75.000,111.111,111.111,844.444,41.667,/
1415,-0.325,0.625,0.040,66.667,113.889,113.889,811.111,33.333,/
1416,-0.225,0.770,0.405,94.444,58.333,105.556,802.778,8.333,/
1417,-0.290,0.685,0.045,52.778,102.778,102.778,811.111,8.333,/
1418,-0.290,0.880,-0.030,150.000,111.111,111.111,808.333,2.778,/
1419,-0.200,0.695,0.010,50.000,100.000,100.000,822.222,13.889,/
1420,-0.215,0.650,0.135,58.333,105.556,105.556,858.333,36.111,/
1421,-0.155,0.790,0.145,75.000,108.333,108.333,866.667,8.333,/
1422,-0.170,0.780,0.010,116.667,116.667,116.667,825.000,41.667,/
1423,-0.275,0.540,0.035,52.778,100.000,100.000,800.000,25.000,/
1424,-0.305,0.625,0.050,44.444,97.222,97.222,794.444,5.556,/
1425,-0.220,0.770,0.410,119.444,66.667,111.111,822.222,27.778,/
1426,-0.320,0.585,0.020,194.444,111.111,111.111,827.778,5.556,/
1427,-0.350,0.720,-0.055,69.444,102.778,102.778,838.889,11.111,/
1428,-0.305,0.675,0.075,52.778,102.778,102.778,869.444,30.556,/
1429,-0.285,0.680,0.065,55.556,108.333,108.333,855.556,13.889,/
1430,-0.235,0.640,-0.025,75.000,113.889,113.889,805.556,50.000,/
1431,-0.240,0.885,0.085,111.111,111.111,111.111,794.444,11.111,/
1432,-0.235,0.715,0.055,52.778,108.333,108.333,794.444,0.000,/
1433,-0.245,1.045,0.270,119.444,69.444,88.889,830.556,36.111,/
1434,-0.175,0.655,0.375,197.222,66.667,111.111,847.222,16.667,/
1435,-0.190,0.775,0.355,66.667,33.333,77.778,833.333,13.889,/
1436,-0.250,0.750,0.110,177.778,111.111,111.111,863.889,30.556,/
1437,-0.260,0.905,0.020,166.667,100.000,100.000,836.111,27.778,/
1438,-0.320,0.690,-0.025,55.556,105.556,105.556,788.889,47.222,/
1439,-0.310,0.795,0.030,86.111,116.667,116.667,800.000,11.111,/
1440,-0.260,0.635,-0.005,69.444,102.778,102.778,813.889,13.889,/
1441,-0.280,0.915,0.095,58.333,105.556,105.556,855.556,41.667,/
1442,-0.315,0.700,0.160,61.111,61.111,105.556,852.778,2.778,/
1443,-0.260,0.815,0.260,197.222,61.111,80.556,827.778,25.000,/
1444,-0.255,0.745,0.295,77.778,36.111,80.556,858.333,30.556,/
1445,-0.290,0.765,0.060,41.667,91.667,91.667,811.111,47.222,/
1446,-0.265,0.715,-0.025,194.444,91.667,91.667,783.333,27.778,/
1447,-0.330,0.775,0.010,77.778,111.111,111.111,802.778,19.444,/
1448,-0.350,0.570,-0.035,72.222,108.333,108.333,830.556,27.778,/
1449,-0.310,0.730,0.030,108.333,105.556,105.556,863.889,33.333,/
1450,-0.325,0.645,0.040,50.000,102.778,102.778,844.444,19.444,/
1451,-0.325,0.775,0.185,194.444,58.333,97.222,822.222,22.222,/
1452,0.715,0.430,-0.185,61.111,108.333,330.556,897.222,75.000,/
1453,-0.300,0.845,0.005,63.889,113.889,113.889,744.444,152.778,/
1454,-0.305,0.545,-0.075,72.222,111.111,394.444,794.444,50.000,/
1455,-0.295,0.770,0.005,175.000,113.889,113.889,819.444,25.000,/
1456,-0.330,0.765,-0.040,63.889,97.222,97.222,852.778,33.333,/
1457,-0.345,0.600,-0.050,52.778,105.556,105.556,872.222,19.444,/
1458,-0.295,0.835,-0.060,75.000,105.556,105.556,836.111,36.111,/
1459,-0.320,0.635,0.205,77.778,63.889,88.889,805.556,30.556,/
1460,0.830,0.420,-0.105,58.333,102.778,341.667,877.778,72.222,/
1461,-0.245,0.845,0.090,183.333,113.889,113.889,741.667,136.111,/
1462,-0.295,0.860,-0.025,163.889,113.889,113.889,800.000,58.333,/
1463,-0.245,0.525,-0.010,52.778,91.667,91.667,841.667,41.667,/
1464,-0.245,0.720,0.050,183.333,113.889,113.889,858.333,16.667,/
1465,-0.265,0.870,0.035,83.333,113.889,113.889,866.667,8.333,/
1466,-0.250,0.855,0.045,47.222,100.000,100.000,819.444,47.222,/
1467,-0.260,0.725,0.250,183.333,66.667,88.889,797.222,22.222,/
1468,-0.260,0.680,0.240,55.556,61.111,77.778,827.778,30.556,/
1469,-0.235,0.775,0.245,197.222,50.000,72.222,805.556,22.222,/
1470,-0.220,0.805,0.345,91.667,47.222,88.889,813.889,8.333,/
1471,-0.285,0.685,-0.020,197.222,116.667,116.667,852.778,38.889,/
1472,-0.280,0.790,-0.010,66.667,102.778,102.778,852.778,0.000,/
1473,-0.300,0.655,-0.060,155.556,105.556,105.556,838.889,13.889,/
1474,-0.300,0.760,-0.070,55.556,102.778,102.778,797.222,41.667,/
1475,-0.265,0.625,-0.005,36.111,86.111,86.111,797.222,0.000,/
1476,-0.260,0.840,-0.055,61.111,111.111,111.111,825.000,27.778,/
1477,-0.300,0.635,-0.050,50.000,102.778,102.778,825.000,0.000,/
1478,-0.255,0.730,0.150,75.000,91.667,105.556,838.889,13.889,/
1479,-0.140,0.870,0.465,147.222,63.889,111.111,855.556,16.667,/
1480,-0.230,0.725,0.135,69.444,116.667,116.667,855.556,0.000,/
1481,-0.265,0.875,-0.060,63.889,116.667,116.667,813.889,41.667,/
1482,-0.275,0.685,-0.090,180.556,113.889,113.889,794.444,19.444,/
1483,-0.345,0.455,-0.055,52.778,105.556,105.556,811.111,16.667,/
1484,-0.300,0.780,-0.015,69.444,113.889,113.889,833.333,22.222,/
1485,-0.270,0.570,-0.110,169.444,102.778,102.778,847.222,13.889,/
1486,-0.340,0.560,0.075,63.889,111.111,111.111,841.667,5.556,/
1487,-0.290,0.700,0.130,66.667,113.889,113.889,836.111,5.556,/
1488,-0.220,0.860,0.420,97.222,66.667,108.333,833.333,2.778,/
1489,-0.285,0.760,0.030,180.556,97.222,97.222,800.000,33.333,/
1490,0.720,-0.640,-0.105,88.889,2.778,263.889,875.000,75.000,/
1491,-0.280,0.770,0.040,113.889,100.000,100.000,738.889,136.111,/
1492,-0.340,0.690,0.035,61.111,108.333,108.333,863.889,125.000,/
1493,-0.360,0.535,-0.040,94.444,116.667,116.667,850.000,13.889,/
1494,-0.330,0.750,0.210,152.778,69.444,91.667,841.667,8.333,/
1495,-0.345,0.775,0.185,50.000,61.111,75.000,822.222,19.444,/
1496,-0.270,0.735,0.275,197.222,61.111,102.778,822.222,0.000,/
1497,-0.255,0.605,0.320,75.000,44.444,83.333,797.222,25.000,/
1498,-0.315,0.560,-0.050,188.889,102.778,102.778,794.444,2.778,/
1499,-0.280,0.690,0.050,80.556,111.111,111.111,858.333,63.889,/
1500,-0.290,0.675,0.080,75.000,111.111,111.111,861.111,2.778,/
1501,-0.335,0.700,0.050,91.667,116.667,116.667,833.333,27.778,/
1502,-0.290,0.795,0.145,52.778,100.000,105.556,827.778,5.556,/
1503,-0.320,0.475,0.180,191.667,55.556,77.778,805.556,22.222,/
1504,-0.305,0.595,0.330,138.889,52.778,108.333,811.111,5.556,/
1505,-0.335,0.715,0.010,72.222,108.333,108.333,805.556,5.556,/
1506,-0.335,0.465,-0.070,38.889,91.667,91.667,816.667,11.111,/
1507,-0.340,0.725,0.035,69.444,116.667,116.667,877.778,61.111,/
1508,-0.290,0.610,-0.040,66.667,113.889,113.889,863.889,13.889,/
1509,-0.280,0.795,-0.015,194.444,108.333,108.333,825.000,38.889,/
1510,-0.300,0.795,0.005,50.000,100.000,100.000,808.333,16.667,/
1511,-0.305,0.825,0.040,44.444,97.222,97.222,797.222,11.111,/
1512,0.785,0.345,-0.205,55.556,102.778,338.889,872.222,75.000,/
1513,-0.290,0.835,0.270,61.111,63.889,105.556,761.111,111.111,/
1514,-0.375,0.780,0.000,183.333,111.111,111.111,833.333,72.222,/
1515,0.875,-0.925,-0.110,97.222,2.778,280.556,975.000,141.667,/
1516,-0.350,0.610,0.020,55.556,108.333,108.333,752.778,222.222,/
1517,-0.325,0.905,-0.050,113.889,116.667,116.667,802.778,50.000,/
1518,-0.295,0.685,-0.070,175.000,108.333,108.333,797.222,5.556,/
1519,-0.285,0.740,0.005,61.111,111.111,111.111,802.778,5.556,/
1520,-0.250,0.825,0.045,83.333,100.000,100.000,838.889,36.111,/
1521,-0.270,0.660,0.260,188.889,61.111,80.556,838.889,0.000,/
1522,-0.210,0.900,0.430,130.556,66.667,122.222,841.667,2.778,/
1523,-0.245,0.730,0.150,188.889,108.333,108.333,877.778,36.111,/
1524,-0.340,0.845,-0.025,183.333,116.667,116.667,822.222,55.556,/
1525,-0.395,0.565,-0.230,47.222,94.444,94.444,783.333,38.889,/
1526,-0.350,0.585,-0.180,58.333,102.778,386.111,791.667,8.333,/
1527,-0.360,0.490,-0.080,86.111,116.667,116.667,811.111,19.444,/
1528,-0.335,0.785,-0.055,63.889,111.111,111.111,844.444,33.333,/
1529,-0.320,0.710,-0.005,58.333,111.111,111.111,847.222,2.778,/
1530,-0.345,0.845,0.165,63.889,69.444,91.667,841.667,5.556,/
1531,-0.265,0.635,0.190,194.444,58.333,97.222,858.333,16.667,/
1532,0.765,0.320,-0.115,55.556,97.222,294.444,855.556,2.778,/
1533,-0.300,0.820,0.010,197.222,113.889,113.889,730.556,125.000,/
1534,-0.325,0.550,-0.085,188.889,102.778,102.778,808.333,77.778,/
1535,-0.320,0.705,0.000,58.333,108.333,108.333,838.889,30.556,/
1536,-0.315,0.705,0.020,186.111,105.556,105.556,861.111,22.222,/
1537,-0.335,0.660,-0.065,50.000,102.778,102.778,847.222,13.889,/
1538,-0.300,0.665,0.015,52.778,105.556,105.556,838.889,8.333,/
1539,0.720,-0.625,-0.125,86.111,2.778,266.667,908.333,69.444,/
1540,-0.280,0.700,0.065,197.222,105.556,105.556,705.556,202.778,/
1541,-0.195,0.765,0.335,63.889,52.778,97.222,791.667,86.111,/
1542,-0.240,0.660,0.225,63.889,47.222,91.667,816.667,25.000,/
1543,-0.345,0.555,-0.040,177.778,113.889,113.889,866.667,50.000,/
1544,-0.330,0.525,-0.055,55.556,105.556,105.556,858.333,8.333,/
1545,-0.310,0.635,-0.085,52.778,105.556,105.556,836.111,22.222,/
1546,-0.345,0.475,-0.075,50.000,102.778,102.778,827.778,8.333,/
1547,-0.340,0.695,-0.050,197.222,116.667,116.667,813.889,13.889,/
1548,-0.310,0.785,0.215,197.222,58.333,86.111,794.444,19.444,/
1549,-0.245,0.760,0.430,119.444,52.778,108.333,808.333,13.889,/
1550,-0.250,0.825,0.250,52.778,63.889,108.333,841.667,33.333,/
1551,-0.265,0.760,0.095,52.778,100.000,100.000,872.222,30.556,/
1552,-0.215,0.865,0.125,58.333,108.333,108.333,841.667,30.556,/
1553,-0.215,0.905,0.055,102.778,116.667,116.667,808.333,33.333,/
1554,-0.205,0.795,0.120,125.000,88.889,88.889,822.222,13.889,/
1555,-0.235,0.760,0.040,61.111,111.111,111.111,805.556,16.667,/
1556,-0.215,0.695,0.245,61.111,58.333,75.000,797.222,8.333,/
1557,-0.195,0.800,0.430,127.778,61.111,105.556,833.333,36.111,/
1558,-0.270,0.805,0.125,66.667,97.222,97.222,855.556,22.222,/
1559,-0.250,0.900,0.080,166.667,100.000,100.000,866.667,11.111,/
1560,-0.275,0.660,0.020,197.222,113.889,113.889,830.556,36.111,/
1561,-0.280,0.660,0.010,52.778,102.778,102.778,791.667,38.889,/
1562,-0.275,0.810,0.050,94.444,113.889,113.889,825.000,33.333,/
1563,-0.315,0.595,-0.005,55.556,108.333,108.333,811.111,13.889,/
1564,-0.330,0.745,0.150,116.667,66.667,88.889,811.111,0.000,/
1565,-0.210,0.880,0.455,122.222,58.333,108.333,852.778,41.667,/
1566,-0.310,0.720,0.105,86.111,116.667,116.667,850.000,2.778,/
1567,-0.305,0.770,-0.030,63.889,108.333,108.333,852.778,2.778,/
1568,-0.350,0.650,-0.075,63.889,113.889,113.889,805.556,47.222,/
1569,-0.325,0.675,-0.050,61.111,111.111,111.111,783.333,22.222,/
1570,-0.265,0.710,0.010,55.556,108.333,108.333,827.778,44.444,/
1571,-0.285,0.765,0.050,116.667,113.889,113.889,825.000,2.778,/
1572,-0.280,0.830,0.195,63.889,91.667,102.778,836.111,11.111,/
1573,-0.280,0.780,0.265,58.333,61.111,83.333,858.333,22.222,/
1574,-0.230,0.830,0.445,105.556,61.111,111.111,847.222,11.111,/
1575,-0.280,0.875,-0.015,180.556,97.222,97.222,838.889,8.333,/
1576,-0.245,0.770,-0.150,172.222,108.333,108.333,794.444,44.444,/
1577,-0.300,0.730,0.005,61.111,111.111,111.111,786.111,8.333,/
1578,-0.265,0.855,0.020,52.778,102.778,102.778,841.667,55.556,/
1579,-0.225,0.830,0.090,58.333,108.333,108.333,841.667,0.000,/
1580,-0.240,0.760,0.135,58.333,111.111,111.111,830.556,11.111,/
1581,-0.210,1.030,0.300,197.222,69.444,88.889,841.667,11.111,/
1582,-0.105,0.810,0.445,177.778,63.889,105.556,830.556,11.111,/
1583,-0.210,0.760,0.290,58.333,63.889,102.778,811.111,19.444,/
1584,-0.225,0.680,-0.050,83.333,116.667,388.889,794.444,16.667,/
1585,-0.255,0.760,-0.015,155.556,108.333,108.333,805.556,11.111,/
1586,-0.335,0.665,0.005,52.778,102.778,102.778,861.111,55.556,/
1587,-0.335,0.710,-0.035,55.556,102.778,102.778,852.778,8.333,/
1588,-0.300,0.740,-0.050,41.667,97.222,97.222,838.889,13.889,/
1589,-0.335,0.610,0.205,58.333,55.556,77.778,830.556,8.333,/
1590,-0.235,0.755,0.310,166.667,38.889,83.333,813.889,16.667,/
1591,0.830,0.395,-0.160,55.556,102.778,327.778,861.111,47.222,/
1592,-0.265,0.855,0.120,194.444,108.333,108.333,741.667,119.444,/
1593,-0.295,0.790,0.015,191.667,105.556,105.556,830.556,88.889,/
1594,-0.295,0.615,0.055,191.667,108.333,108.333,869.444,38.889,/
1595,-0.320,0.940,0.040,52.778,105.556,105.556,847.222,22.222,/
1596,-0.295,0.730,-0.060,69.444,113.889,391.667,827.778,19.444,/
1597,-0.290,0.740,-0.005,50.000,105.556,105.556,805.556,22.222,/
1598,-0.325,0.840,0.090,63.889,116.667,116.667,811.111,5.556,/
1599,0.785,0.405,-0.045,58.333,105.556,330.556,869.444,58.333,/
1600,-0.235,0.825,0.285,194.444,61.111,102.778,758.333,111.111,/
1601,-0.300,0.770,0.180,197.222,61.111,86.111,855.556,97.222,/
1602,-0.250,0.880,0.055,80.556,116.667,116.667,880.556,25.000,/
1603,-0.255,0.520,-0.065,180.556,113.889,113.889,836.111,44.444,/
1604,-0.260,0.855,0.055,52.778,102.778,102.778,802.778,33.333,/
1605,-0.230,0.745,-0.020,83.333,116.667,116.667,797.222,5.556,/
1606,-0.255,0.680,0.020,194.444,113.889,113.889,813.889,16.667,/
1607,-0.285,0.840,0.175,61.111,61.111,75.000,811.111,2.778,/
1608,-0.220,0.750,0.360,172.222,66.667,108.333,830.556,19.444,/
1609,-0.205,0.920,0.320,58.333,61.111,105.556,869.444,38.889,/
1610,-0.290,0.710,0.010,186.111,102.778,102.778,861.111,8.333,/
1611,-0.275,0.810,-0.005,83.333,113.889,113.889,813.889,47.222,/
1612,-0.255,0.875,0.065,183.333,116.667,116.667,800.000,13.889,/
1613,-0.265,0.805,0.025,52.778,102.778,102.778,802.778,2.778,/
1614,-0.245,0.900,0.235,61.111,63.889,86.111,827.778,25.000,/
1615,-0.235,0.665,0.280,63.889,66.667,91.667,836.111,8.333,/
1616,-0.205,0.820,0.385,108.333,58.333,105.556,841.667,5.556,/
1617,-0.240,0.845,0.205,91.667,86.111,111.111,869.444,27.778,/
1618,-0.235,0.815,0.065,191.667,113.889,113.889,836.111,33.333,/
1619,-0.275,0.735,0.020,191.667,105.556,105.556,791.667,44.444,/
1620,-0.285,0.790,0.025,58.333,113.889,113.889,797.222,5.556,/
1621,-0.255,0.640,0.030,175.000,108.333,108.333,805.556,8.333,/
1622,-0.275,0.910,0.070,97.222,116.667,116.667,841.667,36.111,/
1623,-0.230,0.780,0.125,44.444,97.222,97.222,844.444,2.778,/
1624,-0.195,0.980,0.060,44.444,100.000,100.000,838.889,5.556,/
1625,-0.225,0.910,0.115,61.111,116.667,116.667,866.667,27.778,/
1626,-0.245,0.815,0.120,80.556,116.667,116.667,816.667,50.000,/
1627,-0.175,0.795,0.305,188.889,52.778,72.222,788.889,27.778,/
1628,-0.225,0.840,0.365,91.667,58.333,102.778,805.556,16.667,/
1629,-0.290,0.745,-0.035,50.000,88.889,88.889,822.222,16.667,/
1630,-0.290,0.890,0.025,169.444,102.778,102.778,869.444,47.222,/
1631,-0.330,0.720,-0.020,177.778,113.889,113.889,844.444,25.000,/
1632,-0.315,0.970,0.065,55.556,105.556,105.556,825.000,19.444,/
1633,-0.290,0.630,-0.065,52.778,105.556,105.556,850.000,25.000,/
1634,-0.310,0.795,-0.055,72.222,116.667,116.667,797.222,52.778,/
1635,-0.295,0.635,-0.055,86.111,116.667,391.667,780.556,16.667,/
1636,-0.295,0.890,0.145,175.000,108.333,108.333,808.333,27.778,/
1637,-0.325,0.690,0.095,83.333,116.667,116.667,847.222,38.889,/
1638,-0.250,0.940,0.450,116.667,55.556,108.333,863.889,16.667,/
1639,-0.260,0.785,0.090,161.111,111.111,111.111,844.444,19.444,/
1640,-0.345,0.965,0.035,194.444,116.667,116.667,819.444,25.000,/
1641,-0.335,0.620,-0.135,100.000,100.000,100.000,833.333,13.889,/
1642,-0.305,0.575,-0.210,197.222,113.889,402.778,797.222,36.111,/
1643,-0.355,0.445,-0.125,155.556,97.222,97.222,788.889,8.333,/
1644,-0.325,0.900,0.005,61.111,100.000,100.000,827.778,38.889,/
1645,-0.300,0.595,-0.005,166.667,116.667,116.667,869.444,41.667,/
1646,-0.300,0.820,0.115,52.778,108.333,108.333,852.778,16.667,/
1647,-0.235,0.770,0.275,191.667,58.333,77.778,822.222,30.556,/
1648,-0.205,0.915,0.330,197.222,47.222,88.889,805.556,16.667,/
1649,-0.230,0.585,0.345,80.556,44.444,86.111,816.667,11.111,/
1650,-0.335,0.785,-0.115,66.667,113.889,113.889,800.000,16.667,/
1651,-0.310,0.735,-0.050,183.333,113.889,113.889,816.667,16.667,/
1652,-0.305,0.830,0.050,63.889,111.111,111.111,847.222,30.556,/
1653,-0.245,0.770,0.090,55.556,105.556,105.556,875.000,27.778,/
1654,-0.230,0.750,-0.010,186.111,116.667,405.556,847.222,27.778,/
1655,-0.240,0.720,0.005,66.667,116.667,116.667,800.000,47.222,/
1656,-0.235,0.780,0.180,77.778,91.667,102.778,805.556,5.556,/
1657,-0.105,0.755,0.425,161.111,41.667,83.333,816.667,11.111,/
1658,-0.235,0.830,0.135,183.333,116.667,116.667,811.111,5.556,/
1659,-0.280,0.695,0.075,172.222,108.333,108.333,838.889,27.778,/
1660,-0.295,0.660,0.005,41.667,91.667,91.667,850.000,11.111,/
1661,-0.300,0.740,0.015,169.444,116.667,116.667,861.111,11.111,/
1662,-0.310,0.630,-0.020,66.667,113.889,113.889,816.667,44.444,/
1663,-0.235,0.720,0.015,66.667,116.667,391.667,780.556,36.111,/
1664,-0.220,0.740,-0.005,69.444,102.778,102.778,819.444,38.889,/
1665,-0.260,0.730,0.225,61.111,61.111,86.111,827.778,8.333,/
1666,-0.250,0.690,0.200,47.222,50.000,61.111,833.333,5.556,/
1667,0.840,0.465,-0.075,66.667,113.889,358.333,919.444,86.111,/
1668,-0.220,0.755,0.275,58.333,66.667,108.333,786.111,133.333,/
1669,-0.250,0.560,0.065,44.444,94.444,94.444,841.667,55.556,/
1670,-0.250,0.775,-0.055,188.889,116.667,116.667,794.444,47.222,/
1671,-0.305,0.585,-0.015,175.000,108.333,108.333,786.111,8.333,/
1672,-0.280,0.860,0.085,50.000,102.778,102.778,827.778,41.667,/
1673,-0.225,0.865,0.170,41.667,75.000,83.333,838.889,11.111,/
1674,-0.205,0.775,0.105,183.333,100.000,100.000,841.667,2.778,/
1675,-0.240,0.685,0.060,52.778,100.000,100.000,850.000,8.333,/
1676,-0.220,0.700,0.085,61.111,111.111,111.111,830.556,19.444,/
1677,-0.200,0.725,0.305,119.444,66.667,88.889,822.222,8.333,/
1678,-0.255,0.690,0.220,61.111,63.889,88.889,794.444,27.778,/
1679,-0.220,0.885,0.420,138.889,63.889,105.556,794.444,0.000,/
1680,-0.220,0.765,0.245,66.667,66.667,108.333,858.333,63.889,/
1681,-0.315,0.730,0.065,50.000,105.556,105.556,855.556,2.778,/
1682,-0.250,0.795,0.000,97.222,113.889,113.889,844.444,11.111,/
1683,-0.275,0.510,-0.115,186.111,116.667,116.667,836.111,8.333,/
1684,-0.325,0.790,-0.035,61.111,108.333,108.333,808.333,27.778,/
1685,-0.225,0.690,0.075,44.444,94.444,358.333,816.667,8.333,/
1686,-0.190,0.960,0.180,186.111,116.667,116.667,791.667,25.000,/
1687,-0.230,0.745,0.250,61.111,61.111,102.778,808.333,16.667,/
1688,-0.135,0.930,0.465,166.667,38.889,83.333,875.000,66.667,/
1689,-0.200,0.715,0.310,52.778,52.778,91.667,852.778,22.222,/
1690,-0.355,0.730,-0.010,191.667,108.333,108.333,822.222,30.556,/
1691,-0.345,0.655,-0.135,47.222,97.222,377.778,819.444,2.778,/
1692,-0.355,0.585,-0.130,136.111,102.778,102.778,805.556,13.889,/
1693,-0.395,0.695,-0.150,66.667,113.889,113.889,813.889,8.333,/
1694,-0.315,0.650,-0.035,55.556,108.333,397.222,808.333,5.556,/
1695,-0.295,0.780,0.020,63.889,113.889,113.889,838.889,30.556,/
1696,-0.335,0.610,0.150,75.000,58.333,72.222,880.556,41.667,/
1697,-0.245,0.865,0.420,147.222,52.778,102.778,838.889,41.667,/
1698,0.860,-0.450,-0.115,94.444,25.000,250.000,905.556,66.667,/
1699,-0.285,0.775,-0.035,163.889,111.111,111.111,708.333,197.222,/
1700,-0.315,0.725,-0.040,69.444,102.778,102.778,805.556,97.222,/
1701,-0.275,0.615,-0.110,186.111,102.778,391.667,816.667,11.111,/
1702,-0.315,0.580,-0.015,144.444,111.111,111.111,825.000,8.333,/
1703,-0.295,0.930,0.060,61.111,113.889,113.889,852.778,27.778,/
1704,-0.260,0.975,0.075,63.889,113.889,113.889,869.444,16.667,/
1705,-0.220,0.825,0.135,66.667,116.667,116.667,833.333,36.111,/
1706,-0.170,0.665,0.460,144.444,63.889,108.333,797.222,36.111,/
1707,-0.180,0.995,0.285,52.778,61.111,108.333,794.444,2.778,/
1708,-0.140,-1.590,0.250,175.000,5.556,216.667,580.556,213.889,V
1709,-0.285,0.585,-0.005,116.667,113.889,113.889,827.778,247.222,/
1710,-0.335,0.740,-0.065,50.000,100.000,100.000,833.333,5.556,/
1711,-0.335,0.830,0.075,72.222,100.000,105.556,841.667,8.333,/
1712,-0.240,0.920,0.405,125.000,66.667,111.111,872.222,30.556,/
1713,-0.315,0.680,-0.070,188.889,105.556,105.556,825.000,47.222,/
1714,-0.265,0.605,-0.070,52.778,102.778,372.222,780.556,44.444,/
1715,-0.275,0.650,-0.105,197.222,100.000,100.000,794.444,13.889,/
1716,-0.275,0.755,-0.005,50.000,100.000,100.000,819.444,25.000,/
1717,-0.245,0.660,0.015,66.667,102.778,102.778,852.778,33.333,/
1718,-0.245,0.650,0.255,77.778,61.111,83.333,844.444,8.333,/
1719,-0.170,0.975,0.395,183.333,66.667,111.111,850.000,5.556,/
1720,0.785,0.345,-0.055,55.556,100.000,316.667,911.111,61.111,/
1721,-0.235,0.545,-0.190,191.667,91.667,91.667,750.000,161.111,/
1722,-0.335,0.450,-0.145,141.667,111.111,111.111,786.111,36.111,/
1723,-0.330,0.735,-0.050,61.111,111.111,111.111,800.000,13.889,/
1724,-0.310,0.670,-0.020,122.222,105.556,105.556,844.444,44.444,/
1725,-0.340,0.520,-0.010,63.889,111.111,111.111,858.333,13.889,/
1726,-0.295,0.740,0.075,69.444,116.667,116.667,836.111,22.222,/
1727,-0.145,0.870,0.420,155.556,63.889,111.111,841.667,5.556,/
1728,-0.255,0.695,-0.020,144.444,113.889,113.889,822.222,19.444,/
1729,-0.275,0.655,-0.110,183.333,100.000,100.000,786.111,36.111,/
1730,-0.300,0.830,-0.045,63.889,111.111,111.111,797.222,11.111,/
1731,-0.310,0.625,0.020,72.222,108.333,108.333,825.000,27.778,/
1732,-0.270,0.850,0.070,69.444,116.667,116.667,863.889,38.889,/
1733,-0.270,0.785,0.050,113.889,113.889,113.889,861.111,2.778,/
1734,-0.320,0.720,-0.010,66.667,116.667,116.667,836.111,25.000,/
1735,-0.290,0.795,0.190,52.778,58.333,75.000,825.000,11.111,/
1736,-0.190,0.625,0.295,169.444,52.778,75.000,811.111,13.889,/
1737,-0.235,0.810,0.315,69.444,41.667,83.333,788.889,22.222,/
1738,-0.245,0.495,0.015,41.667,94.444,94.444,819.444,30.556,/
1739,-0.275,0.700,0.040,169.444,102.778,102.778,841.667,22.222,/
1740,-0.295,0.790,0.075,55.556,105.556,105.556,869.444,27.778,/
1741,-0.290,0.690,-0.030,50.000,100.000,100.000,844.444,25.000,/
1742,-0.290,0.810,-0.020,50.000,105.556,105.556,802.778,41.667,/
1743,-0.330,0.785,0.075,55.556,105.556,105.556,819.444,16.667,/
1744,-0.295,0.785,0.055,61.111,111.111,111.111,805.556,13.889,/
1745,-0.205,0.545,0.285,197.222,61.111,105.556,802.778,2.778,/
1746,-0.300,0.775,0.255,86.111,52.778,97.222,841.667,38.889,/
1747,-0.360,0.610,-0.065,116.667,100.000,100.000,861.111,19.444,/
1748,-0.330,0.755,-0.075,63.889,97.222,97.222,863.889,2.778,/
1749,-0.345,0.705,-0.085,52.778,102.778,102.778,822.222,41.667,/
1750,-0.310,0.680,-0.020,75.000,108.333,108.333,788.889,33.333,/
1751,-0.260,0.775,-0.025,83.333,116.667,116.667,825.000,36.111,/
1752,-0.305,0.650,0.020,55.556,108.333,108.333,805.556,19.444,/
1753,-0.295,0.770,0.010,69.444,116.667,116.667,813.889,8.333,/
1754,-0.305,0.830,0.215,80.556,69.444,83.333,855.556,41.667,/
1755,-0.190,0.720,0.305,194.444,58.333,88.889,850.000,5.556,/
1756,-0.245,0.720,0.320,77.778,41.667,80.556,850.000,0.000,/
1757,-0.305,0.470,-0.105,194.444,108.333,108.333,800.000,50.000,/
1758,-0.270,0.785,-0.010,113.889,111.111,111.111,786.111,13.889,/
1759,-0.305,0.580,-0.050,47.222,97.222,97.222,836.111,50.000,/
1760,-0.320,0.845,-0.035,75.000,113.889,113.889,827.778,8.333,/
1761,-0.290,0.710,-0.005,163.889,108.333,108.333,836.111,8.333,/
1762,-0.305,0.825,0.025,194.444,111.111,111.111,850.000,13.889,/
1763,-0.300,0.955,0.060,63.889,111.111,111.111,850.000,0.000,/
1764,-0.305,0.590,0.210,186.111,52.778,72.222,825.000,25.000,/
1765,-0.290,0.660,0.315,163.889,58.333,97.222,788.889,36.111,/
1766,-0.285,0.750,0.310,72.222,38.889,80.556,794.444,5.556,/
1767,-0.320,0.820,0.035,61.111,105.556,105.556,838.889,44.444,/
1768,-0.310,0.780,-0.105,58.333,105.556,105.556,847.222,8.333,/
1769,-0.320,0.790,-0.010,63.889,100.000,100.000,827.778,19.444,/
1770,-0.280,0.890,0.070,194.444,108.333,108.333,841.667,13.889,/
1771,-0.300,0.705,0.025,63.889,113.889,113.889,838.889,2.778,/
1772,-0.260,0.850,-0.005,52.778,100.000,100.000,805.556,33.333,/
1773,-0.220,0.815,0.145,194.444,111.111,111.111,791.667,13.889,/
1774,-0.225,0.855,0.335,186.111,69.444,111.111,822.222,30.556,/
1775,-0.225,0.990,0.335,41.667,38.889,83.333,858.333,36.111,/
1776,0.810,-0.750,-0.185,83.333,0.000,272.222,933.333,75.000,/
1777,-0.350,0.640,-0.055,183.333,116.667,116.667,758.333,175.000,/
1778,-0.350,0.760,-0.035,72.222,116.667,116.667,819.444,61.111,/
1779,-0.270,0.795,0.015,188.889,105.556,105.556,819.444,0.000,/
1780,-0.295,0.805,-0.035,66.667,116.667,116.667,794.444,25.000,/
1781,-0.315,0.570,-0.055,58.333,100.000,100.000,794.444,0.000,/
1782,-0.260,0.790,0.235,52.778,61.111,80.556,844.444,50.000,/
1783,-0.205,0.740,0.345,197.222,66.667,122.222,861.111,16.667,/
1784,-0.230,0.640,0.360,88.889,50.000,97.222,841.667,19.444,/
1785,-0.255,0.830,0.025,197.222,111.111,111.111,836.111,5.556,/
1786,-0.340,0.700,-0.090,66.667,116.667,116.667,805.556,30.556,/
1787,-0.315,0.820,-0.035,80.556,116.667,116.667,816.667,11.111,/
1788,-0.305,0.670,-0.025,191.667,113.889,113.889,811.111,5.556,/
1789,-0.325,0.595,-0.030,175.000,108.333,108.333,813.889,2.778,/
1790,-0.305,0.710,0.035,44.444,94.444,94.444,869.444,55.556,/
1791,-0.305,0.725,0.000,72.222,116.667,116.667,861.111,8.333,/
1792,-0.365,0.740,0.150,61.111,66.667,91.667,825.000,36.111,/
1793,-0.285,0.490,0.250,183.333,47.222,88.889,816.667,8.333,/
1794,-0.300,0.735,0.250,75.000,41.667,83.333,794.444,22.222,/
1795,-0.395,0.500,-0.180,177.778,94.444,94.444,819.444,25.000,/
1796,-0.440,0.440,-0.175,33.333,88.889,88.889,813.889,5.556,/
1797,-0.415,0.530,-0.100,75.000,116.667,116.667,830.556,16.667,/
1798,-0.335,0.685,-0.005,69.444,100.000,100.000,880.556,50.000,/
1799,-0.300,0.565,-0.015,58.333,105.556,105.556,855.556,25.000,/
1800,-0.270,0.620,-0.030,55.556,108.333,108.333,802.778,52.778,/
1801,-0.245,0.690,-0.095,161.111,113.889,113.889,802.778,0.000,/
1802,-0.330,0.580,-0.015,119.444,116.667,116.667,805.556,2.778,/
1803,-0.255,0.585,0.235,188.889,58.333,97.222,822.222,16.667,/
1804,0.605,0.315,-0.125,58.333,80.556,102.778,888.889,66.667,/
1805,-0.315,0.690,0.130,63.889,66.667,91.667,786.111,102.778,/
1806,-0.315,0.580,-0.085,52.778,91.667,91.667,875.000,88.889,/
1807,-0.320,0.605,-0.160,194.444,97.222,97.222,822.222,52.778,/
1808,-0.315,0.590,-0.100,52.778,100.000,100.000,788.889,33.333,/
1809,-0.260,0.565,-0.075,50.000,102.778,391.667,800.000,11.111,/
1810,-0.220,0.820,0.070,177.778,94.444,94.444,808.333,8.333,/
1811,-0.245,0.620,0.010,55.556,105.556,105.556,847.222,38.889,/
1812,-0.235,0.660,0.110,66.667,105.556,105.556,847.222,0.000,/
1813,-0.195,0.770,0.290,105.556,55.556,75.000,850.000,2.778,/
1814,-0.245,0.610,0.275,186.111,66.667,105.556,863.889,13.889,/
1815,-0.250,0.740,0.300,94.444,61.111,100.000,808.333,55.556,/
1816,-0.295,0.505,-0.125,63.889,94.444,372.222,786.111,22.222,/
1817,-0.320,0.465,-0.155,113.889,111.111,111.111,800.000,13.889,/
1818,-0.280,0.875,0.030,61.111,108.333,108.333,830.556,30.556,/
1819,-0.220,0.800,0.055,88.889,108.333,397.222,861.111,30.556,/
1820,-0.195,0.930,0.045,63.889,113.889,113.889,841.667,19.444,/
1821,-0.235,0.805,0.160,52.778,100.000,100.000,838.889,2.778,/
1822,-0.180,0.895,0.360,172.222,38.889,80.556,836.111,2.778,/
1823,0.855,0.380,-0.100,52.778,97.222,305.556,847.222,11.111,/
1824,-0.300,0.560,-0.135,172.222,116.667,116.667,733.333,113.889,/
1825,-0.295,0.630,-0.030,169.444,116.667,116.667,816.667,83.333,/
1826,-0.305,0.860,0.025,58.333,111.111,111.111,861.111,44.444,/
1827,-0.285,0.790,0.005,58.333,105.556,105.556,861.111,0.000,/
1828,-0.300,0.660,-0.010,47.222,94.444,94.444,838.889,22.222,/
1829,-0.275,0.835,0.015,63.889,97.222,97.222,833.333,5.556,/
1830,0.895,-0.725,-0.085,83.333,0.000,272.222,900.000,66.667,/
1831,-0.285,0.645,0.120,88.889,111.111,111.111,708.333,191.667,/
1832,-0.170,0.875,0.410,166.667,69.444,111.111,797.222,88.889,/
1833,-0.135,0.855,0.310,72.222,66.667,111.111,836.111,38.889,/
1834,-0.315,0.745,0.035,194.444,108.333,108.333,872.222,36.111,/
1835,-0.335,0.805,-0.055,52.778,102.778,102.778,844.444,27.778,/
1836,-0.325,0.615,-0.090,183.333,102.778,102.778,816.667,27.778,/
1837,-0.335,0.690,-0.015,52.778,105.556,105.556,819.444,2.778,/
1838,-0.285,0.535,-0.045,50.000,97.222,375.000,808.333,11.111,/
1839,-0.270,0.765,-0.015,194.444,108.333,108.333,797.222,11.111,/
1840,-0.330,0.665,0.160,61.111,63.889,108.333,833.333,36.111,/
1841,-0.275,0.645,0.215,55.556,52.778,75.000,858.333,25.000,/
1842,-0.185,0.635,0.365,144.444,61.111,111.111,872.222,13.889,/
1843,-0.290,0.675,0.160,55.556,58.333,97.222,830.556,41.667,/
1844,-0.310,0.795,-0.035,61.111,105.556,105.556,791.667,38.889,/
1845,-0.305,0.645,-0.030,186.111,116.667,116.667,819.444,27.778,/
1846,-0.345,0.810,0.015,55.556,105.556,105.556,805.556,13.889,/
1847,-0.305,0.380,-0.050,75.000,116.667,116.667,816.667,11.111,/
1848,-0.280,0.705,0.025,88.889,102.778,102.778,847.222,30.556,/
1849,-0.300,0.700,0.030,52.778,102.778,102.778,850.000,2.778,/
1850,-0.280,0.675,0.050,86.111,116.667,116.667,863.889,13.889,/
1851,-0.235,0.815,0.240,191.667,55.556,77.778,805.556,58.333,/
1852,-0.235,0.770,0.230,188.889,58.333,80.556,783.333,22.222,/
1853,-0.150,0.840,0.390,172.222,61.111,113.889,833.333,50.000,/
1854,-0.125,0.840,0.475,97.222,47.222,91.667,825.000,8.333,/
1855,-0.250,0.700,0.040,63.889,111.111,111.111,830.556,5.556,/
1856,-0.265,0.595,-0.055,111.111,113.889,113.889,852.778,22.222,/
1857,-0.240,0.770,0.065,147.222,108.333,108.333,844.444,8.333,/
1858,-0.235,0.850,0.035,194.444,108.333,108.333,833.333,11.111,/
1859,-0.185,0.795,0.030,50.000,100.000,375.000,791.667,41.667,/
1860,-0.140,0.770,0.155,191.667,108.333,108.333,788.889,2.778,/
1861,-0.175,0.765,0.100,61.111,113.889,113.889,836.111,47.222,/
1862,-0.165,0.845,0.205,113.889,111.111,111.111,836.111,0.000,/
1863,-0.145,0.745,0.225,147.222,113.889,113.889,833.333,2.778,/
1864,-0.150,0.695,0.415,161.111,58.333,105.556,847.222,13.889,/
1865,-0.160,0.855,0.430,47.222,47.222,88.889,838.889,8.333,/
1866,-0.225,0.655,0.005,133.333,100.000,100.000,816.667,22.222,/
1867,-0.245,0.680,-0.055,194.444,111.111,111.111,794.444,22.222,/
1868,-0.265,0.780,0.025,69.444,116.667,116.667,808.333,13.889,/
1869,-0.225,0.820,0.035,100.000,116.667,116.667,850.000,41.667,/
1870,-0.235,0.985,0.070,55.556,105.556,105.556,852.778,2.778,/
1871,-0.185,0.730,0.130,94.444,108.333,108.333,838.889,13.889,/
1872,-0.135,0.885,0.135,55.556,105.556,105.556,827.778,11.111,/
1873,-0.180,0.700,0.145,66.667,113.889,113.889,825.000,2.778,/
1874,-0.220,0.820,0.095,47.222,94.444,94.444,800.000,25.000,/
1875,-0.160,0.810,0.345,188.889,66.667,102.778,791.667,8.333,/
1876,-0.250,0.680,0.310,83.333,66.667,111.111,830.556,38.889,/
1877,-0.315,0.920,0.040,183.333,113.889,113.889,863.889,33.333,/
1878,-0.315,0.635,-0.130,130.556,113.889,113.889,850.000,13.889,/
1879,-0.305,0.730,-0.030,63.889,116.667,116.667,836.111,13.889,/
1880,-0.275,0.670,-0.015,130.556,113.889,113.889,813.889,22.222,/
1881,-0.225,0.840,0.020,163.889,113.889,113.889,816.667,2.778,/
1882,-0.235,0.635,0.010,69.444,116.667,116.667,805.556,11.111,/
1883,-0.250,0.840,0.020,47.222,97.222,97.222,794.444,11.111,/
1884,-0.230,0.760,0.080,183.333,116.667,116.667,866.667,72.222,/
1885,-0.240,0.930,0.105,63.889,111.111,111.111,863.889,2.778,/
1886,-0.230,0.730,0.235,55.556,97.222,108.333,830.556,33.333,/
1887,-0.170,0.790,0.365,188.889,66.667,108.333,819.444,11.111,/
1888,-0.265,0.565,0.240,66.667,61.111,105.556,800.000,19.444,/
1889,-0.305,0.705,-0.030,55.556,88.889,88.889,811.111,11.111,/
1890,-0.305,0.635,-0.075,194.444,111.111,111.111,805.556,5.556,/
1891,-0.330,0.810,0.005,50.000,100.000,100.000,822.222,16.667,/
1892,-0.300,0.785,0.035,52.778,100.000,100.000,883.333,61.111,/
1893,-0.280,0.735,0.025,63.889,108.333,108.333,861.111,22.222,/
1894,-0.270,0.580,0.005,55.556,111.111,111.111,816.667,44.444,/
1895,-0.280,0.775,0.015,83.333,116.667,116.667,805.556,11.111,/
1896,-0.085,-1.290,0.215,197.222,5.556,216.667,536.111,269.444,V
1897,-0.260,0.780,0.190,63.889,113.889,113.889,811.111,275.000,/
1898,-0.235,0.800,0.130,55.556,102.778,102.778,822.222,11.111,/
1899,-0.200,0.715,0.065,41.667,91.667,91.667,838.889,16.667,/
1900,-0.225,0.735,0.165,194.444,105.556,105.556,866.667,27.778,/
1901,-0.265,0.935,0.130,61.111,108.333,108.333,850.000,16.667,/
1902,-0.255,0.860,-0.010,83.333,116.667,116.667,805.556,44.444,/
1903,-0.235,0.675,0.035,175.000,116.667,116.667,797.222,8.333,/
1904,-0.280,0.645,0.100,58.333,108.333,108.333,797.222,0.000,/
