id,Pamp,Ramp,Tamp,PR,QRS,QT,RRI,dRRI,label
1,-0.165,1.615,-0.640,50.000,86.111,383.333,1202.778,19.444,R
2,-0.185,1.275,-0.670,47.222,77.778,383.333,1213.889,11.111,R
3,-0.360,1.430,-0.825,50.000,77.778,383.333,1263.889,50.000,R
4,-0.420,1.010,-0.960,55.556,80.556,113.889,1225.000,38.889,R
5,-0.590,1.260,-1.000,50.000,83.333,-9150.000,1172.222,52.778,R
6,-0.500,0.980,-0.945,50.000,77.778,383.333,1213.889,41.667,R
7,-0.475,1.355,-0.940,47.222,72.222,380.556,1144.444,69.444,R
8,-0.400,1.140,-0.855,52.778,77.778,100.000,1216.667,72.222,R
9,-0.400,1.420,-0.805,50.000,80.556,383.333,1172.222,44.444,R
10,-0.375,1.185,-0.865,52.778,75.000,383.333,1225.000,52.778,R
11,-0.445,1.395,-0.875,50.000,83.333,383.333,1169.444,55.556,R
12,-0.445,1.255,-0.875,55.556,80.556,386.111,1247.222,77.778,R
13,-0.455,1.250,-0.890,44.444,69.444,377.778,1191.667,55.556,R
14,-0.475,1.355,-0.880,52.778,80.556,386.111,1233.333,41.667,R
15,-0.450,1.220,-0.930,55.556,80.556,386.111,1202.778,30.556,R
16,-0.480,1.355,-0.925,50.000,77.778,383.333,1219.444,16.667,R
17,-0.470,1.160,-0.980,50.000,77.778,383.333,1188.889,30.556,R
18,-0.450,1.445,-0.850,50.000,83.333,383.333,1211.111,22.222,R
19,-0.400,1.200,-0.900,47.222,72.222,380.556,1166.667,44.444,R
20,-0.410,1.440,-0.870,47.222,72.222,380.556,1216.667,50.000,R
21,-0.375,1.195,-0.910,52.778,75.000,111.111,1183.333,33.333,R
22,-0.410,1.470,-0.815,50.000,77.778,383.333,1225.000,41.667,R
23,-0.390,1.140,-0.895,50.000,75.000,383.333,1183.333,41.667,R
24,-0.435,1.475,-0.990,52.778,83.333,383.333,1194.444,11.111,R
25,-0.435,1.135,-0.875,50.000,80.556,383.333,1208.333,13.889,R
26,-0.485,1.430,-0.945,47.222,75.000,380.556,1205.556,2.778,R
27,-0.505,1.080,-0.965,50.000,72.222,380.556,1183.333,22.222,R
28,-0.540,1.215,-1.000,44.444,72.222,-36736.111,1177.778,5.556,R
29,-0.455,1.365,-0.775,47.222,72.222,380.556,1208.333,30.556,R
30,-0.185,1.295,-0.690,50.000,72.222,100.000,1191.667,16.667,R
31,-0.280,1.350,-0.870,52.778,83.333,108.333,1188.889,2.778,R
32,-0.445,1.330,-0.945,50.000,75.000,380.556,1258.333,69.444,R
33,-0.480,1.050,-1.000,50.000,72.222,-42797.222,1216.667,41.667,R
34,-0.515,1.160,-0.985,47.222,72.222,380.556,1238.889,22.222,R
35,-0.475,1.325,-0.965,52.778,80.556,380.556,1252.778,13.889,R
36,-0.445,1.180,-0.905,47.222,72.222,380.556,1255.556,2.778,R
37,-0.440,1.225,-0.950,47.222,75.000,380.556,1200.000,55.556,R
38,-0.505,1.315,-0.945,52.778,83.333,383.333,1250.000,50.000,R
39,-0.390,1.110,-0.870,50.000,75.000,380.556,1219.444,30.556,R
40,-0.265,1.495,-0.645,52.778,77.778,383.333,1247.222,27.778,R
41,-0.070,1.515,-0.535,55.556,83.333,386.111,1236.111,11.111,R
42,-0.220,1.355,-0.770,52.778,77.778,108.333,1202.778,33.333,R
43,-0.375,1.270,-0.860,52.778,80.556,386.111,1258.333,55.556,R
44,-0.440,1.055,-0.940,55.556,80.556,111.111,1247.222,11.111,R
45,-0.470,1.305,-0.900,44.444,69.444,377.778,1261.111,13.889,R
46,-0.455,1.030,-0.925,50.000,77.778,383.333,1250.000,11.111,R
47,-0.470,1.235,-0.970,47.222,77.778,105.556,1191.667,58.333,R
48,-0.425,1.245,-0.830,47.222,72.222,380.556,1227.778,36.111,R
49,-0.380,1.410,-0.875,44.444,72.222,377.778,1219.444,8.333,R
50,-0.360,0.920,-0.810,52.778,80.556,125.000,1266.667,47.222,R
51,-0.470,1.290,-0.905,50.000,77.778,383.333,1208.333,58.333,R
52,-0.450,1.355,-0.930,50.000,80.556,383.333,1319.444,111.111,R
53,-0.395,1.305,-0.920,52.778,83.333,111.111,1288.889,30.556,R
54,-0.415,1.095,-0.850,47.222,72.222,380.556,1258.333,30.556,R
55,-0.465,1.360,-0.900,50.000,80.556,383.333,1213.889,44.444,R
56,-0.335,1.135,-0.840,50.000,80.556,163.889,1211.111,2.778,R
57,-0.275,1.600,-0.685,47.222,75.000,380.556,1166.667,44.444,R
58,-0.195,1.335,-0.625,50.000,72.222,380.556,1200.000,33.333,R
59,-0.180,1.515,-0.715,50.000,77.778,113.889,1147.222,52.778,R
60,-0.210,1.520,-0.665,50.000,77.778,383.333,1230.556,83.333,R
61,-0.255,1.235,-0.670,50.000,75.000,383.333,1266.667,36.111,R
62,-0.200,1.315,-0.680,52.778,77.778,105.556,1183.333,83.333,R
63,-0.070,1.535,-0.545,50.000,77.778,383.333,1244.444,61.111,R
64,-0.315,1.200,-0.840,52.778,77.778,380.556,1147.222,97.222,R
65,-0.620,1.065,-1.000,50.000,80.556,-82116.667,1211.111,63.889,R
66,-0.675,1.005,-1.000,50.000,77.778,-83358.333,1241.667,30.556,R
67,-0.590,0.960,-1.000,52.778,83.333,-84547.222,1188.889,52.778,R
68,-0.595,1.200,-0.985,44.444,69.444,377.778,1216.667,27.778,R
69,-0.485,1.060,-0.980,50.000,77.778,383.333,1197.222,19.444,R
70,-0.440,1.260,-0.945,50.000,77.778,383.333,1211.111,13.889,R
71,-0.420,1.340,-0.925,44.444,72.222,377.778,1225.000,13.889,R
72,-0.370,1.215,-0.920,50.000,77.778,119.444,1238.889,13.889,R
73,-0.430,1.345,-0.925,50.000,80.556,383.333,1230.556,8.333,R
74,-0.430,1.290,-0.900,50.000,75.000,380.556,1200.000,30.556,R
75,-0.445,1.090,-0.960,50.000,77.778,105.556,1222.222,22.222,R
76,-0.460,1.310,-0.970,52.778,80.556,113.889,1222.222,0.000,R
77,-0.490,1.140,-0.915,52.778,77.778,383.333,1238.889,16.667,R
78,-0.620,1.160,-1.000,47.222,75.000,-97927.778,1175.000,63.889,R
79,-0.575,1.225,-1.000,47.222,75.000,-99102.778,1175.000,0.000,R
80,-0.435,1.280,-0.915,50.000,72.222,380.556,1216.667,41.667,R
81,-0.450,1.340,-0.945,50.000,77.778,138.889,1275.000,58.333,R
82,-0.425,1.135,-0.950,52.778,83.333,130.556,1241.667,33.333,R
83,-0.450,1.330,-0.950,50.000,77.778,380.556,1241.667,0.000,R
84,-0.430,1.200,-0.890,50.000,80.556,383.333,1261.111,19.444,R
85,-0.415,1.315,-0.940,55.556,88.889,119.444,1211.111,50.000,R
86,-0.410,1.265,-0.800,50.000,77.778,383.333,1266.667,55.556,R
87,-0.485,1.205,-0.960,50.000,75.000,383.333,1250.000,16.667,R
88,-0.205,1.310,-0.665,52.778,77.778,108.333,1225.000,25.000,R
89,-0.045,1.540,-0.425,50.000,77.778,383.333,1266.667,41.667,R
90,-0.065,1.425,-0.595,50.000,77.778,119.444,1288.889,22.222,R
91,-0.395,0.975,-0.915,55.556,80.556,102.778,1252.778,36.111,R
92,-0.535,1.170,-0.950,52.778,86.111,383.333,1188.889,63.889,R
93,-0.350,1.230,-0.745,50.000,77.778,383.333,1233.333,44.444,R
94,-0.215,1.125,-0.700,55.556,83.333,147.222,1166.667,66.667,R
95,-0.330,1.230,-0.825,50.000,75.000,380.556,1230.556,63.889,R
96,-0.645,0.875,-1.000,47.222,75.000,-120100.000,1180.556,50.000,R
97,-0.805,0.760,-1.000,50.000,77.778,-121300.000,1200.000,19.444,R
98,-0.850,1.010,-1.000,47.222,69.444,-122494.444,1194.444,5.556,R
99,-0.745,0.765,-1.000,50.000,75.000,-123733.333,1241.667,47.222,R
100,-0.625,1.240,-1.000,50.000,75.000,-124894.444,1161.111,80.556,R
101,-0.480,1.320,-0.915,50.000,72.222,380.556,1244.444,83.333,R
102,-0.360,1.225,-0.690,50.000,72.222,380.556,1219.444,25.000,R
103,0.190,1.850,-0.260,50.000,75.000,100.000,1211.111,8.333,R
104,-0.090,1.320,-0.640,52.778,77.778,122.222,1244.444,33.333,R
105,-0.515,1.100,-1.000,50.000,75.000,-130991.667,1177.778,66.667,R
106,-0.725,1.130,-1.000,50.000,75.000,-132208.333,1216.667,38.889,R
107,-0.680,0.800,-1.000,50.000,72.222,-133458.333,1247.222,30.556,R
108,-0.635,1.225,-1.000,50.000,80.556,-134663.889,1208.333,38.889,R
109,-0.585,1.275,-1.000,47.222,72.222,-135877.778,1211.111,2.778,R
110,-0.560,1.220,-1.000,52.778,77.778,-137038.889,1163.889,47.222,R
111,-0.495,1.365,-0.920,52.778,83.333,386.111,1222.222,58.333,R
112,-0.500,1.080,-0.970,50.000,77.778,102.778,1177.778,44.444,R
113,-0.570,1.455,-1.000,47.222,75.000,-140647.222,1205.556,27.778,R
114,-0.605,1.005,-1.000,50.000,80.556,-141836.111,1191.667,13.889,R
115,-0.560,1.465,-1.000,44.444,72.222,-143044.444,1202.778,11.111,R
116,-0.420,1.390,-0.825,50.000,72.222,380.556,1233.333,30.556,R
117,-0.395,1.340,-0.855,47.222,75.000,111.111,1197.222,36.111,R
118,-0.325,1.540,-0.725,50.000,80.556,383.333,1236.111,38.889,R
119,-0.275,1.300,-0.710,50.000,72.222,383.333,1163.889,72.222,R
120,-0.245,1.630,-0.685,52.778,83.333,380.556,1166.667,2.778,R
121,-0.125,1.415,-0.555,50.000,72.222,380.556,1219.444,52.778,R
122,-0.080,1.745,-0.545,52.778,86.111,386.111,1188.889,30.556,R
123,0.440,1.935,0.190,50.000,72.222,377.778,1238.889,50.000,R
124,0.445,1.840,-0.050,50.000,77.778,102.778,1152.778,86.111,R
125,-0.005,1.535,-0.560,50.000,83.333,130.556,1213.889,61.111,R
126,-0.440,0.985,-0.950,50.000,75.000,97.222,1233.333,19.444,R
127,-0.645,1.100,-1.000,44.444,72.222,-157497.222,1208.333,25.000,R
128,-0.855,0.685,-1.000,50.000,77.778,-158697.222,1205.556,2.778,R
129,-0.905,0.855,-1.000,47.222,72.222,-159886.111,1186.111,19.444,R
130,-0.625,1.175,-0.965,47.222,72.222,380.556,1238.889,52.778,R
131,-0.460,1.075,-0.935,50.000,77.778,166.667,1163.889,75.000,R
132,-0.350,1.480,-0.840,52.778,80.556,383.333,1213.889,50.000,R
133,-0.370,1.145,-0.795,52.778,80.556,383.333,1172.222,41.667,R
134,-0.360,1.470,-0.870,50.000,80.556,158.333,1186.111,13.889,R
135,-0.305,1.205,-0.745,52.778,80.556,383.333,1219.444,33.333,R
136,-0.330,1.460,-0.860,50.000,80.556,119.444,1183.333,36.111,R
137,-0.380,1.210,-0.765,47.222,66.667,380.556,1202.778,19.444,R
138,-0.425,1.205,-0.880,52.778,80.556,383.333,1141.667,61.111,R
139,-0.395,1.330,-0.815,52.778,77.778,383.333,1222.222,80.556,R
140,-0.350,1.065,-0.815,52.778,77.778,383.333,1191.667,30.556,R
141,-0.530,1.215,-1.000,47.222,77.778,-174222.222,1200.000,8.333,R
142,-0.590,0.950,-0.995,55.556,83.333,386.111,1169.444,30.556,R
143,0.215,1.635,-0.085,47.222,72.222,380.556,1172.222,2.778,R
144,0.240,1.480,-0.215,50.000,72.222,122.222,1202.778,30.556,R
145,-0.245,0.940,-0.775,55.556,88.889,111.111,1150.000,52.778,R
146,-0.685,0.865,-1.000,52.778,80.556,-180147.222,1236.111,86.111,R
147,-0.900,0.495,-1.000,50.000,77.778,-181313.889,1163.889,72.222,R
148,-0.965,0.775,-1.000,47.222,77.778,-182497.222,1183.333,19.444,R
149,-0.960,0.455,-1.000,47.222,75.000,-183705.556,1205.556,22.222,R
150,-0.875,0.950,-1.000,47.222,75.000,-184911.111,1205.556,0.000,R
151,-0.655,0.920,-1.000,47.222,66.667,-186116.667,1202.778,2.778,R
152,-0.510,1.295,-0.920,50.000,75.000,383.333,1200.000,2.778,R
153,-0.300,1.560,-0.350,52.778,77.778,383.333,1238.889,38.889,R
154,0.540,1.805,0.065,52.778,72.222,116.667,1194.444,44.444,R
155,0.195,1.670,-0.375,50.000,75.000,119.444,1227.778,33.333,R
156,-0.355,1.160,-0.870,52.778,75.000,383.333,1211.111,16.667,R
157,-0.660,1.020,-1.000,52.778,80.556,-193358.333,1177.778,33.333,R
158,-0.700,1.045,-1.000,50.000,75.000,-194602.778,1241.667,63.889,R
159,-0.690,0.870,-1.000,52.778,75.000,-195833.333,1230.556,11.111,R
160,-0.535,1.230,-0.995,44.444,72.222,377.778,1200.000,30.556,R
161,-0.620,1.250,-1.000,52.778,77.778,-198250.000,1216.667,16.667,R
162,-0.665,0.940,-1.000,58.333,83.333,-199486.111,1241.667,25.000,R
163,-0.665,1.315,-1.000,50.000,77.778,-200700.000,1208.333,33.333,R
164,-0.590,1.230,-1.000,52.778,77.778,-201950.000,1252.778,44.444,R
165,-0.575,1.150,-0.995,52.778,77.778,383.333,1186.111,66.667,R
166,0.405,2.075,0.135,50.000,77.778,380.556,1202.778,16.667,R
167,0.570,1.740,0.115,50.000,72.222,100.000,1191.667,11.111,R
168,-0.190,1.225,-0.800,55.556,86.111,113.889,1188.889,2.778,R
169,-0.945,0.590,-1.000,52.778,77.778,-207958.333,1238.889,50.000,R
170,-1.000,0.500,-1.000,209180.556,75.000,-209147.222,1183.333,55.556,R
171,-0.960,0.890,-1.000,50.000,80.556,-210377.778,1233.333,50.000,R
172,-0.760,0.835,-1.000,52.778,77.778,-211633.333,1255.556,22.222,R
173,-0.575,1.410,-0.975,47.222,75.000,380.556,1283.333,27.778,R
174,-0.470,1.350,-0.930,50.000,72.222,97.222,1219.444,63.889,R
175,-0.415,1.360,-0.890,50.000,72.222,380.556,1230.556,11.111,R
176,-0.375,1.650,-0.805,50.000,75.000,380.556,1236.111,5.556,R
177,-0.375,1.540,-0.855,47.222,72.222,127.778,1202.778,33.333,R
178,-0.390,1.460,-0.885,52.778,77.778,383.333,1250.000,47.222,R
179,-0.435,1.275,-0.940,50.000,75.000,380.556,1213.889,36.111,R
180,-0.495,1.370,-1.000,50.000,77.778,-221541.667,1272.222,58.333,R
181,-0.430,1.145,-0.805,50.000,77.778,383.333,1277.778,5.556,R
182,-0.310,1.635,-0.750,52.778,83.333,386.111,1250.000,27.778,R
183,-0.195,1.715,-0.620,47.222,72.222,377.778,1230.556,19.444,R
184,-0.130,1.370,-0.660,47.222,72.222,125.000,1219.444,11.111,R
185,-0.175,1.660,-0.635,52.778,77.778,383.333,1241.667,22.222,R
186,-0.220,1.320,-0.685,50.000,72.222,383.333,1211.111,30.556,R
187,-0.165,1.650,-0.680,50.000,75.000,383.333,1216.667,5.556,R
188,-0.185,1.455,-0.625,55.556,77.778,386.111,1211.111,5.556,R
189,-0.255,1.395,-0.740,52.778,77.778,383.333,1200.000,11.111,R
190,-0.365,1.470,-0.875,50.000,75.000,105.556,1241.667,41.667,R
191,-0.615,0.805,-1.000,55.556,80.556,-235063.889,1225.000,16.667,R
192,-0.730,1.115,-1.000,47.222,75.000,-236308.333,1238.889,13.889,R
193,-0.565,1.130,-0.910,52.778,75.000,383.333,1197.222,41.667,R
194,-0.400,1.155,-0.890,55.556,80.556,113.889,1205.556,8.333,R
195,-0.270,1.520,-0.675,47.222,75.000,380.556,1213.889,8.333,R
196,-0.195,1.360,-0.585,50.000,75.000,380.556,1213.889,0.000,R
197,-0.115,1.500,-0.630,52.778,80.556,383.333,1197.222,16.667,R
198,0.025,1.735,-0.470,52.778,77.778,383.333,1205.556,8.333,R
199,-0.175,1.540,-0.680,50.000,77.778,100.000,1241.667,36.111,R
200,-0.340,1.115,-0.865,55.556,86.111,111.111,1227.778,13.889,R
201,-0.455,1.375,-0.905,52.778,80.556,383.333,1238.889,11.111,R
202,-0.485,1.140,-0.940,50.000,77.778,383.333,1211.111,27.778,R
203,-0.475,1.075,-1.000,52.778,83.333,-249638.889,1183.333,27.778,R
204,-0.570,1.285,-1.000,50.000,77.778,-250855.556,1213.889,30.556,R
205,-0.550,1.110,-0.910,50.000,75.000,383.333,1216.667,2.778,R
206,-0.505,1.025,-1.000,47.222,75.000,-253238.889,1163.889,52.778,R
207,-0.460,1.315,-0.875,47.222,72.222,380.556,1197.222,33.333,R
208,-0.455,1.165,-0.815,50.000,75.000,380.556,1227.778,30.556,R
209,-0.435,1.125,-0.955,47.222,72.222,119.444,1172.222,55.556,R
210,-0.340,1.425,-0.810,50.000,80.556,383.333,1252.778,80.556,R
211,-0.355,1.080,-0.840,47.222,69.444,97.222,1200.000,52.778,R
212,-0.530,1.235,-1.000,52.778,80.556,-260452.778,1169.444,30.556,R
213,-0.635,0.975,-1.000,55.556,83.333,-261652.778,1200.000,30.556,R
214,-0.680,1.155,-1.000,55.556,86.111,-262844.444,1191.667,8.333,R
215,-0.585,1.025,-0.880,50.000,75.000,383.333,1186.111,5.556,R
216,-0.585,1.300,-1.000,50.000,72.222,-265155.556,1119.444,66.667,R
217,-0.475,1.315,-0.960,55.556,83.333,386.111,1172.222,52.778,R
218,-0.460,1.215,-0.960,50.000,77.778,383.333,1136.111,36.111,R
219,-0.455,1.380,-0.885,47.222,72.222,380.556,1211.111,75.000,R
220,-0.455,1.070,-0.970,50.000,72.222,383.333,1136.111,75.000,R
221,-0.410,1.355,-0.785,52.778,80.556,386.111,1200.000,63.889,R
222,-0.245,1.250,-0.650,52.778,83.333,386.111,1180.556,19.444,R
223,-0.210,1.600,-0.705,44.444,72.222,377.778,1147.222,33.333,R
224,-0.330,1.150,-0.815,52.778,77.778,102.778,1155.556,8.333,R
225,-0.350,1.425,-0.790,50.000,83.333,383.333,1125.000,30.556,R
226,-0.315,1.085,-0.755,52.778,72.222,380.556,1113.889,11.111,R
227,-0.120,1.685,-0.295,50.000,80.556,375.000,1133.333,19.444,R
228,0.115,1.575,-0.365,50.000,75.000,119.444,1083.333,50.000,R
229,-0.305,1.350,-0.805,47.222,75.000,380.556,1097.222,13.889,R
230,-0.470,1.115,-0.765,52.778,80.556,383.333,1047.222,50.000,R
231,-0.245,1.345,-0.640,52.778,80.556,386.111,1055.556,8.333,R
232,-0.465,1.135,-0.910,52.778,83.333,386.111,1016.667,38.889,R
233,-0.470,1.310,-0.550,50.000,77.778,380.556,1030.556,13.889,R
234,-0.155,1.455,-0.515,50.000,80.556,380.556,1030.556,0.000,R
235,-0.400,1.060,-0.735,50.000,80.556,372.222,1002.778,27.778,R
236,-0.715,1.065,-0.960,52.778,97.222,386.111,994.444,8.333,J
237,-0.745,0.915,-1.000,47.222,77.778,-288205.556,980.556,13.889,J
238,-1.000,0.460,-1.000,289238.889,72.222,-289208.333,1000.000,19.444,J
239,-1.000,0.945,-1.000,290205.556,77.778,-290172.222,966.667,33.333,J
240,-0.405,1.300,-0.550,50.000,75.000,383.333,983.333,16.667,J
241,-0.135,1.620,-0.220,50.000,77.778,380.556,936.111,47.222,J
242,-0.030,1.590,-0.280,47.222,72.222,380.556,936.111,0.000,J
243,-0.330,1.370,-0.605,55.556,83.333,386.111,930.556,5.556,J
244,-0.470,0.915,-0.860,47.222,80.556,380.556,938.889,8.333,J
245,-0.900,0.920,-1.000,52.778,80.556,-295813.889,922.222,16.667,J
246,-1.000,0.905,-1.000,296808.333,80.556,-296772.222,955.556,33.333,J
247,-0.795,0.880,-0.860,47.222,69.444,380.556,925.000,30.556,J
248,-0.530,1.270,-0.695,52.778,91.667,386.111,958.333,33.333,J
249,-0.695,1.215,-0.965,50.000,77.778,383.333,958.333,0.000,J
250,-0.985,-2.975,0.470,119.444,8.333,277.778,875.000,83.333,V
251,-0.335,1.420,-0.595,50.000,77.778,383.333,1063.889,188.889,J
252,-0.545,1.060,-0.885,50.000,75.000,383.333,1002.778,61.111,J
253,-0.945,0.735,-1.000,52.778,86.111,-303513.889,961.111,41.667,J
254,-1.000,-3.430,-0.125,304144.444,11.111,258.333,591.667,369.444,V
255,-1.000,0.675,-1.000,305233.333,72.222,-305197.222,1088.889,497.222,J
256,-1.000,0.820,-1.000,306238.889,80.556,-306200.000,1005.556,83.333,J
257,-1.000,1.010,-1.000,307202.778,88.889,-307163.889,963.889,41.667,J
258,-1.000,0.870,-1.000,308211.111,77.778,-308172.222,1008.333,44.444,J
259,-1.000,1.140,-1.000,309205.556,83.333,-309166.667,994.444,13.889,J
260,-0.845,1.140,-0.970,50.000,77.778,383.333,1022.222,27.778,J
261,-0.840,0.570,-0.795,52.778,66.667,369.444,1080.556,58.333,F
262,-1.000,-2.615,-0.225,312347.222,5.556,272.222,1038.889,41.667,V
263,-1.000,-2.840,0.355,313388.889,8.333,286.111,1041.667,2.778,V
264,-0.955,-2.775,0.525,144.444,8.333,261.111,1000.000,41.667,V
265,-0.920,-2.750,0.350,130.556,11.111,272.222,1019.444,19.444,V
266,-1.000,-2.920,0.320,316425.000,13.889,288.889,1016.667,2.778,V
267,-1.000,-2.880,0.380,317463.889,8.333,280.556,1038.889,22.222,V
268,-0.965,-2.735,0.525,136.111,13.889,294.444,1022.222,16.667,V
269,-0.905,-2.740,0.565,197.222,11.111,297.222,1061.111,38.889,V
270,-0.915,-2.705,0.475,141.667,8.333,258.333,1041.667,19.444,V
271,-0.930,-2.765,0.535,138.889,8.333,269.444,1030.556,11.111,V
272,-1.000,-2.855,0.275,322702.778,13.889,275.000,1083.333,52.778,V
273,-1.000,-2.935,0.370,323750.000,11.111,266.667,1047.222,36.111,V
274,-1.000,-2.905,0.260,324825.000,13.889,286.111,1075.000,27.778,V
275,-1.000,-2.930,0.355,325886.111,11.111,286.111,1061.111,13.889,V
276,-0.900,-2.600,0.760,108.333,11.111,261.111,1072.222,11.111,V
277,-0.590,-2.375,0.915,119.444,11.111,272.222,1111.111,38.889,V
278,-0.575,-2.385,0.890,136.111,8.333,261.111,1083.333,27.778,V
279,-0.565,-2.365,0.650,177.778,5.556,258.333,1175.000,91.667,V
280,-0.560,-1.450,0.020,30.556,5.556,319.444,1102.778,72.222,F
281,-0.260,1.790,-0.570,44.444,75.000,375.000,1083.333,19.444,J
282,-0.135,1.800,-0.330,50.000,80.556,383.333,1072.222,11.111,J
283,0.170,2.160,-0.065,47.222,77.778,375.000,1036.111,36.111,J
284,0.255,2.195,0.060,50.000,77.778,380.556,1083.333,47.222,J
285,0.190,2.230,-0.105,44.444,80.556,380.556,1047.222,36.111,J
286,0.095,1.985,-0.335,47.222,75.000,380.556,1075.000,27.778,J
287,-0.115,1.910,-0.275,50.000,91.667,386.111,1083.333,8.333,R
288,0.145,1.965,-0.140,47.222,72.222,375.000,1072.222,11.111,R
289,-0.215,1.880,-0.340,58.333,100.000,397.222,1063.889,8.333,R
290,-0.420,1.665,-0.525,166.667,97.222,402.778,1038.889,25.000,R
291,-0.760,1.430,-0.880,58.333,102.778,405.556,1052.778,13.889,R
292,-0.655,1.260,-0.985,50.000,80.556,383.333,1086.111,33.333,R
293,-0.965,1.330,-0.955,172.222,100.000,394.444,1102.778,16.667,R
294,-0.680,1.185,-1.000,52.778,83.333,-346369.444,1080.556,22.222,R
295,-0.960,1.275,-0.820,58.333,97.222,405.556,1100.000,19.444,R
296,-0.335,1.480,-0.510,47.222,72.222,380.556,1030.556,69.444,R
297,-0.480,1.545,-0.575,122.222,102.778,405.556,1069.444,38.889,R
298,-0.640,1.460,-0.750,58.333,102.778,391.667,1055.556,13.889,R
299,-0.380,1.360,-0.760,52.778,86.111,386.111,1075.000,19.444,R
300,-0.465,1.515,-0.715,50.000,80.556,383.333,1075.000,0.000,R
301,-0.390,1.450,-0.710,44.444,72.222,377.778,1036.111,38.889,R
302,-0.110,1.790,-0.220,50.000,80.556,383.333,1083.333,47.222,R
303,0.270,1.970,0.240,47.222,83.333,377.778,1061.111,22.222,R
304,0.855,2.045,0.525,52.778,77.778,383.333,1055.556,5.556,R
305,0.385,1.565,-0.100,52.778,77.778,105.556,1080.556,25.000,R
306,-0.445,0.900,-0.945,52.778,88.889,383.333,1061.111,19.444,R
307,-0.810,0.790,-1.000,50.000,80.556,-360202.778,1050.000,11.111,R
308,-0.975,0.690,-1.000,50.000,80.556,-361258.333,1052.778,2.778,R
309,-0.940,0.890,-1.000,47.222,72.222,-362308.333,1050.000,2.778,R
310,-0.920,0.805,-1.000,47.222,75.000,-363375.000,1063.889,13.889,R
311,-1.000,0.990,-1.000,364461.111,83.333,-364425.000,1052.778,11.111,R
312,-1.000,0.830,-1.000,365525.000,80.556,-365486.111,1063.889,11.111,R
313,-1.000,0.985,-1.000,366641.667,77.778,-366605.556,1116.667,52.778,R
314,-1.000,0.960,-1.000,367705.556,102.778,-367647.222,1063.889,52.778,R
315,-0.780,1.270,-0.995,50.000,83.333,380.556,1125.000,61.111,R
316,-0.955,1.320,-1.000,116.667,97.222,-369819.444,1047.222,77.778,R
317,-0.800,1.285,-1.000,47.222,80.556,-370952.778,1111.111,63.889,R
318,-0.715,1.270,-0.980,50.000,86.111,383.333,1075.000,36.111,R
319,-0.865,1.395,-1.000,58.333,100.000,-373144.444,1138.889,63.889,R
320,-0.705,1.260,-0.975,52.778,83.333,377.778,1088.889,50.000,R
321,-0.885,1.430,-0.870,58.333,100.000,405.556,1158.333,69.444,R
322,-0.500,1.440,-0.735,50.000,75.000,383.333,1111.111,47.222,R
323,0.710,2.570,1.030,58.333,102.778,405.556,1111.111,0.000,R
324,-1.000,2.315,0.920,378805.556,378847.222,378872.222,1133.333,22.222,R
325,0.380,1.465,-0.195,50.000,88.889,119.444,1113.889,19.444,R
326,-0.625,0.820,-1.000,50.000,72.222,-381005.556,1122.222,8.333,R
327,-1.000,0.665,-1.000,382111.111,100.000,-382052.778,1069.444,52.778,R
328,-1.000,0.670,-1.000,383208.333,80.556,-383169.444,1097.222,27.778,R
329,-1.000,0.915,-1.000,384311.111,100.000,-384252.778,1102.778,5.556,R
330,-1.000,0.860,-1.000,385413.889,86.111,-385375.000,1102.778,0.000,R
331,-1.000,0.905,-1.000,386511.111,77.778,-386477.778,1097.222,5.556,R
332,-1.000,0.740,-1.000,387575.000,100.000,-387516.667,1063.889,33.333,R
333,-1.000,0.835,-1.000,388611.111,100.000,-388552.778,1036.111,27.778,R
334,-0.825,1.150,-1.000,50.000,77.778,-389686.111,1111.111,75.000,R
335,-0.630,1.535,-0.895,50.000,77.778,383.333,1111.111,0.000,R
336,-0.485,1.485,-0.805,50.000,77.778,383.333,1122.222,11.111,R
337,-0.725,1.540,-0.750,58.333,97.222,405.556,1105.556,16.667,R
338,-0.380,1.615,-0.695,47.222,80.556,383.333,1097.222,8.333,R
339,-0.380,1.840,-0.540,50.000,80.556,383.333,1116.667,19.444,R
340,-0.445,1.865,-0.490,58.333,105.556,405.556,1072.222,44.444,R
341,-0.005,2.125,-0.240,50.000,83.333,386.111,1144.444,72.222,R
342,-0.305,1.940,-0.405,177.778,97.222,405.556,1094.444,50.000,R
343,-0.245,1.890,-0.545,50.000,77.778,380.556,1161.111,66.667,R
344,-0.275,1.760,-0.585,47.222,77.778,377.778,1122.222,38.889,R
345,-0.180,1.830,-0.390,50.000,83.333,386.111,1194.444,72.222,R
346,0.095,2.095,0.255,58.333,102.778,405.556,1133.333,61.111,R
347,-1.000,2.445,1.105,404347.222,404388.889,404694.444,1150.000,16.667,R
348,0.800,1.655,0.310,47.222,80.556,100.000,1105.556,44.444,R
349,-0.335,0.805,-0.760,50.000,75.000,380.556,1186.111,80.556,R
350,-0.925,0.385,-1.000,50.000,80.556,-407727.778,1125.000,61.111,R
351,-1.000,-0.005,-1.000,408938.889,94.444,-408880.556,1175.000,50.000,R
352,-1.000,-0.025,-1.000,410041.667,80.556,-410002.778,1102.778,72.222,R
353,-0.905,0.775,-0.990,50.000,80.556,383.333,1141.667,38.889,R
354,-0.520,1.090,-0.800,47.222,77.778,383.333,1080.556,61.111,R
355,-0.575,1.110,-0.915,47.222,75.000,383.333,1127.778,47.222,R
356,-0.840,1.270,-0.845,119.444,100.000,405.556,1077.778,50.000,R
357,-0.485,1.285,-0.840,50.000,77.778,383.333,1122.222,44.444,R
358,-0.535,1.480,-0.900,47.222,86.111,386.111,1100.000,22.222,R
359,-0.460,1.350,-0.800,50.000,77.778,383.333,1125.000,25.000,R
360,-0.775,1.515,-0.850,58.333,105.556,402.778,1191.667,66.667,R
361,-0.765,1.510,-0.840,119.444,100.000,405.556,1122.222,69.444,R
362,-0.555,1.550,-0.845,50.000,86.111,375.000,1116.667,5.556,R
363,-0.405,1.525,-0.320,47.222,77.778,383.333,1100.000,16.667,R
364,0.670,2.430,0.415,52.778,83.333,383.333,1105.556,5.556,R
365,0.345,1.895,-0.250,50.000,80.556,383.333,1058.333,47.222,R
366,-0.140,1.540,-0.565,47.222,69.444,380.556,1063.889,5.556,R
367,-0.740,1.235,-0.985,130.556,105.556,402.778,1077.778,13.889,R
368,-0.895,0.865,-1.000,55.556,88.889,-427705.556,1094.444,16.667,R
369,-1.000,0.855,-1.000,428811.111,75.000,-428775.000,1063.889,30.556,R
370,-1.000,0.955,-1.000,429913.889,83.333,-429877.778,1102.778,38.889,R
371,-1.000,0.960,-1.000,430988.889,102.778,-430930.556,1075.000,27.778,R
372,-1.000,1.060,-1.000,432116.667,102.778,-432058.333,1127.778,52.778,R
373,-1.000,0.830,-1.000,433216.667,86.111,-433177.778,1100.000,27.778,R
374,-1.000,0.710,-1.000,434358.333,100.000,-434300.000,1141.667,41.667,R
375,-1.000,0.615,-1.000,435494.444,80.556,-435455.556,1136.111,5.556,R
376,-0.275,1.850,0.270,58.333,97.222,405.556,1102.778,33.333,R
377,0.650,1.850,0.195,50.000,80.556,383.333,1094.444,8.333,R
378,-0.270,1.230,-0.760,180.556,102.778,147.222,1144.444,50.000,R
379,-0.775,0.900,-1.000,47.222,77.778,-439930.556,1127.778,16.667,R
380,-1.000,1.015,-1.000,441100.000,102.778,-441041.667,1136.111,8.333,R
381,-1.000,1.080,-1.000,442205.556,102.778,-442147.222,1105.556,30.556,R
382,-0.880,1.310,-0.905,58.333,100.000,405.556,1108.333,2.778,R
383,-0.460,1.435,-0.790,50.000,83.333,386.111,1133.333,25.000,R
384,-0.625,1.550,-0.745,58.333,102.778,405.556,961.111,172.222,A
385,-0.665,1.555,-0.780,58.333,100.000,405.556,1300.000,338.889,R
386,-0.690,1.630,-0.705,58.333,105.556,405.556,1166.667,133.333,R
387,-0.175,1.800,-0.465,47.222,77.778,383.333,1161.111,5.556,R
388,-0.205,1.795,-0.580,52.778,83.333,386.111,1158.333,2.778,R
389,-0.285,1.615,-0.630,50.000,77.778,377.778,1144.444,13.889,R
390,-0.640,1.555,-0.820,169.444,102.778,405.556,1136.111,8.333,R
391,-0.705,1.295,-1.000,47.222,80.556,-453566.667,1127.778,8.333,R
392,-1.000,1.040,-1.000,454711.111,102.778,-454652.778,1108.333,19.444,R
393,-0.880,1.100,-1.000,50.000,80.556,-455819.444,1147.222,38.889,R
394,-1.000,1.235,-0.950,456952.778,102.778,405.556,1094.444,52.778,R
395,-0.535,1.435,-0.795,47.222,75.000,383.333,1169.444,75.000,R
396,-0.450,1.545,-0.780,52.778,88.889,386.111,1116.667,52.778,R
397,-0.595,1.600,-0.695,58.333,102.778,405.556,1177.778,61.111,R
398,-0.670,1.515,-0.785,58.333,102.778,397.222,1191.667,13.889,R
399,-0.375,1.590,-0.655,47.222,75.000,380.556,1183.333,8.333,R
400,-0.135,1.770,-0.420,47.222,80.556,383.333,1172.222,11.111,R
401,0.045,1.850,-0.280,50.000,80.556,386.111,1194.444,22.222,R
402,-0.445,1.625,-0.730,172.222,100.000,402.778,1116.667,77.778,R
403,-0.695,1.220,-1.000,47.222,77.778,-467422.222,1183.333,66.667,R
404,-0.550,1.305,-0.305,50.000,83.333,386.111,1130.556,52.778,R
405,0.790,2.035,0.580,52.778,83.333,380.556,1219.444,88.889,R
406,0.345,1.620,-0.240,44.444,69.444,91.667,1119.444,100.000,R
407,-0.540,1.140,-1.000,50.000,77.778,-472075.000,1186.111,66.667,R
408,-0.840,0.955,-1.000,47.222,77.778,-473208.333,1130.556,55.556,R
409,-0.825,1.045,-1.000,50.000,80.556,-474375.000,1166.667,36.111,R
410,-0.795,1.120,-1.000,47.222,77.778,-475494.444,1116.667,50.000,R
411,-0.325,1.510,-0.595,50.000,80.556,386.111,1180.556,63.889,R
412,-0.355,1.435,-0.815,47.222,75.000,383.333,1122.222,58.333,R
413,-0.590,1.260,-1.000,50.000,77.778,-478938.889,1144.444,22.222,R
414,-0.775,1.175,-1.000,47.222,80.556,-480050.000,1111.111,33.333,R
415,-0.715,1.150,-1.000,47.222,75.000,-481188.889,1136.111,25.000,R
416,-1.000,1.235,-1.000,482319.444,100.000,-482261.111,1097.222,38.889,R
417,-0.615,1.200,-1.000,55.556,86.111,-483380.556,1102.778,5.556,R
418,-0.605,1.485,-0.885,47.222,75.000,383.333,1094.444,8.333,R
419,-0.300,1.510,-0.195,47.222,80.556,383.333,1094.444,0.000,R
420,0.175,2.005,0.030,58.333,97.222,400.000,1108.333,13.889,R
421,0.000,1.535,-0.550,47.222,72.222,380.556,1061.111,47.222,R
422,-0.670,1.140,-1.000,50.000,88.889,-488841.667,1100.000,38.889,R
423,-0.845,0.885,-1.000,50.000,77.778,-489900.000,1055.556,44.444,R
424,-1.000,0.935,-1.000,491016.667,86.111,-490977.778,1080.556,25.000,R
425,-0.820,1.365,0.020,58.333,100.000,397.222,1072.222,8.333,R
426,0.550,1.790,0.190,50.000,80.556,383.333,1116.667,44.444,R
427,-0.220,1.180,-0.700,175.000,97.222,150.000,1122.222,5.556,R
428,-1.000,0.625,-1.000,495486.111,80.556,-495447.222,1158.333,36.111,R
429,-1.000,0.500,-1.000,496658.333,83.333,-496619.444,1172.222,13.889,R
430,-1.000,0.700,-1.000,497794.444,102.778,-497736.111,1136.111,36.111,R
431,-1.000,0.625,-1.000,498947.222,72.222,-498913.889,1152.778,16.667,R
432,-1.000,0.500,-1.000,500105.556,86.111,-500066.667,1158.333,5.556,R
433,-1.000,0.760,-1.000,501288.889,77.778,-501252.778,1183.333,25.000,R
434,-1.000,1.155,-1.000,502488.889,105.556,-502430.556,1200.000,16.667,R
435,-0.735,1.440,-0.810,58.333,105.556,405.556,1177.778,22.222,R
436,-0.310,1.665,-0.515,52.778,83.333,386.111,1150.000,27.778,R
437,-0.380,1.780,-0.515,58.333,102.778,402.778,1213.889,63.889,R
438,-0.340,1.625,-0.725,50.000,91.667,383.333,1158.333,55.556,R
439,-0.335,1.575,-0.660,50.000,77.778,383.333,1227.778,69.444,R
440,-0.785,1.435,-0.865,172.222,102.778,405.556,1188.889,38.889,R
441,-0.380,1.550,-0.715,47.222,86.111,383.333,1216.667,27.778,R
442,-0.530,1.650,-0.605,175.000,102.778,405.556,1186.111,30.556,R
443,-0.310,1.625,-0.695,47.222,72.222,380.556,1227.778,41.667,R
444,-0.715,1.460,-0.875,166.667,100.000,405.556,1200.000,27.778,R
445,-0.850,1.350,-1.000,130.556,100.000,-515602.778,1225.000,25.000,R
446,-0.820,1.080,-1.000,50.000,77.778,-516813.889,1188.889,36.111,R
447,-0.960,1.275,-1.000,58.333,100.000,-517983.333,1191.667,2.778,R
448,-0.540,1.440,-0.810,50.000,83.333,383.333,1155.556,36.111,R
449,-0.265,1.575,-0.565,47.222,77.778,383.333,1155.556,0.000,R
450,-0.260,1.860,-0.395,58.333,100.000,405.556,1158.333,2.778,R
451,-0.245,1.800,-0.270,58.333,97.222,405.556,1216.667,58.333,R
452,-0.010,1.755,-0.495,52.778,97.222,388.889,1161.111,55.556,R
453,-0.105,1.640,-0.395,50.000,83.333,383.333,1250.000,88.889,R
454,-0.070,1.745,-0.380,50.000,80.556,383.333,1191.667,58.333,R
455,-0.245,1.830,-0.440,58.333,102.778,405.556,1138.889,52.778,R
456,-0.005,1.860,-0.345,50.000,72.222,383.333,1188.889,50.000,R
457,0.015,1.875,-0.265,52.778,83.333,383.333,1116.667,72.222,R
458,0.305,1.970,0.020,47.222,72.222,377.778,1122.222,5.556,R
459,-0.115,1.980,-0.305,127.778,100.000,405.556,1041.667,80.556,R
460,0.025,1.620,-0.170,50.000,77.778,383.333,1083.333,41.667,R
461,0.235,1.855,-0.285,50.000,86.111,383.333,1183.333,100.000,R
462,-0.255,1.340,-0.885,55.556,91.667,116.667,1091.667,91.667,R
463,-0.635,1.150,-1.000,50.000,80.556,-536402.778,1144.444,52.778,R
464,-0.800,1.130,-1.000,50.000,80.556,-537502.778,1100.000,44.444,R
465,-0.720,1.100,-1.000,47.222,77.778,-538613.889,1105.556,5.556,R
466,-0.270,1.605,-0.215,50.000,80.556,386.111,1075.000,30.556,R
467,0.000,1.895,0.115,127.778,111.111,402.778,983.333,91.667,R
468,0.530,1.670,0.000,50.000,86.111,113.889,1086.111,102.778,R
469,-0.310,1.135,-0.870,50.000,80.556,383.333,1036.111,50.000,R
470,-0.720,0.705,-0.900,50.000,83.333,386.111,1016.667,19.444,R
471,-0.625,0.955,-0.845,52.778,83.333,380.556,1061.111,44.444,R
472,-0.605,1.010,-0.475,47.222,75.000,383.333,1011.111,50.000,R
473,0.255,1.285,0.050,47.222,69.444,380.556,1050.000,38.889,R
474,0.215,1.090,-0.070,180.556,94.444,144.444,1030.556,19.444,R
475,-0.835,0.395,-1.000,161.111,97.222,-548944.444,1005.556,25.000,R
476,-0.215,0.765,-0.360,50.000,77.778,383.333,1063.889,58.333,R
477,0.320,0.805,-0.025,47.222,75.000,377.778,1052.778,11.111,R
478,-0.620,0.250,-1.000,52.778,77.778,-552091.667,1008.333,44.444,R
479,-1.000,-0.110,-1.000,553197.222,77.778,-553161.111,1069.444,61.111,R
480,-1.000,0.220,-1.000,554252.778,69.444,-554219.444,1055.556,13.889,R
481,-1.000,0.205,-1.000,555222.222,80.556,-555186.111,969.444,86.111,R
482,-0.975,0.385,-1.000,50.000,72.222,-556197.222,1008.333,38.889,R
483,-0.815,0.510,-1.000,50.000,72.222,-557175.000,977.778,30.556,R
484,-1.000,0.400,-1.000,558230.556,75.000,-558197.222,1022.222,44.444,R
485,-1.000,0.110,-1.000,559311.111,77.778,-559272.222,1080.556,58.333,R
486,-1.000,0.565,-1.000,560411.111,75.000,-560377.778,1100.000,19.444,R
487,-1.000,0.440,-1.000,561500.000,80.556,-561463.889,1088.889,11.111,R
488,-1.000,0.890,-1.000,562633.333,69.444,-562600.000,1133.333,44.444,R
489,-0.915,1.205,-1.000,47.222,75.000,-563702.778,1102.778,30.556,R
490,-0.470,1.200,-0.765,50.000,69.444,380.556,1113.889,11.111,R
491,0.000,1.870,-0.345,50.000,77.778,383.333,1127.778,13.889,R
492,-0.105,1.725,-0.630,47.222,72.222,377.778,1119.444,8.333,R
493,-0.105,1.670,-0.510,55.556,77.778,386.111,1141.667,22.222,R
494,-0.025,1.835,-0.580,47.222,75.000,380.556,1130.556,11.111,R
495,-0.395,1.185,-1.000,52.778,77.778,-570466.667,1136.111,5.556,R
496,-0.760,1.155,-1.000,52.778,77.778,-571616.667,1147.222,11.111,R
497,-0.715,1.220,-1.000,47.222,69.444,-572752.778,1130.556,16.667,R
498,-0.280,1.555,-0.770,52.778,80.556,386.111,1144.444,13.889,R
499,-0.210,1.730,-0.685,44.444,75.000,380.556,1113.889,30.556,R
500,-0.265,1.325,-0.785,52.778,77.778,380.556,1108.333,5.556,R
501,-0.575,1.455,-1.000,44.444,69.444,-577227.778,1108.333,0.000,R
502,-0.505,1.170,-0.750,50.000,75.000,383.333,1125.000,16.667,R
503,-0.170,1.735,-0.650,47.222,80.556,383.333,1127.778,2.778,R
504,-0.210,1.430,-0.800,52.778,77.778,383.333,1108.333,19.444,R
505,-0.480,1.395,-0.930,47.222,69.444,380.556,1119.444,11.111,R
506,-0.475,1.325,-0.835,50.000,77.778,383.333,1088.889,30.556,R
507,-0.185,1.655,-0.615,47.222,72.222,380.556,1152.778,63.889,R
508,-0.225,1.690,-0.770,52.778,80.556,383.333,1105.556,47.222,R
509,-0.200,1.635,-0.635,50.000,75.000,377.778,1147.222,41.667,R
510,-0.170,1.835,-0.530,47.222,75.000,380.556,1083.333,63.889,R
511,0.090,1.830,-0.310,47.222,69.444,380.556,1111.111,27.778,R
512,0.230,2.210,-0.105,50.000,77.778,377.778,1108.333,2.778,R
513,0.385,2.060,-0.170,55.556,77.778,144.444,1097.222,11.111,R
514,0.320,2.350,-0.045,47.222,75.000,380.556,1091.667,5.556,R
515,0.490,2.125,0.125,50.000,77.778,383.333,1058.333,33.333,R
516,0.690,2.460,0.175,50.000,77.778,383.333,1102.778,44.444,R
517,0.345,1.750,-0.305,47.222,72.222,125.000,1133.333,30.556,R
518,-0.415,1.375,-1.000,52.778,77.778,-596083.333,1102.778,30.556,R
519,-0.760,0.860,-1.000,50.000,77.778,-597202.778,1116.667,13.889,R
520,-0.740,1.210,-1.000,52.778,75.000,-598311.111,1108.333,8.333,R
521,-0.695,1.075,-1.000,47.222,69.444,-599361.111,1047.222,61.111,R
522,-0.675,1.260,-1.000,50.000,72.222,-600488.889,1130.556,83.333,R
523,-0.575,1.360,-1.000,52.778,75.000,-601552.778,1063.889,66.667,R
524,-0.320,1.530,-0.670,50.000,80.556,380.556,1147.222,83.333,R
525,-0.105,1.770,-0.470,52.778,83.333,386.111,1066.667,80.556,R
526,-0.075,1.590,-0.640,50.000,72.222,380.556,1094.444,27.778,R
527,-0.445,1.435,-0.935,50.000,77.778,380.556,1105.556,11.111,R
528,-0.495,1.200,-0.975,50.000,72.222,383.333,1083.333,22.222,R
529,-0.320,1.600,-0.740,47.222,77.778,380.556,1100.000,16.667,R
530,-0.205,1.350,-0.710,55.556,77.778,386.111,1077.778,22.222,R
531,-0.430,1.435,-0.900,50.000,77.778,383.333,1069.444,8.333,R
532,-0.875,-2.485,-0.090,77.778,2.778,261.111,722.222,347.222,V
533,-0.600,1.415,-0.925,44.444,72.222,372.222,1394.444,672.222,j
534,-0.385,1.200,-0.800,52.778,75.000,383.333,1086.111,308.333,R
535,-0.450,1.515,-0.760,44.444,72.222,380.556,1083.333,2.778,R
536,-0.780,-2.665,0.435,55.556,8.333,272.222,763.889,319.444,V
537,-0.330,0.810,-0.485,41.667,55.556,372.222,1302.778,538.889,j
538,-0.345,1.310,-0.845,47.222,75.000,380.556,1102.778,200.000,R
539,-0.585,1.300,-0.955,52.778,80.556,380.556,1136.111,33.333,R
540,-0.515,1.275,-0.785,47.222,75.000,380.556,1069.444,66.667,R
541,-0.320,1.550,-0.665,50.000,77.778,380.556,1075.000,5.556,R
542,-0.230,1.405,-0.735,50.000,75.000,383.333,1058.333,16.667,R
543,-0.485,1.400,-0.990,47.222,75.000,380.556,1102.778,44.444,R
544,-0.660,1.035,-1.000,52.778,80.556,-624269.444,1077.778,25.000,R
545,-0.690,1.090,-1.000,47.222,72.222,-625397.222,1122.222,44.444,R
546,-0.510,1.090,-0.810,47.222,72.222,380.556,1072.222,50.000,R
547,-0.415,1.120,-0.645,47.222,63.889,377.778,1094.444,22.222,R
548,-0.340,1.220,-0.600,47.222,61.111,377.778,1094.444,0.000,R
549,-0.335,0.325,-0.490,41.667,55.556,372.222,1116.667,22.222,F
550,-0.385,-1.695,-0.230,27.778,5.556,291.667,1130.556,13.889,F
551,-0.650,-2.615,0.280,61.111,5.556,280.556,1108.333,22.222,V
552,-0.775,-2.885,0.160,61.111,2.778,280.556,1102.778,5.556,V
553,-0.735,-2.870,0.230,55.556,8.333,286.111,1091.667,11.111,V
554,-0.915,-3.195,-0.035,161.111,0.000,297.222,1147.222,55.556,V
555,-0.920,-3.080,-0.005,138.889,0.000,261.111,1144.444,2.778,V
556,-0.845,0.530,-0.670,113.889,83.333,400.000,1111.111,33.333,F
557,-0.470,1.235,-0.920,50.000,77.778,383.333,1119.444,8.333,R
558,-0.465,1.515,-0.820,47.222,75.000,377.778,1127.778,8.333,R
559,-0.340,1.410,-0.750,55.556,80.556,386.111,1080.556,47.222,R
560,-0.285,1.670,-0.690,50.000,72.222,375.000,1116.667,36.111,R
561,-0.345,1.560,-0.750,44.444,69.444,377.778,1052.778,63.889,R
562,-0.110,1.675,-0.580,52.778,83.333,386.111,1100.000,47.222,R
563,-0.240,1.755,-0.640,47.222,75.000,377.778,1091.667,8.333,R
564,-0.195,1.460,-0.580,55.556,83.333,388.889,1111.111,19.444,R
565,-0.075,1.690,-0.365,50.000,77.778,383.333,1102.778,8.333,R
566,-0.045,1.425,-0.575,47.222,66.667,377.778,1066.667,36.111,R
567,-0.435,1.355,-0.955,52.778,80.556,386.111,1086.111,19.444,R
568,-0.625,1.115,-1.000,52.778,77.778,-650733.333,1069.444,16.667,R
569,-0.625,1.280,-1.000,50.000,77.778,-651847.222,1113.889,44.444,R
570,-0.600,1.360,-0.985,50.000,80.556,377.778,1094.444,19.444,R
571,-0.460,1.425,-0.810,52.778,72.222,383.333,1111.111,16.667,R
572,-0.415,1.575,-0.825,47.222,75.000,380.556,1052.778,58.333,R
573,-0.310,1.500,-0.725,55.556,80.556,383.333,1130.556,77.778,R
574,-0.385,1.605,-0.850,50.000,75.000,380.556,1069.444,61.111,R
575,-0.305,1.485,-0.675,52.778,77.778,380.556,1144.444,75.000,R
576,-0.310,1.730,-0.695,44.444,72.222,375.000,1086.111,58.333,R
577,-0.215,1.515,-0.660,50.000,77.778,383.333,1111.111,25.000,R
578,-0.240,1.675,-0.620,50.000,72.222,383.333,1113.889,2.778,R
579,-0.190,1.415,-0.655,55.556,80.556,386.111,1122.222,8.333,R
580,-0.275,1.630,-0.640,50.000,72.222,369.444,1122.222,0.000,R
581,-0.250,1.335,-0.655,52.778,75.000,383.333,1113.889,8.333,R
582,-0.305,1.565,-0.725,50.000,75.000,383.333,1113.889,0.000,R
583,-0.205,1.375,-0.615,52.778,75.000,383.333,1152.778,38.889,R
584,-0.195,1.580,-0.675,50.000,80.556,383.333,1138.889,13.889,R
585,-0.265,1.390,-0.595,47.222,72.222,375.000,1144.444,5.556,R
586,-0.230,1.565,-0.710,47.222,75.000,380.556,1122.222,22.222,R
587,-0.405,1.135,-0.975,47.222,72.222,380.556,1161.111,38.889,R
588,-0.565,1.315,-0.930,50.000,75.000,383.333,1161.111,0.000,R
589,-0.490,1.170,-0.875,50.000,75.000,383.333,1166.667,5.556,R
590,-0.475,1.345,-0.925,44.444,66.667,377.778,1155.556,11.111,R
591,-0.530,1.290,-0.945,47.222,75.000,375.000,1138.889,16.667,R
592,-0.530,1.275,-0.960,52.778,80.556,383.333,1202.778,63.889,R
593,-0.520,1.285,-0.875,50.000,75.000,380.556,1194.444,8.333,R
594,-0.310,1.230,-0.765,50.000,75.000,383.333,1191.667,2.778,R
595,-0.240,1.570,-0.580,50.000,75.000,383.333,1136.111,55.556,R
596,0.010,1.530,-0.290,50.000,77.778,383.333,1144.444,8.333,R
597,0.145,1.755,-0.285,52.778,77.778,383.333,1166.667,22.222,R
598,-0.130,1.255,-0.745,50.000,72.222,102.778,1094.444,72.222,R
599,-0.480,1.235,-0.965,50.000,77.778,383.333,1119.444,25.000,R
600,-0.545,1.120,-0.905,52.778,80.556,383.333,1033.333,86.111,R
601,-0.270,1.440,-0.700,52.778,75.000,383.333,1097.222,63.889,R
602,-0.450,1.315,-0.900,47.222,77.778,380.556,1077.778,19.444,R
603,-0.500,1.065,-0.835,50.000,72.222,380.556,1072.222,5.556,R
604,-0.430,1.325,-0.870,52.778,77.778,386.111,1150.000,77.778,R
605,-0.710,1.130,-1.000,44.444,72.222,-692311.111,1052.778,97.222,R
606,-0.845,0.830,-1.000,52.778,75.000,-693425.000,1116.667,63.889,R
607,-0.900,1.070,-1.000,50.000,80.556,-694536.111,1111.111,5.556,R
608,-0.675,0.975,-1.000,52.778,77.778,-695641.667,1105.556,5.556,R
609,-0.670,1.280,-1.000,47.222,72.222,-696777.778,1133.333,27.778,R
610,-0.670,1.165,-1.000,41.667,69.444,-697825.000,1044.444,88.889,R
611,-0.600,1.255,-0.970,52.778,77.778,380.556,1105.556,61.111,R
612,-0.655,1.360,-1.000,50.000,77.778,-699988.889,1063.889,41.667,R
613,-0.575,1.065,-0.955,50.000,72.222,383.333,1086.111,22.222,R
614,-0.555,1.430,-0.850,52.778,77.778,383.333,1100.000,13.889,R
615,-0.370,1.385,-0.630,50.000,72.222,383.333,1058.333,41.667,R
616,-0.215,1.650,-0.675,47.222,75.000,377.778,1088.889,30.556,R
617,-0.395,1.360,-0.975,50.000,77.778,383.333,1113.889,25.000,R
618,-0.430,1.400,-0.750,50.000,77.778,383.333,1144.444,30.556,R
619,-0.380,1.440,-0.815,52.778,77.778,383.333,1088.889,55.556,R
620,-0.465,1.335,-0.850,47.222,69.444,377.778,1111.111,22.222,R
621,-0.475,1.220,-0.790,47.222,72.222,380.556,1058.333,52.778,R
622,-0.355,1.520,-0.800,50.000,75.000,383.333,1097.222,38.889,R
623,-0.445,1.275,-0.870,44.444,69.444,377.778,1077.778,19.444,R
624,-0.560,1.355,-0.950,55.556,83.333,386.111,1116.667,38.889,R
625,-0.500,1.230,-0.840,50.000,75.000,383.333,1111.111,5.556,R
626,-0.400,1.475,-0.770,50.000,77.778,383.333,1133.333,22.222,R
627,-0.290,1.495,-0.800,47.222,75.000,380.556,1111.111,22.222,R
628,-0.280,1.550,-0.685,50.000,72.222,383.333,1175.000,63.889,R
629,-0.295,1.450,-0.680,52.778,80.556,386.111,1155.556,19.444,R
630,-0.310,1.585,-0.715,44.444,69.444,377.778,1152.778,2.778,R
631,-0.355,1.515,-0.700,50.000,75.000,383.333,1122.222,30.556,R
632,-0.105,1.510,-0.540,55.556,80.556,386.111,1180.556,58.333,R
633,-0.170,1.655,-0.555,47.222,69.444,380.556,1100.000,80.556,R
634,-0.125,1.440,-0.625,50.000,75.000,380.556,1147.222,47.222,R
635,-0.330,1.590,-0.805,47.222,72.222,380.556,1088.889,58.333,R
636,-0.270,1.380,-0.705,50.000,77.778,383.333,1122.222,33.333,R
637,-0.335,1.565,-0.740,50.000,72.222,380.556,1136.111,13.889,R
638,-0.290,1.375,-0.735,50.000,77.778,383.333,1113.889,22.222,R
639,-0.330,1.550,-0.750,47.222,72.222,380.556,1138.889,25.000,R
640,-0.245,1.415,-0.755,52.778,83.333,386.111,1083.333,55.556,R
641,-0.275,1.630,-0.655,47.222,72.222,377.778,1108.333,25.000,R
642,-0.275,1.365,-0.735,50.000,77.778,383.333,1108.333,0.000,R
643,-0.455,1.435,-0.860,50.000,72.222,383.333,1119.444,11.111,R
644,-0.440,1.260,-0.895,50.000,77.778,383.333,1122.222,2.778,R
645,-0.475,1.480,-0.920,44.444,72.222,377.778,1125.000,2.778,R
646,-0.390,1.320,-0.825,50.000,77.778,383.333,1111.111,13.889,R
647,-0.440,1.440,-0.860,44.444,69.444,377.778,1163.889,52.778,R
648,-0.450,1.375,-0.745,47.222,77.778,383.333,1080.556,83.333,R
649,-0.050,1.565,-0.565,50.000,75.000,383.333,1155.556,75.000,R
650,-0.380,1.390,-0.875,52.778,83.333,386.111,1072.222,83.333,R
651,-0.535,1.235,-1.000,50.000,72.222,-743488.889,1116.667,44.444,R
652,-0.665,1.300,-1.000,50.000,75.000,-744600.000,1111.111,5.556,R
653,-0.570,1.095,-1.000,47.222,69.444,-745705.556,1105.556,5.556,R
654,-0.515,1.485,-0.870,50.000,80.556,380.556,1138.889,33.333,R
655,-0.345,1.350,-0.790,52.778,75.000,383.333,1127.778,11.111,R
656,-0.450,1.515,-0.835,50.000,80.556,383.333,1125.000,2.778,R
657,-0.305,1.535,-0.785,47.222,72.222,380.556,1130.556,5.556,R
658,-0.405,1.475,-1.000,52.778,80.556,-751361.111,1136.111,5.556,R
659,-0.480,1.410,-0.850,50.000,77.778,383.333,1133.333,2.778,R
660,-0.265,1.585,-0.740,52.778,75.000,383.333,1144.444,11.111,R
661,-0.430,1.490,-0.895,47.222,75.000,380.556,1091.667,52.778,R
662,-0.370,1.560,-0.750,50.000,69.444,380.556,1172.222,80.556,R
663,-0.320,1.660,-0.835,52.778,80.556,386.111,1119.444,52.778,R
664,-0.215,1.590,-0.690,52.778,77.778,383.333,1175.000,55.556,R
665,-0.300,1.700,-0.715,50.000,77.778,380.556,1105.556,69.444,R
666,-0.040,1.680,-0.410,47.222,75.000,380.556,1125.000,19.444,R
667,-0.095,1.730,-0.645,47.222,72.222,380.556,1136.111,11.111,R
668,-0.460,1.215,-1.000,55.556,83.333,-762722.222,1161.111,25.000,R
669,-0.745,1.265,-1.000,50.000,80.556,-763905.556,1180.556,19.444,R
670,-0.640,1.225,-0.975,50.000,72.222,383.333,1125.000,55.556,R
671,-0.390,1.545,-0.735,50.000,77.778,383.333,1138.889,13.889,R
672,-0.285,1.425,-0.760,47.222,72.222,380.556,1141.667,2.778,R
673,-0.465,1.440,-1.000,52.778,80.556,-768450.000,1138.889,2.778,R
674,-0.510,1.325,-0.865,50.000,77.778,380.556,1130.556,8.333,R
675,-0.500,1.450,-0.940,44.444,72.222,380.556,1125.000,5.556,R
676,-0.530,1.170,-1.000,50.000,77.778,-771833.333,1127.778,2.778,R
677,-0.480,1.460,-0.860,47.222,72.222,380.556,1138.889,11.111,R
678,-0.305,1.380,-0.860,55.556,83.333,144.444,1125.000,13.889,R
679,-0.270,1.615,-0.625,50.000,75.000,383.333,1147.222,22.222,R
680,-0.270,1.480,-0.665,47.222,72.222,380.556,1097.222,50.000,R
681,-0.270,1.610,-0.735,44.444,69.444,377.778,1125.000,27.778,R
682,-0.325,1.460,-0.695,50.000,77.778,380.556,1102.778,22.222,R
683,-0.210,1.545,-0.685,50.000,75.000,383.333,1127.778,25.000,R
684,-0.370,1.475,-0.745,50.000,75.000,383.333,1088.889,38.889,R
685,-0.230,1.395,-0.495,50.000,75.000,383.333,1091.667,2.778,R
686,-0.185,1.575,-0.715,44.444,75.000,377.778,1086.111,5.556,R
687,-0.340,1.265,-0.650,52.778,72.222,380.556,1161.111,75.000,R
688,-0.295,1.440,-0.755,55.556,86.111,386.111,1138.889,22.222,R
689,-0.500,1.175,-1.000,50.000,72.222,-786411.111,1144.444,5.556,R
690,-0.725,1.250,-1.000,50.000,75.000,-787527.778,1119.444,25.000,R
691,-0.615,1.190,-1.000,47.222,72.222,-788658.333,1127.778,8.333,R
692,-0.575,1.425,-0.970,47.222,72.222,380.556,1163.889,36.111,R
693,-0.540,1.370,-0.960,52.778,77.778,383.333,1136.111,27.778,R
694,-0.385,1.505,-0.755,44.444,66.667,377.778,1155.556,19.444,R
695,-0.360,1.550,-0.770,50.000,75.000,380.556,1108.333,47.222,R
696,-0.340,1.480,-0.830,52.778,83.333,386.111,1163.889,55.556,R
697,-0.095,1.805,-0.330,50.000,75.000,383.333,1127.778,36.111,R
698,-0.005,1.650,-0.575,52.778,75.000,383.333,1163.889,36.111,R
699,-0.395,1.515,-1.000,44.444,72.222,-797791.667,1111.111,52.778,R
700,-0.560,1.245,-1.000,44.444,69.444,-799016.667,1225.000,113.889,R
701,-0.560,1.470,-0.925,50.000,72.222,375.000,1200.000,25.000,R
702,-0.430,1.270,-0.940,52.778,77.778,383.333,1147.222,52.778,R
703,-0.325,1.640,-0.800,47.222,75.000,380.556,1138.889,8.333,R
704,-0.340,1.335,-0.830,55.556,77.778,386.111,1136.111,2.778,R
705,-0.505,1.520,-0.945,47.222,77.778,383.333,1108.333,27.778,R
706,-0.460,1.340,-0.910,47.222,72.222,380.556,1136.111,27.778,R
707,-0.450,1.600,-1.000,50.000,80.556,-806991.667,1113.889,22.222,R
708,-0.350,1.470,-0.850,47.222,72.222,380.556,1175.000,61.111,R
709,-0.445,1.565,-0.850,50.000,75.000,380.556,1141.667,33.333,R
710,-0.430,1.475,-0.920,47.222,75.000,380.556,1102.778,38.889,R
711,-0.360,1.690,-0.780,50.000,77.778,383.333,1191.667,88.889,R
712,-0.315,1.480,-0.910,55.556,86.111,116.667,1141.667,50.000,R
713,-0.330,1.710,-0.725,50.000,77.778,383.333,1197.222,55.556,R
714,-0.300,1.510,-0.825,44.444,66.667,377.778,1125.000,72.222,R
715,-0.370,1.710,-0.795,50.000,77.778,380.556,1111.111,13.889,R
716,-0.235,1.625,-0.665,50.000,72.222,377.778,1116.667,5.556,R
717,-0.260,1.860,-0.610,55.556,83.333,386.111,1166.667,50.000,R
718,-0.125,1.750,-0.535,47.222,72.222,380.556,1133.333,33.333,R
719,-0.110,1.935,-0.570,47.222,72.222,380.556,1172.222,38.889,R
720,-0.055,1.725,-0.615,55.556,86.111,125.000,1141.667,30.556,R
721,-0.605,-0.425,0.350,47.222,88.889,355.556,700.000,441.667,V
722,-0.295,1.620,-0.755,47.222,72.222,380.556,1580.556,880.556,R
723,-0.280,1.540,-0.860,47.222,75.000,380.556,1150.000,430.556,R
724,-0.445,1.480,-0.905,47.222,77.778,380.556,1155.556,5.556,R
725,-0.410,1.410,-0.860,52.778,75.000,383.333,1188.889,33.333,R
726,-0.380,1.505,-0.740,50.000,75.000,383.333,1097.222,91.667,R
727,-0.200,1.570,-0.695,50.000,75.000,383.333,1158.333,61.111,R
728,-0.185,1.740,-0.655,52.778,83.333,383.333,1094.444,63.889,R
729,-0.145,1.510,-0.670,47.222,69.444,380.556,1136.111,41.667,R
730,-0.255,1.700,-0.655,47.222,77.778,380.556,1144.444,8.333,R
731,-0.225,1.530,-0.770,47.222,75.000,380.556,1127.778,16.667,R
732,-0.285,1.600,-0.805,47.222,75.000,380.556,1205.556,77.778,R
733,-0.335,1.490,-0.775,52.778,77.778,383.333,1188.889,16.667,R
734,-0.235,1.615,-0.690,50.000,72.222,383.333,1186.111,2.778,R
735,-0.160,1.595,-0.585,50.000,75.000,380.556,1161.111,25.000,R
736,0.085,1.790,-0.320,55.556,83.333,388.889,1169.444,8.333,R
737,0.020,1.715,-0.500,50.000,75.000,383.333,1133.333,36.111,R
738,-0.340,1.230,-0.835,50.000,75.000,383.333,1138.889,5.556,R
739,-0.525,1.350,-0.955,50.000,72.222,377.778,1077.778,61.111,R
740,-0.470,1.155,-0.890,47.222,75.000,380.556,1116.667,38.889,R
741,-0.500,1.365,-1.000,52.778,83.333,-845905.556,1088.889,27.778,R
742,-0.565,1.215,-1.000,52.778,77.778,-847008.333,1100.000,11.111,R
743,-0.090,1.655,-0.265,52.778,75.000,383.333,1105.556,5.556,R
744,0.010,1.580,-0.545,50.000,69.444,380.556,1088.889,16.667,R
745,-0.540,1.170,-1.000,50.000,75.000,-850372.222,1166.667,77.778,R
746,-0.850,1.055,-1.000,47.222,77.778,-851475.000,1102.778,63.889,R
747,-0.755,1.180,-1.000,52.778,77.778,-852658.333,1186.111,83.333,R
748,-0.625,1.260,-0.940,47.222,75.000,380.556,1108.333,77.778,R
749,-0.390,1.530,-0.815,50.000,72.222,383.333,1136.111,27.778,R
750,-0.340,1.615,-0.750,52.778,80.556,383.333,1150.000,13.889,R
751,-0.305,1.565,-0.835,50.000,80.556,383.333,1150.000,0.000,R
752,-0.160,1.575,-0.195,52.778,77.778,386.111,1161.111,11.111,R
753,0.365,2.045,-0.105,47.222,75.000,380.556,1108.333,52.778,R
754,-0.005,1.525,-0.660,50.000,72.222,97.222,1130.556,22.222,R
755,-0.575,1.410,-1.000,47.222,77.778,-861763.889,1158.333,27.778,R
756,-0.665,1.095,-1.000,55.556,80.556,-862938.889,1180.556,22.222,R
757,-0.560,1.535,-0.875,44.444,66.667,377.778,1169.444,11.111,R
758,-0.225,1.515,-0.400,50.000,77.778,383.333,1127.778,41.667,R
759,0.225,2.000,-0.290,50.000,83.333,383.333,1138.889,11.111,R
760,0.010,1.720,-0.660,47.222,69.444,97.222,1125.000,13.889,R
761,-0.530,1.375,-1.000,50.000,77.778,-868680.556,1177.778,52.778,R
762,-0.930,1.480,-0.975,119.444,100.000,405.556,1122.222,55.556,R
763,-0.415,1.530,-0.895,50.000,72.222,380.556,1163.889,41.667,R
764,-0.385,1.570,-0.825,52.778,83.333,386.111,1144.444,19.444,R
765,-0.275,1.675,-0.695,50.000,77.778,383.333,1175.000,30.556,R
766,-0.220,1.660,-0.705,47.222,72.222,380.556,1172.222,2.778,R
767,-0.170,1.780,-0.650,55.556,80.556,386.111,1169.444,2.778,R
768,-0.140,1.660,-0.605,47.222,77.778,380.556,1125.000,44.444,R
769,-0.300,1.705,-0.740,44.444,66.667,375.000,1172.222,47.222,R
770,-0.325,1.400,-0.900,50.000,72.222,377.778,1166.667,5.556,R
771,-0.355,1.640,-0.740,50.000,80.556,383.333,1183.333,16.667,R
772,-0.180,1.570,-0.570,50.000,75.000,383.333,1175.000,8.333,R
773,-0.140,1.795,-0.515,47.222,72.222,380.556,1122.222,52.778,R
774,0.575,2.125,0.130,50.000,69.444,380.556,1211.111,88.889,R
775,0.235,1.855,-0.355,55.556,86.111,113.889,1152.778,58.333,R
776,-0.325,1.295,-0.850,47.222,72.222,380.556,1194.444,41.667,R
777,-0.505,1.355,-0.970,44.444,69.444,377.778,1127.778,66.667,R
778,-0.420,1.205,-0.900,52.778,75.000,386.111,1194.444,66.667,R
779,-0.495,1.300,-0.955,47.222,75.000,380.556,1127.778,66.667,R
780,-0.580,1.075,-1.000,47.222,75.000,-890775.000,1191.667,63.889,R
781,-0.535,1.400,-0.945,50.000,75.000,380.556,1133.333,58.333,R
782,0.025,1.610,-0.220,52.778,77.778,383.333,1163.889,30.556,R
783,0.095,1.740,-0.375,50.000,77.778,383.333,1152.778,11.111,R
784,-0.230,1.285,-0.735,50.000,69.444,380.556,1155.556,2.778,R
785,-0.240,1.465,-0.670,52.778,75.000,383.333,1208.333,52.778,R
786,-0.345,1.190,-0.835,55.556,80.556,386.111,1127.778,80.556,R
787,-0.400,1.230,-0.870,44.444,66.667,377.778,1141.667,13.889,R
788,-0.545,1.225,-1.000,47.222,69.444,-900063.889,1202.778,61.111,R
789,-0.630,1.205,-1.000,52.778,83.333,-901222.222,1166.667,36.111,R
790,-0.610,1.265,-1.000,50.000,77.778,-902397.222,1172.222,5.556,R
791,-0.710,1.190,-1.000,44.444,69.444,-903547.222,1147.222,25.000,R
792,-0.625,1.390,-1.000,52.778,77.778,-904686.111,1141.667,5.556,R
793,-0.420,1.365,-0.850,50.000,75.000,383.333,1211.111,69.444,R
794,-0.410,1.580,-0.860,55.556,83.333,386.111,1163.889,47.222,R
795,-0.390,1.475,-0.820,44.444,66.667,377.778,1172.222,8.333,R
796,-0.385,1.620,-0.820,50.000,75.000,380.556,1163.889,8.333,R
797,-0.275,1.440,-0.780,55.556,77.778,386.111,1188.889,25.000,R
798,-0.290,1.650,-0.690,50.000,77.778,383.333,1138.889,50.000,R
799,-0.260,1.380,-0.755,47.222,72.222,380.556,1186.111,47.222,R
800,-0.470,1.460,-1.000,52.778,80.556,-914019.444,1108.333,77.778,R
801,-0.490,1.175,-0.785,47.222,72.222,380.556,1130.556,22.222,R
802,-0.240,1.560,-0.615,50.000,77.778,383.333,1150.000,19.444,R
803,-0.265,1.295,-0.770,50.000,75.000,383.333,1108.333,41.667,R
804,-0.430,1.525,-0.905,50.000,75.000,383.333,1147.222,38.889,R
805,-0.355,1.285,-0.925,52.778,80.556,108.333,1097.222,50.000,R
806,-0.285,1.625,-0.670,50.000,77.778,383.333,1100.000,2.778,R
807,-0.245,1.490,-0.800,50.000,75.000,136.111,1072.222,27.778,R
808,-0.350,1.580,-0.805,50.000,83.333,377.778,1130.556,58.333,R
809,-0.460,1.245,-0.945,50.000,75.000,383.333,1119.444,11.111,R
810,-0.470,1.480,-0.795,44.444,69.444,377.778,1105.556,13.889,R
811,-0.400,1.310,-0.910,50.000,75.000,383.333,1063.889,41.667,R
812,-0.585,1.360,-1.000,50.000,77.778,-927319.444,1075.000,11.111,R
813,-0.500,1.480,-0.895,50.000,80.556,380.556,1113.889,38.889,R
814,-0.365,1.560,-0.725,52.778,77.778,380.556,1194.444,80.556,R
815,-0.235,1.665,-0.650,47.222,69.444,377.778,1125.000,69.444,R
816,-0.165,1.690,-0.590,52.778,77.778,380.556,1175.000,50.000,R
817,-0.085,1.765,-0.550,52.778,86.111,386.111,1133.333,41.667,R
818,-0.070,1.720,-0.530,50.000,69.444,380.556,1155.556,22.222,R
819,-0.235,1.565,-0.705,50.000,75.000,377.778,1147.222,8.333,R
820,-0.300,1.615,-0.775,50.000,77.778,383.333,1150.000,2.778,R
821,-0.315,1.475,-0.790,47.222,72.222,380.556,1130.556,19.444,R
822,-0.405,1.495,-0.800,52.778,75.000,383.333,1013.889,116.667,R
823,-0.290,1.600,-0.765,44.444,69.444,375.000,1252.778,238.889,R
824,-0.260,1.620,-0.770,50.000,72.222,377.778,1222.222,30.556,R
825,-0.325,1.540,-0.745,52.778,80.556,386.111,1172.222,50.000,R
826,-0.400,1.285,-0.930,52.778,72.222,383.333,1233.333,61.111,R
827,-0.430,1.450,-0.800,50.000,77.778,383.333,1197.222,36.111,R
828,-0.170,1.430,-0.735,52.778,80.556,130.556,1180.556,16.667,R
829,-0.315,1.495,-0.750,50.000,77.778,383.333,1166.667,13.889,R
830,-0.410,1.225,-0.845,47.222,66.667,380.556,1158.333,8.333,R
831,-0.445,1.435,-0.890,52.778,80.556,383.333,1144.444,13.889,R
832,-0.375,1.295,-0.785,47.222,75.000,380.556,1152.778,8.333,R
833,-0.345,1.550,-0.755,50.000,72.222,380.556,1172.222,19.444,R
834,-0.300,1.475,-0.850,47.222,72.222,380.556,1113.889,58.333,R
835,-0.320,1.620,-0.725,47.222,75.000,377.778,1158.333,44.444,R
836,-0.255,1.580,-0.725,52.778,77.778,383.333,1152.778,5.556,R
837,-0.245,1.605,-0.700,47.222,75.000,380.556,1163.889,11.111,R
838,-0.215,1.635,-0.690,50.000,75.000,380.556,1158.333,5.556,R
839,-0.230,1.665,-0.710,47.222,75.000,380.556,1169.444,11.111,R
840,-0.270,1.635,-0.745,50.000,75.000,383.333,1172.222,2.778,R
841,-0.225,1.520,-0.685,50.000,77.778,380.556,1191.667,19.444,R
842,-0.305,1.635,-0.910,47.222,77.778,116.667,1105.556,86.111,R
843,-0.285,1.370,-0.770,52.778,75.000,383.333,1202.778,97.222,R
844,-0.315,1.635,-0.725,52.778,75.000,380.556,1127.778,75.000,R
845,-0.340,1.350,-0.865,44.444,69.444,377.778,1130.556,2.778,R
846,-0.335,1.590,-0.750,50.000,75.000,383.333,1158.333,27.778,R
847,-0.330,1.240,-0.840,58.333,83.333,386.111,1194.444,36.111,R
848,-0.435,1.555,-0.825,44.444,75.000,380.556,1133.333,61.111,R
849,-0.340,1.375,-0.795,44.444,69.444,377.778,1161.111,27.778,R
850,-0.365,1.570,-0.930,52.778,80.556,383.333,1136.111,25.000,R
851,-0.320,1.415,-0.700,50.000,77.778,383.333,1166.667,30.556,R
852,-0.150,1.715,-0.630,47.222,72.222,380.556,1169.444,2.778,R
853,-0.240,1.400,-0.890,50.000,72.222,383.333,1172.222,2.778,R
854,-0.245,1.625,-0.545,50.000,77.778,383.333,1138.889,33.333,R
855,-0.170,1.570,-0.725,52.778,86.111,386.111,1202.778,63.889,R
856,-0.370,1.535,-0.880,47.222,75.000,380.556,1147.222,55.556,R
857,-0.430,1.490,-1.000,52.778,75.000,-979566.667,1227.778,80.556,R
858,-0.475,1.495,-0.930,50.000,77.778,383.333,1213.889,13.889,R
859,-0.395,1.330,-0.975,52.778,75.000,102.778,1194.444,19.444,R
860,-0.510,1.530,-0.880,47.222,72.222,377.778,1186.111,8.333,R
861,0.005,1.590,-0.470,52.778,83.333,155.556,1163.889,22.222,R
862,0.010,1.780,-0.465,47.222,77.778,380.556,1177.778,13.889,R
863,-0.255,1.320,-0.845,47.222,72.222,380.556,1147.222,30.556,R
864,-0.595,1.340,-1.000,50.000,80.556,-987777.778,1127.778,19.444,R
865,-0.615,1.085,-1.000,47.222,69.444,-988941.667,1161.111,33.333,R
866,-0.580,1.420,-1.000,52.778,80.556,-990091.667,1152.778,8.333,R
867,-0.585,1.205,-0.955,50.000,72.222,380.556,1172.222,19.444,R
868,-0.540,1.540,-0.930,47.222,75.000,380.556,1180.556,8.333,R
869,-0.470,1.230,-1.000,47.222,75.000,-993608.333,1161.111,19.444,R
870,-0.500,1.470,-0.870,50.000,77.778,383.333,1163.889,2.778,R
871,-0.385,1.365,-0.845,52.778,75.000,383.333,1180.556,16.667,R
872,-0.440,1.540,-0.860,44.444,66.667,377.778,1119.444,61.111,R
873,-0.740,-2.385,0.065,86.111,5.556,238.889,711.111,408.333,V
874,-0.430,1.555,-0.970,50.000,75.000,380.556,1494.444,783.333,R
875,-0.360,1.305,-0.840,50.000,77.778,377.778,1138.889,355.556,R
876,-0.390,1.545,-0.810,50.000,75.000,380.556,1225.000,86.111,R
877,-0.300,1.390,-0.815,44.444,75.000,380.556,1144.444,80.556,R
878,-0.310,1.575,-0.805,47.222,72.222,380.556,1169.444,25.000,R
879,-0.480,1.185,-0.970,55.556,80.556,386.111,1169.444,0.000,R
880,-0.485,1.425,-0.945,50.000,72.222,380.556,1144.444,25.000,R
881,-0.485,1.205,-0.985,50.000,72.222,383.333,1158.333,13.889,R
882,-0.480,1.515,-0.905,52.778,77.778,383.333,1161.111,2.778,R
883,-0.330,1.320,-0.790,50.000,77.778,383.333,1147.222,13.889,R
884,-0.260,1.715,-0.565,47.222,72.222,380.556,1144.444,2.778,R
885,-0.135,1.430,-0.725,50.000,75.000,380.556,1097.222,47.222,R
886,-0.325,1.655,-0.860,50.000,75.000,380.556,1141.667,44.444,R
887,-0.450,1.310,-0.955,55.556,80.556,383.333,1108.333,33.333,R
888,-0.555,1.465,-1.000,44.444,75.000,-1015366.667,1136.111,27.778,R
889,-0.445,1.325,-0.830,47.222,72.222,380.556,1161.111,25.000,R
890,-0.420,1.475,-0.960,55.556,86.111,386.111,1169.444,8.333,R
891,-0.370,1.415,-0.820,50.000,77.778,383.333,1158.333,11.111,R
892,-0.345,1.635,-0.825,44.444,69.444,377.778,1186.111,27.778,R
893,-0.455,1.470,-0.910,50.000,75.000,380.556,1161.111,25.000,R
894,-0.335,1.585,-0.760,50.000,77.778,383.333,1191.667,30.556,R
895,-0.340,1.540,-0.830,50.000,80.556,383.333,1158.333,33.333,R
896,-0.385,1.450,-0.820,44.444,69.444,380.556,1172.222,13.889,R
897,-0.430,1.405,-0.865,50.000,77.778,383.333,1150.000,22.222,R
898,-0.450,1.475,-1.000,55.556,83.333,-1027066.667,1200.000,50.000,R
899,-0.540,1.365,-1.000,50.000,77.778,-1028241.667,1172.222,27.778,R
900,-0.495,1.365,-1.000,50.000,77.778,-1029455.556,1213.889,41.667,R
901,-0.490,1.335,-1.000,50.000,72.222,-1030608.333,1150.000,63.889,R
902,-0.410,1.570,-0.910,47.222,72.222,380.556,1175.000,25.000,R
903,-0.385,1.370,-0.930,50.000,75.000,377.778,1186.111,11.111,R
904,-0.585,1.515,-0.975,47.222,75.000,380.556,1116.667,69.444,R
905,0.120,1.715,-0.430,50.000,72.222,380.556,1202.778,86.111,R
906,-0.040,1.785,-0.535,50.000,77.778,375.000,1155.556,47.222,R
907,-0.310,1.280,-0.930,50.000,75.000,383.333,1119.444,36.111,R
908,-0.575,1.440,-1.000,47.222,75.000,-1038766.667,1202.778,83.333,R
909,-0.475,1.335,-1.000,52.778,77.778,-1039972.222,1208.333,5.556,R
910,-0.460,1.580,-0.820,50.000,77.778,383.333,1163.889,44.444,R
911,-0.345,1.310,-0.860,50.000,75.000,383.333,1133.333,30.556,R
912,-0.380,1.690,-0.920,47.222,80.556,133.333,1177.778,44.444,R
913,-0.810,-0.610,0.150,47.222,97.222,386.111,752.778,425.000,V
914,-0.360,1.665,-0.745,50.000,75.000,380.556,1538.889,786.111,R
915,-0.255,1.465,-0.710,47.222,66.667,380.556,1108.333,430.556,R
916,-0.735,-0.525,0.215,83.333,105.556,391.667,791.667,316.667,V
917,-0.295,1.490,-0.830,50.000,80.556,383.333,1519.444,727.778,R
918,-0.360,1.580,-0.810,47.222,75.000,380.556,1108.333,411.111,R
919,-0.825,-0.590,0.140,55.556,100.000,383.333,883.333,225.000,V
920,-0.260,1.725,-0.765,47.222,77.778,380.556,1472.222,588.889,R
921,-0.120,1.420,-0.650,50.000,72.222,380.556,1152.778,319.444,R
922,-0.675,-0.470,0.310,61.111,105.556,383.333,680.556,472.222,V
923,-0.275,1.465,-0.855,44.444,72.222,119.444,1577.778,897.222,R
924,-0.420,1.535,-0.870,52.778,72.222,380.556,1191.667,386.111,R
925,-0.155,1.555,-0.295,52.778,77.778,377.778,1127.778,63.889,R
926,-0.210,2.000,-0.405,127.778,91.667,102.778,1130.556,2.778,R
927,-0.300,0.460,-0.615,58.333,91.667,402.778,1030.556,100.000,V
928,-0.665,0.260,-0.985,58.333,88.889,141.667,980.556,50.000,V
929,-0.955,-0.015,-1.000,58.333,88.889,-1062477.778,1005.556,25.000,V
930,-0.815,0.075,-0.980,58.333,91.667,397.222,961.111,44.444,V
931,-0.735,0.230,-0.930,58.333,88.889,400.000,1002.778,41.667,V
932,-0.685,0.105,-0.935,58.333,91.667,402.778,988.889,13.889,V
933,-0.545,1.365,-1.000,44.444,69.444,-1067011.111,1552.778,563.889,R
934,-0.940,-0.290,-0.435,86.111,80.556,372.222,944.444,608.333,V
935,-0.390,1.500,-0.890,52.778,80.556,380.556,1372.222,427.778,R
936,-0.325,1.245,-0.850,52.778,72.222,383.333,1097.222,275.000,R
937,-0.350,1.580,-0.795,50.000,77.778,383.333,1155.556,58.333,R
938,-0.340,1.335,-0.910,47.222,72.222,111.111,1113.889,41.667,R
939,-0.395,1.570,-0.935,47.222,75.000,380.556,1247.222,133.333,R
940,-0.425,1.300,-0.890,52.778,75.000,383.333,1166.667,80.556,R
941,-0.240,1.675,-0.610,52.778,80.556,386.111,1155.556,11.111,R
942,-0.205,1.565,-0.735,47.222,72.222,377.778,1144.444,11.111,R
943,-0.440,1.495,-1.000,55.556,77.778,-1078580.556,1177.778,33.333,R
944,-0.485,1.410,-0.815,50.000,77.778,383.333,1163.889,13.889,R
945,-0.055,1.740,-0.465,50.000,77.778,380.556,1158.333,5.556,R
946,-0.160,1.655,-0.730,47.222,75.000,380.556,1113.889,44.444,R
947,-0.435,1.400,-0.970,52.778,77.778,380.556,1194.444,80.556,R
948,-0.520,1.440,-1.000,52.778,77.778,-1084363.889,1152.778,41.667,R
949,-0.515,1.470,-0.915,47.222,72.222,375.000,1211.111,58.333,R
950,-0.440,1.590,-0.850,47.222,75.000,380.556,1158.333,52.778,R
951,-0.315,1.480,-0.930,55.556,83.333,116.667,1305.556,147.222,R
952,-0.480,1.570,-0.930,50.000,75.000,377.778,1230.556,75.000,R
953,-0.370,1.365,-0.960,52.778,77.778,383.333,1227.778,2.778,R
954,-0.420,1.675,-0.880,47.222,80.556,383.333,1147.222,80.556,R
955,-0.150,1.630,-0.555,50.000,72.222,377.778,1169.444,22.222,R
956,-0.100,1.880,-0.500,50.000,75.000,372.222,1133.333,36.111,R
957,-0.145,1.535,-0.755,47.222,77.778,111.111,1163.889,30.556,R
958,-0.275,1.730,-0.740,50.000,77.778,380.556,1183.333,19.444,R
959,-0.150,1.520,-0.470,50.000,72.222,377.778,1183.333,0.000,R
960,-0.160,1.715,-0.725,52.778,80.556,383.333,1152.778,30.556,R
961,-0.385,1.235,-0.895,52.778,80.556,383.333,1194.444,41.667,R
962,-0.450,1.490,-0.965,50.000,80.556,383.333,1150.000,44.444,R
963,-0.345,1.300,-0.750,50.000,75.000,383.333,1161.111,11.111,R
964,-0.520,1.520,-0.960,47.222,75.000,380.556,1119.444,41.667,R
965,-0.430,1.305,-0.865,47.222,72.222,380.556,1150.000,30.556,R
966,-0.245,1.755,-0.605,50.000,77.778,383.333,1127.778,22.222,R
967,-0.220,1.380,-0.690,50.000,77.778,383.333,1180.556,52.778,R
968,-0.290,1.625,-0.660,47.222,69.444,380.556,1133.333,47.222,R
969,-0.095,1.480,-0.595,50.000,77.778,383.333,1130.556,2.778,R
970,-0.305,1.575,-0.840,50.000,83.333,383.333,1177.778,47.222,R
971,-0.490,1.185,-1.000,50.000,75.000,-1111272.222,1116.667,61.111,R
972,-0.430,1.510,-0.865,50.000,80.556,380.556,1183.333,66.667,R
973,-0.370,1.400,-0.895,47.222,75.000,380.556,1108.333,75.000,R
974,-0.435,1.575,-0.855,50.000,69.444,380.556,1202.778,94.444,R
975,-0.320,1.405,-0.765,47.222,72.222,380.556,1197.222,5.556,R
976,-0.315,1.640,-0.855,52.778,86.111,386.111,1150.000,47.222,R
977,-0.245,1.420,-0.715,50.000,77.778,383.333,1205.556,55.556,R
978,-0.320,1.665,-0.755,44.444,75.000,380.556,1172.222,33.333,R
979,-0.355,1.370,-0.950,47.222,69.444,152.778,1188.889,16.667,R
980,-0.430,1.575,-0.865,47.222,72.222,380.556,1202.778,13.889,R
981,-0.300,1.440,-0.630,50.000,75.000,383.333,1216.667,13.889,R
982,-0.180,1.700,-0.645,50.000,69.444,380.556,1200.000,16.667,R
983,-0.305,1.345,-0.810,50.000,75.000,380.556,1186.111,13.889,R
984,-0.395,1.475,-0.830,52.778,80.556,386.111,1177.778,8.333,R
985,-0.420,1.325,-0.955,47.222,72.222,380.556,1175.000,2.778,R
986,-0.430,1.470,-0.935,50.000,80.556,383.333,1230.556,55.556,R
987,-0.355,1.410,-0.590,52.778,75.000,383.333,1152.778,77.778,R
988,-0.120,1.685,-0.595,52.778,80.556,383.333,1163.889,11.111,R
989,-0.235,1.410,-0.800,50.000,77.778,383.333,1175.000,11.111,R
990,-0.455,1.490,-1.000,50.000,83.333,-1133733.333,1172.222,2.778,R
991,-0.450,1.300,-0.820,50.000,75.000,380.556,1200.000,27.778,R
992,-0.370,1.610,-0.825,47.222,72.222,380.556,1183.333,16.667,R
993,-0.430,1.335,-1.000,52.778,75.000,-1137327.778,1211.111,27.778,R
994,-0.510,1.495,-0.960,52.778,77.778,383.333,1219.444,8.333,R
995,-0.445,1.300,-0.950,50.000,75.000,383.333,1216.667,2.778,R
996,-0.435,1.590,-0.935,50.000,77.778,383.333,1180.556,36.111,R
997,-0.340,1.410,-0.840,52.778,77.778,386.111,1244.444,63.889,R
998,-0.345,1.655,-0.815,50.000,75.000,380.556,1238.889,5.556,R
999,-0.290,1.420,-0.895,52.778,77.778,122.222,1177.778,61.111,R
1000,-0.350,1.615,-0.910,52.778,83.333,386.111,1230.556,52.778,R
1001,-0.355,1.545,-0.860,52.778,80.556,386.111,1188.889,41.667,R
1002,-0.405,1.515,-0.940,47.222,75.000,380.556,1141.667,47.222,R
1003,-0.295,1.685,-0.745,47.222,72.222,375.000,1188.889,47.222,R
1004,-0.245,1.675,-0.820,52.778,88.889,141.667,1136.111,52.778,R
1005,-0.225,1.695,-0.630,52.778,77.778,383.333,1225.000,88.889,R
1006,-0.290,1.610,-0.800,47.222,75.000,380.556,1144.444,80.556,R
1007,-0.305,1.590,-0.920,47.222,69.444,152.778,1177.778,33.333,R
1008,-0.365,1.590,-0.855,50.000,77.778,380.556,1152.778,25.000,R
1009,-0.275,1.585,-0.745,52.778,77.778,383.333,1197.222,44.444,R
1010,-0.300,1.650,-0.735,47.222,72.222,380.556,1141.667,55.556,R
1011,-0.260,1.525,-0.760,47.222,72.222,380.556,1186.111,44.444,R
1012,-0.325,1.635,-0.920,55.556,83.333,111.111,1144.444,41.667,R
1013,-0.205,1.580,-0.500,50.000,77.778,383.333,1152.778,8.333,R
1014,-0.125,1.660,-0.620,47.222,75.000,380.556,1127.778,25.000,R
1015,-0.305,1.295,-0.890,50.000,72.222,383.333,1141.667,13.889,R
1016,-0.520,1.410,-0.950,47.222,69.444,380.556,1100.000,41.667,R
1017,-0.395,1.205,-0.750,55.556,83.333,386.111,1150.000,50.000,R
1018,-0.350,1.565,-0.785,44.444,72.222,377.778,1108.333,41.667,R
1019,-0.425,1.230,-1.000,50.000,77.778,-1167794.444,1150.000,41.667,R
1020,-0.645,1.390,-1.000,50.000,80.556,-1168913.889,1122.222,27.778,R
1021,-0.385,1.355,-0.850,47.222,75.000,380.556,1105.556,16.667,R
1022,-0.420,1.525,-0.900,50.000,80.556,383.333,1136.111,30.556,R
1023,-0.450,1.320,-0.955,50.000,72.222,380.556,1130.556,5.556,R
1024,-0.515,1.505,-1.000,47.222,77.778,-1173486.111,1197.222,66.667,R
1025,-0.505,1.315,-0.970,55.556,83.333,386.111,1172.222,25.000,R
1026,-0.420,1.610,-0.805,47.222,77.778,380.556,1177.778,5.556,R
1027,0.060,1.800,-0.390,47.222,72.222,377.778,1175.000,2.778,R
1028,-0.075,1.715,-0.725,55.556,80.556,113.889,1188.889,13.889,R
1029,-0.405,1.410,-0.860,50.000,80.556,383.333,1188.889,0.000,R
1030,-0.475,1.420,-0.960,52.778,80.556,386.111,1205.556,16.667,R
1031,-0.700,1.175,-1.000,50.000,80.556,-1181752.778,1161.111,44.444,R
1032,-0.440,1.455,-0.795,47.222,72.222,380.556,1188.889,27.778,R
1033,-0.340,1.500,-0.840,47.222,72.222,377.778,1205.556,16.667,R
1034,-0.440,1.435,-1.000,50.000,72.222,-1185336.111,1186.111,19.444,R
1035,-0.475,1.365,-0.930,52.778,77.778,380.556,1152.778,33.333,R
1036,-0.515,1.465,-0.975,55.556,80.556,386.111,1205.556,52.778,R
1037,-0.500,1.445,-1.000,44.444,72.222,-1188833.333,1136.111,69.444,R
1038,-0.380,1.515,-0.920,47.222,72.222,380.556,1230.556,94.444,R
1039,-0.430,1.405,-0.825,52.778,77.778,386.111,1141.667,88.889,R
1040,-0.235,1.565,-0.650,52.778,80.556,386.111,1155.556,13.889,R
1041,-0.350,1.395,-0.855,47.222,72.222,380.556,1144.444,11.111,R
1042,-0.365,1.415,-0.965,55.556,86.111,116.667,1155.556,11.111,R
1043,-0.525,1.305,-1.000,52.778,83.333,-1195783.333,1130.556,25.000,R
1044,-0.355,1.465,-0.775,47.222,72.222,380.556,1161.111,30.556,R
1045,-0.365,1.490,-0.935,52.778,80.556,383.333,1094.444,66.667,R
1046,-0.370,1.445,-0.900,47.222,75.000,377.778,1155.556,61.111,R
1047,-0.415,1.510,-0.910,55.556,86.111,386.111,1127.778,27.778,R
1048,-0.355,1.480,-0.775,50.000,77.778,383.333,1158.333,30.556,R
1049,-0.345,1.595,-0.735,50.000,77.778,383.333,1072.222,86.111,R
1050,-0.305,1.625,-0.855,47.222,75.000,380.556,1105.556,33.333,R
1051,-0.280,1.685,-0.730,50.000,80.556,380.556,1133.333,27.778,R
1052,-0.295,1.590,-0.805,55.556,86.111,388.889,1177.778,44.444,R
1053,-0.390,1.560,-0.840,44.444,66.667,372.222,1133.333,44.444,R
1054,-0.450,1.450,-0.935,52.778,80.556,386.111,1163.889,30.556,R
1055,-0.400,1.540,-0.970,52.778,80.556,163.889,1144.444,19.444,R
1056,-0.300,1.575,-0.820,47.222,75.000,380.556,1175.000,30.556,R
1057,-0.320,1.615,-0.775,50.000,75.000,383.333,1175.000,0.000,R
1058,-0.265,1.575,-0.865,55.556,80.556,386.111,1169.444,5.556,R
1059,-0.375,1.530,-0.850,47.222,77.778,383.333,1141.667,27.778,R
1060,-0.350,1.510,-0.825,50.000,77.778,383.333,1202.778,61.111,R
1061,-0.325,1.545,-0.830,50.000,75.000,380.556,1116.667,86.111,R
1062,-0.325,1.480,-0.870,52.778,80.556,386.111,1188.889,72.222,R
1063,-0.365,1.575,-0.820,47.222,77.778,377.778,1125.000,63.889,R
1064,-0.355,1.275,-0.735,52.778,77.778,380.556,711.111,413.889,A
1065,-0.465,1.540,-1.000,50.000,75.000,-1220738.889,1316.667,605.556,R
1066,-0.505,1.285,-1.000,47.222,66.667,-1221947.222,1205.556,111.111,R
1067,-0.415,1.510,-0.905,50.000,77.778,383.333,1225.000,19.444,R
1068,-0.345,1.260,-0.810,52.778,77.778,383.333,1163.889,61.111,R
1069,-0.390,1.510,-0.855,47.222,77.778,383.333,1166.667,2.778,R
1070,-0.355,1.330,-0.890,44.444,72.222,377.778,1163.889,2.778,R
1071,-0.410,1.545,-0.965,52.778,77.778,383.333,1180.556,16.667,R
1072,-0.390,1.390,-0.725,50.000,77.778,380.556,1152.778,27.778,R
1073,-0.005,1.790,-0.295,47.222,75.000,380.556,1147.222,5.556,R
1074,0.065,1.615,-0.505,52.778,75.000,125.000,1125.000,22.222,R
1075,-0.285,1.480,-0.835,50.000,77.778,383.333,1183.333,58.333,R
1076,-0.535,1.175,-1.000,52.778,86.111,-1233602.778,1155.556,27.778,R
1077,-0.530,1.375,-0.890,47.222,72.222,377.778,1211.111,55.556,R
1078,-0.465,1.325,-0.800,50.000,72.222,380.556,1127.778,83.333,R
1079,-0.135,1.650,-0.655,55.556,86.111,386.111,1177.778,50.000,R
1080,-0.225,1.420,-0.765,47.222,75.000,380.556,1150.000,27.778,R
1081,-0.455,1.390,-0.960,47.222,72.222,380.556,1194.444,44.444,R
1082,-0.540,1.320,-1.000,47.222,72.222,-1240575.000,1105.556,88.889,R
1083,-0.510,1.405,-0.930,47.222,75.000,380.556,1172.222,66.667,R
1084,-0.485,1.465,-0.945,47.222,77.778,380.556,1166.667,5.556,R
1085,-0.410,1.245,-0.900,52.778,72.222,383.333,1175.000,8.333,R
1086,-0.455,1.550,-0.980,52.778,80.556,383.333,1180.556,5.556,R
1087,-0.380,1.350,-0.740,52.778,83.333,386.111,1158.333,22.222,R
1088,-0.045,1.850,-0.525,50.000,77.778,383.333,1111.111,47.222,R
1089,-0.080,1.570,-0.600,50.000,77.778,383.333,1197.222,86.111,R
1090,-0.465,1.445,-1.000,47.222,77.778,-1249847.222,1111.111,86.111,R
1091,-0.500,1.205,-0.980,52.778,75.000,383.333,1183.333,72.222,R
1092,-0.420,1.645,-0.805,52.778,80.556,383.333,1119.444,63.889,R
1093,-0.330,1.440,-0.900,50.000,75.000,383.333,1122.222,2.778,R
1094,-0.425,1.660,-0.905,50.000,80.556,383.333,1138.889,16.667,R
1095,-0.415,1.360,-1.000,50.000,83.333,-1255530.556,1122.222,16.667,R
1096,-0.425,1.705,-0.825,55.556,77.778,386.111,1155.556,33.333,R
1097,-0.280,1.495,-0.715,47.222,69.444,380.556,1105.556,50.000,R
1098,-0.295,1.820,-0.775,52.778,75.000,383.333,1147.222,41.667,R
1099,-0.300,1.560,-0.815,50.000,77.778,380.556,1147.222,0.000,R
1100,-0.430,1.640,-0.960,52.778,83.333,386.111,1166.667,19.444,R
1101,-0.445,1.440,-0.785,47.222,72.222,380.556,1141.667,25.000,R
1102,-0.110,1.840,-0.525,50.000,77.778,383.333,1141.667,0.000,R
1103,-0.115,1.635,-0.740,50.000,75.000,113.889,1130.556,11.111,R
1104,-0.245,1.760,-0.690,50.000,72.222,383.333,1169.444,38.889,R
1105,-0.350,1.585,-0.825,50.000,75.000,380.556,1155.556,13.889,R
1106,-0.385,1.675,-0.970,44.444,77.778,380.556,1166.667,11.111,R
1107,-0.450,1.525,-0.855,50.000,72.222,383.333,1155.556,11.111,R
1108,-0.170,1.835,-0.600,52.778,75.000,383.333,1200.000,44.444,R
1109,-0.215,1.690,-0.800,50.000,77.778,105.556,1144.444,55.556,R
1110,-0.315,1.665,-0.775,50.000,77.778,383.333,1205.556,61.111,R
1111,-0.270,1.595,-0.705,52.778,75.000,383.333,1138.889,66.667,R
1112,-0.270,1.740,-0.730,50.000,77.778,383.333,1158.333,19.444,R
1113,-0.215,1.565,-0.695,50.000,77.778,383.333,1141.667,16.667,R
1114,-0.240,1.700,-0.745,50.000,77.778,383.333,1177.778,36.111,R
1115,-0.270,1.475,-0.745,52.778,77.778,383.333,1197.222,19.444,R
1116,-0.435,1.490,-0.920,50.000,72.222,380.556,1205.556,8.333,R
1117,-0.425,1.400,-0.985,52.778,77.778,383.333,1175.000,30.556,R
1118,-0.375,1.550,-0.780,52.778,80.556,383.333,1197.222,22.222,R
1119,-0.345,1.590,-0.830,47.222,75.000,380.556,1177.778,19.444,R
1120,-0.325,1.605,-0.850,47.222,75.000,380.556,1188.889,11.111,R
1121,-0.200,1.675,-0.660,47.222,72.222,380.556,1152.778,36.111,R
1122,-0.270,1.470,-0.760,52.778,77.778,380.556,1188.889,36.111,R
1123,-0.390,1.560,-0.930,44.444,75.000,380.556,1111.111,77.778,R
1124,-0.410,1.265,-0.960,50.000,77.778,133.333,1197.222,86.111,R
1125,-0.465,1.510,-0.930,52.778,80.556,386.111,1155.556,41.667,R
1126,-0.480,1.265,-0.990,52.778,80.556,383.333,1177.778,22.222,R
1127,-0.445,1.565,-0.875,47.222,77.778,380.556,1186.111,8.333,R
1128,-0.150,1.440,-0.705,55.556,83.333,147.222,1205.556,19.444,R
1129,-0.170,1.650,-0.610,44.444,72.222,380.556,1188.889,16.667,R
1130,-0.425,1.225,-0.930,52.778,72.222,383.333,1166.667,22.222,R
1131,-0.535,1.450,-1.000,52.778,80.556,-1297486.111,1136.111,30.556,R
1132,-0.395,1.320,-0.870,47.222,72.222,380.556,1183.333,47.222,R
1133,-0.430,1.605,-0.870,50.000,77.778,383.333,1200.000,16.667,R
1134,-0.355,1.410,-0.835,47.222,75.000,383.333,1138.889,61.111,R
1135,-0.325,1.645,-0.720,50.000,80.556,380.556,1158.333,19.444,R
1136,-0.210,1.505,-0.830,52.778,88.889,116.667,1166.667,8.333,R
1137,-0.335,1.660,-0.790,47.222,75.000,380.556,1150.000,16.667,R
1138,-0.390,1.355,-0.870,47.222,75.000,380.556,1136.111,13.889,R
1139,-0.465,1.575,-0.995,47.222,75.000,380.556,1150.000,13.889,R
1140,-0.400,1.335,-0.850,52.778,77.778,383.333,1136.111,13.889,R
1141,-0.395,1.615,-0.825,52.778,80.556,386.111,1152.778,16.667,R
1142,-0.195,1.530,-0.505,47.222,69.444,377.778,1136.111,16.667,R
1143,-0.090,1.845,-0.540,47.222,77.778,380.556,1152.778,16.667,R
1144,-0.030,1.550,-0.590,50.000,80.556,141.667,1127.778,25.000,R
1145,-0.350,1.430,-0.915,50.000,77.778,383.333,1122.222,5.556,R
1146,-0.545,1.250,-1.000,52.778,77.778,-1314716.667,1116.667,5.556,R
1147,-0.490,1.470,-0.725,50.000,75.000,383.333,1097.222,19.444,R
1148,-0.360,1.410,-0.695,47.222,69.444,380.556,1094.444,2.778,R
1149,-0.190,1.560,-0.440,44.444,72.222,380.556,1016.667,77.778,R
1150,-0.200,1.700,-0.455,50.000,77.778,383.333,1000.000,16.667,R
1151,-0.305,1.380,-0.720,50.000,86.111,386.111,966.667,33.333,R
1152,-0.435,1.380,-0.615,47.222,80.556,383.333,1008.333,41.667,R
1153,-0.405,1.425,-0.840,52.778,86.111,386.111,1036.111,27.778,R
1154,-0.610,1.285,-0.825,52.778,88.889,386.111,1005.556,30.556,R
1155,-0.485,1.170,-0.840,52.778,83.333,386.111,1011.111,5.556,R
1156,-0.715,1.215,-1.000,50.000,83.333,-1324980.556,1030.556,19.444,R
1157,-0.820,1.040,-0.990,50.000,75.000,380.556,1038.889,8.333,R
1158,-0.635,1.140,-1.000,44.444,72.222,-1327086.111,1058.333,19.444,R
1159,-0.925,1.305,-0.950,58.333,105.556,405.556,1063.889,5.556,R
1160,-0.470,1.295,-0.765,50.000,80.556,383.333,1044.444,19.444,R
1161,-0.470,1.485,-0.775,47.222,75.000,383.333,1111.111,66.667,R
1162,-0.615,1.320,-0.860,47.222,77.778,383.333,1075.000,36.111,R
1163,-0.780,1.305,-0.835,58.333,100.000,405.556,1066.667,8.333,R
1164,-0.660,1.340,-0.890,47.222,77.778,383.333,1077.778,11.111,R
1165,-0.475,1.315,-0.810,47.222,77.778,380.556,1088.889,11.111,R
1166,-0.410,1.570,-0.685,50.000,80.556,383.333,1080.556,8.333,R
1167,-0.335,1.480,-0.580,50.000,77.778,383.333,1116.667,36.111,R
1168,-0.585,1.590,-0.680,58.333,100.000,405.556,1108.333,8.333,R
1169,-0.275,1.515,-0.590,52.778,75.000,383.333,1155.556,47.222,R
1170,-0.315,1.545,-0.665,52.778,86.111,388.889,1172.222,16.667,R
1171,-0.705,1.365,-0.790,58.333,102.778,402.778,1122.222,50.000,R
1172,-0.710,1.410,-0.840,122.222,97.222,405.556,1202.778,80.556,R
1173,-0.580,1.390,-0.895,52.778,83.333,386.111,1122.222,80.556,R
1174,-0.385,1.615,-0.620,47.222,80.556,380.556,1155.556,33.333,R
1175,-0.500,1.625,-0.505,58.333,100.000,405.556,1080.556,75.000,R
1176,-0.215,1.610,-0.645,47.222,72.222,380.556,1097.222,16.667,R
1177,-0.320,1.520,-0.630,50.000,80.556,383.333,1072.222,25.000,R
1178,-0.405,1.465,-0.885,55.556,86.111,386.111,1083.333,11.111,R
1179,-0.575,1.355,-0.840,47.222,77.778,383.333,1083.333,0.000,R
1180,-0.485,1.280,-0.895,50.000,75.000,383.333,1097.222,13.889,R
1181,-0.725,1.330,-0.990,50.000,86.111,386.111,1052.778,44.444,R
1182,-0.685,1.450,-0.630,58.333,97.222,402.778,1108.333,55.556,R
1183,-0.300,1.720,-0.725,47.222,83.333,383.333,1058.333,50.000,R
1184,-0.230,1.640,-0.590,50.000,83.333,386.111,1091.667,33.333,R
1185,-0.235,1.730,-0.530,47.222,75.000,380.556,1113.889,22.222,R
1186,-0.200,1.680,-0.560,47.222,80.556,380.556,1052.778,61.111,R
1187,-0.195,1.730,-0.585,50.000,75.000,383.333,1138.889,86.111,R
1188,-0.360,1.590,-0.805,47.222,77.778,383.333,1066.667,72.222,R
1189,-0.335,1.595,-0.715,52.778,80.556,386.111,1155.556,88.889,R
1190,-0.600,1.585,-0.695,58.333,102.778,405.556,1066.667,88.889,R
1191,-0.215,1.555,-0.640,52.778,83.333,386.111,1113.889,47.222,R
1192,-0.400,1.615,-0.660,47.222,75.000,380.556,1111.111,2.778,R
1193,-0.275,1.490,-0.790,50.000,80.556,383.333,1077.778,33.333,R
1194,-0.405,1.550,-0.785,50.000,86.111,386.111,1105.556,27.778,R
1195,-0.420,1.400,-0.810,50.000,75.000,383.333,1088.889,16.667,R
1196,-0.750,1.475,-0.895,58.333,102.778,400.000,1075.000,13.889,R
1197,-0.565,1.325,-0.900,47.222,77.778,383.333,1075.000,0.000,R
1198,-0.575,1.375,-0.950,50.000,72.222,383.333,1069.444,5.556,R
1199,-0.505,1.470,-0.790,47.222,80.556,383.333,1097.222,27.778,R
1200,-0.280,1.515,-0.700,52.778,77.778,386.111,1113.889,16.667,R
1201,-0.590,1.600,-0.650,58.333,100.000,405.556,1091.667,22.222,R
1202,-0.295,1.450,-0.645,50.000,77.778,383.333,1138.889,47.222,R
1203,-0.730,1.495,-0.910,122.222,97.222,405.556,1094.444,44.444,R
1204,-0.540,1.345,-0.890,50.000,77.778,383.333,1105.556,11.111,R
1205,-0.580,1.430,-0.960,50.000,86.111,386.111,1144.444,38.889,R
1206,-0.565,1.425,-0.795,47.222,80.556,380.556,1100.000,44.444,R
1207,-0.395,1.485,-0.690,50.000,77.778,383.333,1158.333,58.333,R
1208,-0.410,1.480,-0.810,47.222,80.556,383.333,1061.111,97.222,R
1209,-0.385,1.570,-0.785,47.222,75.000,380.556,1122.222,61.111,R
1210,-0.455,1.450,-0.820,50.000,83.333,383.333,1055.556,66.667,R
1211,-0.450,1.325,-0.835,50.000,77.778,383.333,1091.667,36.111,R
1212,-0.555,1.435,-0.875,50.000,83.333,380.556,1094.444,2.778,R
1213,-0.880,1.235,-0.950,58.333,100.000,405.556,1080.556,13.889,R
1214,-0.880,1.385,-0.930,58.333,100.000,405.556,1097.222,16.667,R
1215,-0.545,1.300,-0.930,47.222,75.000,380.556,1072.222,25.000,R
1216,-0.575,1.420,-0.845,47.222,80.556,377.778,1083.333,11.111,R
1217,-0.435,1.380,-0.875,52.778,83.333,386.111,1069.444,13.889,R
1218,-0.575,1.380,-0.845,47.222,77.778,383.333,1066.667,2.778,R
1219,-0.510,1.285,-0.765,44.444,72.222,366.667,1063.889,2.778,R
1220,-0.805,1.375,-0.835,158.333,94.444,402.778,1058.333,5.556,R
1221,-0.540,1.215,-0.855,50.000,77.778,383.333,1036.111,22.222,R
1222,-0.705,1.305,-1.000,50.000,86.111,-1397113.889,1038.889,2.778,R
1223,-0.525,1.245,-0.790,47.222,77.778,380.556,1041.667,2.778,R
1224,-0.500,1.430,-0.805,52.778,86.111,386.111,1044.444,2.778,R
1225,-0.440,1.295,-0.725,50.000,75.000,383.333,1066.667,22.222,R
1226,-0.765,1.430,-0.830,127.778,100.000,405.556,1052.778,13.889,R
1227,-0.550,1.240,-0.905,50.000,83.333,383.333,1058.333,5.556,R
1228,-0.655,1.360,-0.905,47.222,80.556,380.556,1105.556,47.222,R
1229,-0.970,-0.730,-0.175,50.000,88.889,350.000,783.333,322.222,V
1230,-0.640,1.340,-0.930,50.000,83.333,386.111,1377.778,594.444,R
1231,-0.500,1.270,-0.775,50.000,86.111,383.333,1036.111,341.667,R
1232,-0.910,-0.620,0.020,63.889,113.889,383.333,644.444,391.667,V
1233,-0.510,1.435,-0.760,50.000,77.778,383.333,1433.333,788.889,R
1234,-0.555,1.445,-0.945,47.222,75.000,383.333,1041.667,391.667,R
1235,-0.770,-2.625,-0.090,88.889,2.778,241.667,825.000,216.667,V
1236,-0.555,1.455,-0.915,52.778,86.111,377.778,1363.889,538.889,R
1237,-0.420,1.320,-0.770,50.000,77.778,383.333,1025.000,338.889,R
1238,-0.845,-0.565,-0.240,66.667,88.889,400.000,958.333,66.667,V
1239,-0.725,1.445,-0.710,58.333,97.222,405.556,1177.778,219.444,R
1240,-0.365,1.545,-0.700,47.222,75.000,383.333,1088.889,88.889,R
1241,-0.370,1.490,-0.720,50.000,80.556,383.333,1027.778,61.111,R
1242,-0.390,1.550,-0.735,50.000,77.778,375.000,1058.333,30.556,R
1243,-0.580,1.400,-0.915,50.000,83.333,386.111,1041.667,16.667,R
1244,-0.800,1.535,-0.790,127.778,102.778,394.444,1069.444,27.778,R
1245,-0.385,1.545,-0.650,47.222,77.778,380.556,1061.111,8.333,R
1246,-0.630,1.540,-0.755,58.333,100.000,402.778,1069.444,8.333,R
1247,-0.405,1.500,-0.685,50.000,80.556,386.111,1061.111,8.333,R
1248,-0.395,1.520,-0.830,50.000,86.111,386.111,1094.444,33.333,R
1249,-0.420,1.435,-0.755,50.000,80.556,383.333,1063.889,30.556,R
1250,-0.480,1.440,-0.775,52.778,80.556,386.111,1102.778,38.889,R
1251,-0.720,1.440,-0.710,58.333,100.000,405.556,1058.333,44.444,R
1252,-0.670,1.560,-0.720,119.444,100.000,402.778,1044.444,13.889,R
1253,-0.705,1.480,-0.765,58.333,102.778,405.556,1022.222,22.222,R
1254,-0.475,1.465,-0.870,47.222,77.778,380.556,1075.000,52.778,R
1255,-0.585,1.455,-0.845,50.000,86.111,383.333,1047.222,27.778,R
1256,-0.320,1.555,-0.585,47.222,72.222,383.333,1091.667,44.444,R
1257,-0.565,1.605,-0.540,119.444,100.000,405.556,1025.000,66.667,R
1258,-0.540,1.565,-0.755,58.333,105.556,405.556,1058.333,33.333,R
1259,-0.360,1.520,-0.560,50.000,83.333,380.556,1066.667,8.333,R
1260,-0.235,1.660,-0.650,52.778,83.333,383.333,1063.889,2.778,R
1261,-0.275,1.540,-0.600,50.000,77.778,383.333,1063.889,0.000,R
1262,-0.345,1.525,-0.710,47.222,75.000,383.333,1055.556,8.333,R
1263,-0.695,1.460,-0.700,163.889,102.778,405.556,1016.667,38.889,R
1264,-0.395,1.495,-0.720,47.222,77.778,377.778,1066.667,50.000,R
1265,-0.675,1.400,-0.780,58.333,102.778,405.556,997.222,69.444,R
1266,-0.420,1.490,-0.785,50.000,80.556,380.556,1072.222,75.000,R
1267,-0.505,1.360,-0.870,50.000,83.333,383.333,1011.111,61.111,R
1268,-0.520,1.380,-0.850,52.778,75.000,386.111,1066.667,55.556,R
1269,-0.615,1.380,-0.870,47.222,86.111,386.111,1061.111,5.556,R
1270,-0.425,1.395,-0.810,47.222,75.000,380.556,1072.222,11.111,R
1271,-0.560,1.460,-0.810,47.222,80.556,383.333,1088.889,16.667,R
1272,-0.420,1.375,-0.800,47.222,72.222,380.556,1058.333,30.556,R
1273,-0.570,1.445,-0.815,47.222,75.000,383.333,1063.889,5.556,R
1274,-0.435,1.365,-0.845,50.000,80.556,383.333,1038.889,25.000,R
1275,-0.515,1.455,-0.810,47.222,77.778,383.333,1061.111,22.222,R
1276,-0.500,1.310,-0.855,47.222,86.111,383.333,1069.444,8.333,R
1277,-0.840,1.380,-0.885,58.333,97.222,405.556,1066.667,2.778,R
1278,-0.715,1.430,-0.745,58.333,100.000,400.000,1050.000,16.667,R
1279,-0.480,1.495,-0.815,52.778,88.889,386.111,1061.111,11.111,R
1280,-0.340,1.490,-0.710,50.000,80.556,383.333,1077.778,16.667,R
1281,-0.545,1.480,-0.960,52.778,91.667,386.111,1091.667,13.889,R
1282,-0.490,1.390,-0.755,50.000,83.333,383.333,1083.333,8.333,R
1283,-0.525,1.520,-0.845,50.000,80.556,369.444,1063.889,19.444,R
1284,-0.425,1.415,-0.765,50.000,80.556,383.333,1041.667,22.222,R
1285,-0.675,1.585,-0.690,58.333,97.222,405.556,1072.222,30.556,R
1286,-0.530,1.570,-0.690,58.333,100.000,402.778,1019.444,52.778,R
1287,-0.655,1.595,-0.750,58.333,108.333,405.556,1058.333,38.889,R
1288,-0.320,1.460,-0.720,47.222,77.778,383.333,1019.444,38.889,R
1289,-0.680,1.490,-0.795,58.333,102.778,400.000,1047.222,27.778,R
1290,-0.415,1.400,-0.780,52.778,83.333,386.111,1086.111,38.889,R
1291,-0.500,1.500,-0.800,47.222,77.778,383.333,1063.889,22.222,R
1292,-0.425,1.455,-0.790,47.222,75.000,380.556,1086.111,22.222,R
1293,-0.790,1.475,-0.785,113.889,100.000,405.556,1058.333,27.778,R
1294,-0.345,1.450,-0.665,50.000,77.778,383.333,1063.889,5.556,R
1295,-0.495,1.610,-0.850,50.000,86.111,380.556,1080.556,16.667,R
1296,-0.610,1.535,-0.650,58.333,100.000,405.556,1066.667,13.889,R
1297,-0.375,1.630,-0.685,50.000,86.111,377.778,1077.778,11.111,R
1298,-0.605,1.525,-0.665,58.333,100.000,405.556,1044.444,33.333,R
1299,-0.435,1.565,-0.785,47.222,77.778,380.556,1033.333,11.111,R
1300,-0.315,1.550,-0.685,50.000,72.222,383.333,1038.889,5.556,R
1301,-0.730,1.575,-0.830,133.333,102.778,405.556,1080.556,41.667,R
1302,-0.435,1.475,-0.840,55.556,86.111,388.889,1072.222,8.333,R
1303,-0.475,1.615,-0.750,50.000,86.111,377.778,1097.222,25.000,R
1304,-0.450,1.475,-0.785,47.222,72.222,383.333,1061.111,36.111,R
1305,-0.795,1.530,-0.870,127.778,108.333,402.778,1036.111,25.000,R
1306,-0.570,1.585,-0.570,58.333,100.000,405.556,1069.444,33.333,R
1307,-0.350,1.680,-0.745,52.778,88.889,386.111,1066.667,2.778,R
1308,-0.395,1.455,-0.795,50.000,77.778,383.333,1080.556,13.889,R
1309,-0.780,1.400,-0.885,58.333,108.333,400.000,1055.556,25.000,R
1310,-0.840,1.410,-0.870,58.333,100.000,402.778,1000.000,55.556,R
1311,-0.610,1.455,-0.895,47.222,77.778,380.556,1058.333,58.333,R
1312,-0.785,1.540,-0.710,58.333,100.000,405.556,994.444,63.889,R
1313,-0.405,1.620,-0.820,47.222,83.333,383.333,1075.000,80.556,R
1314,-0.505,1.460,-0.940,50.000,83.333,386.111,1011.111,63.889,R
1315,-0.585,1.485,-0.890,47.222,80.556,383.333,1044.444,33.333,R
1316,-0.535,1.470,-0.805,52.778,86.111,383.333,1019.444,25.000,R
1317,-0.520,1.575,-0.785,47.222,80.556,377.778,1033.333,13.889,R
1318,-0.705,1.485,-0.720,58.333,97.222,405.556,1050.000,16.667,R
1319,-0.700,1.665,-0.720,58.333,94.444,391.667,1027.778,22.222,R
1320,-0.430,1.685,-0.695,47.222,77.778,377.778,975.000,52.778,R
1321,-0.325,1.675,-0.555,50.000,88.889,386.111,977.778,2.778,R
1322,-0.115,1.620,-0.400,50.000,88.889,383.333,1038.889,61.111,R
1323,-0.065,1.495,-0.370,55.556,83.333,386.111,1030.556,8.333,R
1324,-0.095,1.485,-0.450,50.000,77.778,383.333,1013.889,16.667,R
1325,-0.305,1.550,-0.580,52.778,86.111,388.889,977.778,36.111,R
1326,-0.330,1.335,-0.780,47.222,83.333,383.333,991.667,13.889,R
1327,-0.635,1.225,-0.915,52.778,86.111,386.111,1030.556,38.889,R
1328,-0.565,1.000,-0.640,133.333,100.000,400.000,977.778,52.778,R
1329,-0.720,0.585,-1.000,66.667,97.222,-1509555.556,863.889,113.889,R
1330,-0.800,1.105,-0.830,122.222,108.333,391.667,1013.889,150.000,R
1331,-0.575,1.175,-0.735,47.222,83.333,372.222,975.000,38.889,R
1332,-0.490,1.165,-0.785,47.222,91.667,380.556,988.889,13.889,R
1333,-0.625,1.120,-0.475,163.889,105.556,397.222,1036.111,47.222,R
1334,-0.240,1.235,-0.630,50.000,88.889,386.111,1005.556,30.556,R
1335,-0.460,1.110,-0.625,47.222,86.111,372.222,997.222,8.333,R
1336,-0.660,1.000,-0.740,52.778,86.111,372.222,952.778,44.444,R
1337,-0.505,1.060,-0.705,50.000,94.444,386.111,975.000,22.222,R
1338,-0.390,1.170,-0.670,50.000,86.111,386.111,1000.000,25.000,R
1339,-0.510,1.240,-0.730,47.222,86.111,372.222,991.667,8.333,R
1340,-0.685,1.140,-0.630,58.333,105.556,405.556,1011.111,19.444,R
1341,-0.335,1.355,-0.610,44.444,80.556,377.778,1052.778,41.667,R
1342,-0.515,1.155,-0.725,50.000,86.111,386.111,1058.333,5.556,R
1343,-0.455,1.165,-0.815,50.000,83.333,383.333,1066.667,8.333,R
1344,-0.515,1.215,-0.720,47.222,83.333,383.333,1122.222,55.556,R
1345,-0.415,1.245,-0.685,50.000,86.111,383.333,1116.667,5.556,R
1346,-0.715,1.205,-0.775,169.444,102.778,394.444,1113.889,2.778,R
1347,-0.505,1.145,-0.705,47.222,83.333,383.333,1077.778,36.111,R
1348,-0.455,1.240,-0.845,47.222,88.889,383.333,1108.333,30.556,R
1349,-0.425,1.220,-0.680,47.222,83.333,383.333,1122.222,13.889,R
1350,-0.465,1.225,-0.790,55.556,91.667,388.889,1166.667,44.444,R
1351,-0.745,1.140,-0.815,172.222,100.000,394.444,1130.556,36.111,R
1352,-0.595,1.180,-0.910,50.000,86.111,375.000,1125.000,5.556,R
1353,-0.615,1.090,-0.910,47.222,80.556,383.333,1113.889,11.111,R
1354,-0.440,1.250,-0.775,50.000,86.111,380.556,1144.444,30.556,R
1355,-0.680,1.220,-0.725,58.333,105.556,402.778,1119.444,25.000,R
1356,-0.620,1.355,-0.680,58.333,97.222,405.556,1105.556,13.889,R
1357,-0.595,1.250,-0.645,58.333,100.000,405.556,1069.444,36.111,R
1358,-0.230,1.450,-0.730,47.222,83.333,383.333,1097.222,27.778,R
1359,-0.520,1.285,-0.765,50.000,88.889,380.556,1088.889,8.333,R
1360,-0.365,1.305,-0.765,47.222,83.333,380.556,1111.111,22.222,R
1361,-0.500,1.280,-0.825,47.222,83.333,369.444,1127.778,16.667,R
1362,-0.565,1.165,-0.845,50.000,80.556,377.778,1061.111,66.667,R
1363,-0.450,1.315,-0.805,50.000,86.111,383.333,1094.444,33.333,R
1364,-0.450,1.275,-0.720,47.222,83.333,383.333,1069.444,25.000,R
1365,-0.385,1.315,-0.805,55.556,86.111,388.889,1102.778,33.333,R
1366,-0.715,1.290,-0.725,175.000,105.556,405.556,1086.111,16.667,R
1367,-0.415,1.280,-0.755,47.222,77.778,380.556,1047.222,38.889,R
1368,-0.535,1.305,-0.840,50.000,86.111,386.111,1077.778,30.556,R
1369,-0.495,1.225,-0.775,50.000,80.556,380.556,1036.111,41.667,R
1370,-0.405,1.385,-0.835,50.000,86.111,383.333,1052.778,16.667,R
1371,-0.620,1.300,-0.725,58.333,111.111,397.222,1072.222,19.444,R
1372,-0.315,1.345,-0.695,50.000,91.667,383.333,1063.889,8.333,R
1373,-0.545,1.195,-0.800,50.000,86.111,386.111,1052.778,11.111,R
1374,-0.435,1.265,-0.730,47.222,72.222,380.556,1077.778,25.000,R
1375,-0.485,1.275,-0.805,47.222,77.778,383.333,1027.778,50.000,R
1376,-0.425,1.235,-0.780,47.222,91.667,383.333,1072.222,44.444,R
1377,-0.570,1.180,-0.890,52.778,86.111,380.556,1088.889,16.667,R
1378,-0.505,1.150,-0.800,47.222,75.000,380.556,1066.667,22.222,R
1379,-0.735,1.220,-0.825,130.556,105.556,394.444,1097.222,30.556,R
1380,-0.515,1.130,-0.890,47.222,80.556,383.333,1044.444,52.778,R
1381,-0.615,1.135,-0.905,47.222,83.333,383.333,1097.222,52.778,R
1382,-0.485,1.200,-0.840,47.222,77.778,383.333,1058.333,38.889,R
1383,-0.820,1.155,-0.970,169.444,108.333,405.556,1069.444,11.111,R
1384,-0.645,1.090,-0.915,52.778,86.111,388.889,1100.000,30.556,R
1385,-0.605,1.135,-0.915,50.000,75.000,383.333,1058.333,41.667,R
1386,-0.745,-2.465,-0.100,91.667,5.556,241.667,766.667,291.667,V
1387,-0.650,1.210,-0.925,52.778,88.889,380.556,1405.556,638.889,R
1388,-0.470,1.285,-0.725,44.444,75.000,377.778,1100.000,305.556,R
1389,-0.495,1.260,-0.710,50.000,88.889,386.111,1127.778,27.778,R
1390,-0.330,1.325,-0.590,50.000,77.778,383.333,1061.111,66.667,R
1391,-0.600,1.315,-0.735,122.222,100.000,405.556,1102.778,41.667,R
1392,-0.450,1.260,-0.855,47.222,83.333,383.333,1038.889,63.889,R
1393,-0.550,1.250,-0.800,50.000,86.111,377.778,1080.556,41.667,R
1394,-0.475,1.250,-0.770,55.556,86.111,388.889,1063.889,16.667,R
1395,-0.615,1.375,-0.730,58.333,102.778,405.556,1072.222,8.333,R
1396,-0.375,1.330,-0.710,50.000,86.111,383.333,1080.556,8.333,R
1397,-0.560,1.305,-0.790,47.222,80.556,383.333,1066.667,13.889,R
1398,-0.250,1.425,-0.770,50.000,77.778,383.333,1058.333,8.333,R
1399,-0.425,1.320,-0.950,50.000,86.111,375.000,1025.000,33.333,R
1400,-0.345,1.325,-0.740,50.000,75.000,361.111,1011.111,13.889,R
1401,-0.270,1.470,-0.550,50.000,88.889,377.778,980.556,30.556,R
1402,-0.205,1.525,-0.595,50.000,80.556,369.444,1013.889,33.333,R
1403,-0.375,1.375,-0.765,47.222,86.111,372.222,980.556,33.333,R
1404,-0.505,1.240,-0.960,50.000,83.333,377.778,1011.111,30.556,R
1405,-0.825,1.270,-0.880,58.333,102.778,397.222,1102.778,91.667,R
1406,-0.415,1.285,-1.000,52.778,86.111,-1591686.111,1105.556,2.778,R
1407,-0.680,1.330,-0.820,58.333,102.778,405.556,1138.889,33.333,R
1408,-0.785,1.325,-0.880,58.333,102.778,405.556,1075.000,63.889,R
1409,-0.635,1.285,-0.910,50.000,83.333,383.333,1050.000,25.000,R
1410,-0.630,1.420,-0.720,58.333,100.000,402.778,1102.778,52.778,R
1411,-0.385,1.430,-0.795,47.222,77.778,383.333,1030.556,72.222,R
1412,-0.255,1.505,-0.660,50.000,77.778,383.333,1088.889,58.333,R
1413,-0.530,1.470,-0.610,58.333,102.778,405.556,997.222,91.667,R
1414,-0.185,1.360,-0.660,47.222,77.778,383.333,1038.889,41.667,R
1415,-0.495,1.390,-0.825,50.000,86.111,377.778,1041.667,2.778,R
1416,-0.395,1.290,-0.675,44.444,77.778,380.556,988.889,52.778,R
1417,-0.230,1.500,-0.585,44.444,75.000,380.556,1030.556,41.667,R
1418,-0.565,1.520,-0.685,125.000,100.000,402.778,983.333,47.222,R
1419,-0.810,1.155,-0.950,172.222,100.000,405.556,1016.667,33.333,R
1420,-0.550,1.195,-1.000,50.000,83.333,-1606333.333,1063.889,47.222,R
1421,-0.825,1.275,-0.865,58.333,102.778,405.556,1061.111,2.778,R
1422,-0.385,1.185,-0.785,52.778,80.556,386.111,1069.444,8.333,R
1423,-0.420,1.425,-0.760,47.222,80.556,375.000,1022.222,47.222,R
1424,-0.460,1.230,-0.765,44.444,75.000,377.778,994.444,27.778,R
1425,-0.370,1.305,-0.765,47.222,75.000,377.778,1050.000,55.556,R
1426,-0.410,1.395,-0.740,47.222,75.000,366.667,1038.889,11.111,R
1427,-0.285,1.300,-0.780,47.222,75.000,380.556,1013.889,25.000,R
1428,-0.350,1.425,-0.785,47.222,83.333,383.333,1080.556,66.667,R
1429,-0.365,1.295,-0.795,50.000,80.556,380.556,1025.000,55.556,R
1430,-0.445,1.400,-0.845,50.000,80.556,380.556,1072.222,47.222,R
1431,-0.535,1.180,-0.905,50.000,80.556,383.333,1047.222,25.000,R
1432,-0.720,1.355,-0.795,58.333,97.222,405.556,1075.000,27.778,R
1433,-0.365,1.425,-0.645,47.222,80.556,383.333,1080.556,5.556,R
1434,-0.270,1.540,-0.675,47.222,75.000,383.333,1061.111,19.444,R
1435,-0.425,1.375,-0.795,47.222,77.778,383.333,1019.444,41.667,R
1436,-0.335,1.435,-0.770,50.000,80.556,383.333,1030.556,11.111,R
1437,-0.705,1.370,-0.765,58.333,102.778,397.222,994.444,36.111,R
1438,-0.330,1.410,-0.665,50.000,86.111,383.333,1019.444,25.000,R
1439,-0.375,1.325,-0.705,52.778,80.556,363.889,1033.333,13.889,R
1440,-0.490,1.330,-0.800,47.222,77.778,363.889,988.889,44.444,R
1441,-0.380,1.275,-0.735,47.222,83.333,383.333,980.556,8.333,R
1442,-0.615,1.330,-0.620,58.333,102.778,391.667,1047.222,66.667,R
1443,-0.305,1.340,-0.590,50.000,80.556,386.111,1008.333,38.889,R
1444,-0.410,1.310,-0.665,50.000,91.667,383.333,1047.222,38.889,R
1445,-0.375,1.235,-0.845,55.556,86.111,383.333,1008.333,38.889,R
1446,-0.755,1.060,-0.980,44.444,88.889,383.333,986.111,22.222,R
1447,-0.695,1.070,-0.960,50.000,88.889,386.111,1005.556,19.444,R
1448,-0.840,1.120,-0.840,161.111,105.556,405.556,994.444,11.111,R
1449,-0.495,1.255,-0.805,52.778,86.111,386.111,1036.111,41.667,R
1450,-0.505,1.220,-0.700,47.222,86.111,377.778,1016.667,19.444,R
1451,-0.480,1.290,-0.830,47.222,80.556,380.556,1066.667,50.000,R
1452,-0.745,1.185,-1.000,50.000,80.556,-1639358.333,1047.222,19.444,R
1453,-0.605,1.055,-0.890,44.444,77.778,375.000,1083.333,36.111,R
1454,-0.655,1.185,-1.000,50.000,97.222,-1641494.444,1055.556,27.778,R
1455,-0.660,1.065,-0.845,50.000,86.111,380.556,1058.333,2.778,R
1456,-0.570,1.240,-0.865,44.444,72.222,355.556,1105.556,47.222,R
1457,-0.780,1.270,-0.775,125.000,100.000,405.556,1050.000,55.556,R
1458,-0.610,1.390,-0.665,58.333,102.778,402.778,1100.000,50.000,R
1459,-0.395,1.320,-0.670,52.778,86.111,377.778,1036.111,63.889,R
1460,-0.270,1.520,-0.635,50.000,77.778,383.333,1100.000,63.889,R
1461,-0.355,1.430,-0.555,44.444,75.000,380.556,1030.556,69.444,R
1462,-0.565,1.475,-0.690,127.778,100.000,405.556,1027.778,2.778,R
1463,-0.715,1.315,-0.705,122.222,102.778,402.778,1044.444,16.667,R
1464,-0.550,1.365,-0.725,58.333,102.778,405.556,1016.667,27.778,R
1465,-0.430,1.395,-0.780,47.222,77.778,383.333,1033.333,16.667,R
1466,-0.730,1.330,-0.760,58.333,100.000,405.556,966.667,66.667,R
1467,-0.620,1.310,-0.765,172.222,105.556,402.778,1036.111,69.444,R
1468,-0.525,1.295,-0.835,47.222,83.333,383.333,1002.778,33.333,R
1469,-0.655,1.295,-0.700,58.333,97.222,400.000,988.889,13.889,R
1470,-0.455,1.350,-0.735,52.778,80.556,372.222,994.444,5.556,R
1471,-0.435,1.275,-0.640,50.000,77.778,380.556,950.000,44.444,R
1472,-0.295,1.430,-0.625,47.222,77.778,383.333,969.444,19.444,R
1473,-0.400,1.305,-0.640,47.222,77.778,383.333,913.889,55.556,R
1474,-0.395,1.190,-0.805,50.000,77.778,375.000,994.444,80.556,R
1475,-0.645,1.195,-0.890,47.222,77.778,383.333,958.333,36.111,R
1476,-0.720,1.230,-0.700,58.333,102.778,405.556,991.667,33.333,R
1477,-0.715,-0.250,-0.280,58.333,94.444,380.556,608.333,383.333,V
1478,-0.680,1.310,-0.645,58.333,97.222,402.778,1180.556,572.222,j
1479,-0.260,1.255,-0.650,50.000,75.000,383.333,1033.333,147.222,j
1480,-0.410,1.335,-0.650,47.222,77.778,383.333,1033.333,0.000,R
1481,-0.305,1.310,-0.545,50.000,75.000,383.333,961.111,72.222,R
1482,-0.255,1.425,-0.530,50.000,80.556,380.556,975.000,13.889,R
1483,-0.610,1.290,-0.665,169.444,105.556,402.778,886.111,88.889,R
1484,-0.305,1.305,-0.555,50.000,72.222,380.556,950.000,63.889,R
1485,-0.335,1.350,-0.630,55.556,91.667,383.333,969.444,19.444,R
1486,-0.375,1.285,-0.660,44.444,75.000,380.556,919.444,50.000,R
1487,-0.440,1.260,-0.745,52.778,86.111,386.111,977.778,58.333,R
1488,-0.550,1.180,-0.730,52.778,86.111,377.778,941.667,36.111,R
1489,-0.450,1.185,-0.725,50.000,80.556,383.333,955.556,13.889,R
1490,-0.745,1.200,-0.775,122.222,105.556,405.556,975.000,19.444,R
1491,-0.545,1.165,-0.790,50.000,80.556,377.778,1005.556,30.556,R
1492,-0.635,1.135,-0.840,47.222,80.556,369.444,969.444,36.111,R
1493,-0.620,1.055,-0.885,47.222,77.778,380.556,977.778,8.333,R
1494,-0.785,1.225,-0.725,113.889,105.556,400.000,980.556,2.778,R
1495,-0.690,1.205,-0.730,166.667,102.778,394.444,980.556,0.000,R
1496,-0.755,1.190,-0.880,166.667,102.778,402.778,994.444,13.889,R
1497,-0.620,1.165,-0.805,47.222,77.778,363.889,1005.556,11.111,R
1498,-0.510,1.165,-0.830,50.000,80.556,386.111,980.556,25.000,R
1499,-0.505,1.270,-0.740,47.222,83.333,383.333,1022.222,41.667,R
1500,-0.415,1.295,-0.705,52.778,86.111,383.333,1002.778,19.444,R
1501,-0.450,1.310,-0.675,50.000,86.111,383.333,969.444,33.333,R
1502,-0.385,1.240,-0.710,55.556,88.889,388.889,1011.111,41.667,R
1503,-0.550,1.255,-0.775,47.222,83.333,369.444,972.222,38.889,R
1504,-0.490,1.215,-0.745,50.000,80.556,383.333,983.333,11.111,R
1505,-0.565,1.250,-0.800,47.222,83.333,372.222,986.111,2.778,R
1506,-0.565,1.180,-0.735,52.778,83.333,358.333,919.444,66.667,R
1507,-0.505,1.250,-0.825,50.000,80.556,380.556,952.778,33.333,R
1508,-0.610,1.230,-0.835,47.222,83.333,369.444,1008.333,55.556,R
1509,-0.460,1.260,-0.745,50.000,75.000,375.000,961.111,47.222,R
1510,-0.740,1.290,-0.830,58.333,105.556,386.111,972.222,11.111,R
1511,-0.540,1.165,-0.845,44.444,72.222,375.000,950.000,22.222,R
1512,-0.670,1.210,-0.970,47.222,80.556,383.333,977.778,27.778,R
1513,-0.720,1.055,-0.935,47.222,80.556,380.556,933.333,44.444,R
1514,-0.885,1.175,-0.880,58.333,105.556,388.889,972.222,38.889,R
1515,-0.720,1.215,-0.865,122.222,105.556,405.556,930.556,41.667,R
1516,-0.715,1.140,-0.980,47.222,80.556,380.556,955.556,25.000,R
1517,-0.860,0.850,-1.000,47.222,80.556,-1703552.778,941.667,13.889,R
1518,-0.855,0.970,-0.925,50.000,80.556,377.778,991.667,50.000,R
1519,-0.615,1.255,-0.755,44.444,77.778,375.000,944.444,47.222,R
1520,-0.355,1.240,-0.625,47.222,80.556,369.444,972.222,27.778,R
1521,-0.460,1.280,-0.815,52.778,97.222,386.111,955.556,16.667,R
1522,-0.540,1.185,-0.810,47.222,86.111,380.556,972.222,16.667,R
1523,-0.320,1.470,-0.480,50.000,88.889,386.111,969.444,2.778,R
1524,-0.210,1.410,-0.310,50.000,75.000,377.778,947.222,22.222,R
1525,-0.155,1.450,-0.480,55.556,100.000,386.111,983.333,36.111,R
1526,-0.405,1.370,-0.450,127.778,111.111,394.444,936.111,47.222,R
1527,-0.500,-0.085,0.005,58.333,75.000,388.889,583.333,352.778,V
1528,-0.285,1.290,-0.595,47.222,83.333,375.000,1261.111,677.778,j
1529,-0.430,1.125,-0.735,47.222,80.556,377.778,1005.556,255.556,R
1530,-0.660,1.040,-1.000,47.222,88.889,-1716050.000,977.778,27.778,R
1531,-0.795,0.890,-0.980,47.222,80.556,361.111,952.778,25.000,R
1532,-0.675,0.990,-1.000,50.000,86.111,-1717961.111,958.333,5.556,R
1533,-1.000,1.010,-0.975,1718983.333,105.556,405.556,986.111,27.778,R
1534,-0.775,1.220,-0.775,58.333,100.000,397.222,958.333,27.778,R
1535,-0.580,1.160,-0.870,47.222,83.333,363.889,930.556,27.778,R
1536,-0.665,1.120,-0.945,44.444,77.778,377.778,922.222,8.333,R
1537,-0.415,1.015,-0.560,44.444,72.222,369.444,972.222,50.000,R
1538,-0.210,1.255,-0.420,50.000,80.556,355.556,955.556,16.667,R
1539,-0.530,1.205,-0.600,130.556,105.556,380.556,991.667,36.111,R
1540,-0.345,1.045,-0.780,47.222,86.111,111.111,1027.778,36.111,R
1541,-0.730,1.030,-0.855,58.333,108.333,388.889,997.222,30.556,R
1542,-0.615,0.950,-0.910,50.000,88.889,380.556,1016.667,19.444,R
1543,-0.670,1.215,-0.660,58.333,102.778,402.778,1033.333,16.667,R
1544,-0.325,1.235,-0.600,47.222,83.333,380.556,1005.556,27.778,R
1545,-0.510,1.405,-0.490,111.111,100.000,400.000,1030.556,25.000,R
1546,-0.535,1.220,-0.620,111.111,102.778,405.556,991.667,38.889,R
1547,-0.460,1.040,-0.805,47.222,83.333,383.333,1033.333,41.667,R
1548,-0.470,1.210,-0.545,50.000,86.111,372.222,986.111,47.222,R
1549,-0.370,1.235,-0.715,47.222,83.333,383.333,977.778,8.333,R
1550,-0.450,1.215,-0.680,50.000,91.667,380.556,1086.111,108.333,R
1551,-0.575,1.080,-0.805,47.222,83.333,369.444,1013.889,72.222,R
1552,-0.780,1.055,-0.790,169.444,102.778,405.556,975.000,38.889,R
1553,-0.520,1.215,-0.730,47.222,86.111,375.000,1052.778,77.778,R
1554,-0.805,1.055,-0.915,58.333,105.556,391.667,1008.333,44.444,R
1555,-0.890,0.975,-0.925,161.111,108.333,400.000,1027.778,19.444,R
1556,-0.875,1.000,-0.920,113.889,108.333,405.556,980.556,47.222,R
1557,-0.610,1.015,-0.910,47.222,80.556,372.222,1016.667,36.111,R
1558,-0.640,1.075,-0.945,52.778,91.667,386.111,1066.667,50.000,R
1559,-0.820,1.080,-0.835,58.333,102.778,377.778,1058.333,8.333,R
1560,-0.725,1.230,-0.680,58.333,100.000,394.444,1113.889,55.556,R
1561,-0.590,1.345,-0.655,58.333,102.778,405.556,1147.222,33.333,R
1562,-0.395,1.265,-0.650,50.000,80.556,383.333,1150.000,2.778,R
1563,-0.320,1.380,-0.585,50.000,91.667,386.111,1197.222,47.222,R
1564,-0.345,1.285,-0.600,50.000,80.556,380.556,1102.778,94.444,R
1565,-0.230,1.385,-0.535,50.000,86.111,383.333,1163.889,61.111,R
1566,-0.340,1.275,-0.685,47.222,83.333,383.333,1100.000,63.889,R
1567,-0.505,1.050,-0.880,47.222,86.111,383.333,1105.556,5.556,R
1568,-0.655,1.060,-0.845,47.222,88.889,372.222,1105.556,0.000,R
1569,-0.780,1.100,-0.750,58.333,97.222,405.556,1080.556,25.000,R
1570,-0.350,1.240,-0.710,50.000,83.333,383.333,1138.889,58.333,R
1571,-0.515,1.155,-0.820,50.000,86.111,386.111,1044.444,94.444,R
1572,-0.770,1.065,-0.835,58.333,100.000,391.667,1080.556,36.111,R
1573,-0.490,1.145,-0.825,55.556,86.111,377.778,1125.000,44.444,R
1574,-0.640,1.040,-0.900,50.000,83.333,380.556,1025.000,100.000,R
1575,-0.785,1.080,-0.840,58.333,102.778,400.000,1088.889,63.889,R
1576,-0.715,1.185,-0.815,58.333,108.333,405.556,1083.333,5.556,R
1577,-0.510,1.050,-0.805,47.222,80.556,383.333,1058.333,25.000,R
1578,-0.470,1.230,-0.730,52.778,86.111,386.111,1077.778,19.444,R
1579,-0.645,1.160,-0.930,50.000,83.333,372.222,1008.333,69.444,R
1580,-0.550,1.140,-0.815,50.000,80.556,383.333,1041.667,33.333,R
1581,-0.645,1.330,-0.685,58.333,102.778,391.667,1022.222,19.444,R
1582,-0.775,1.195,-0.820,113.889,97.222,402.778,1016.667,5.556,R
1583,-0.630,1.230,-0.665,58.333,100.000,391.667,1027.778,11.111,R
1584,-0.555,1.355,-0.680,58.333,102.778,405.556,1033.333,5.556,R
1585,-0.385,1.320,-0.725,47.222,88.889,377.778,988.889,44.444,R
1586,-0.190,1.280,-0.640,50.000,88.889,386.111,1097.222,108.333,R
1587,-0.465,1.185,-0.770,52.778,88.889,388.889,1022.222,75.000,R
1588,-0.690,1.160,-0.790,58.333,105.556,391.667,988.889,33.333,R
1589,-0.495,1.105,-0.745,47.222,86.111,355.556,1013.889,25.000,R
1590,-0.475,1.105,-0.740,50.000,86.111,380.556,1050.000,36.111,R
1591,-0.635,1.240,-0.710,58.333,102.778,402.778,1047.222,2.778,R
1592,-0.740,1.185,-0.840,155.556,102.778,394.444,991.667,55.556,R
1593,-0.480,1.045,-0.780,47.222,80.556,375.000,1011.111,19.444,R
1594,-0.550,1.125,-0.870,47.222,94.444,383.333,1005.556,5.556,R
1595,-0.595,1.090,-0.840,52.778,86.111,383.333,1011.111,5.556,R
1596,-0.450,1.140,-0.600,52.778,88.889,386.111,1072.222,61.111,R
1597,-0.170,1.405,-0.445,50.000,88.889,383.333,1016.667,55.556,R
1598,-0.240,1.325,-0.530,52.778,88.889,375.000,988.889,27.778,R
1599,-0.335,1.325,-0.570,47.222,88.889,380.556,1033.333,44.444,R
1600,-0.305,1.270,-0.525,47.222,77.778,363.889,1055.556,22.222,R
1601,-0.330,1.360,-0.585,47.222,97.222,375.000,1005.556,50.000,R
1602,-0.540,1.255,-0.665,58.333,105.556,405.556,1047.222,41.667,R
1603,-0.495,1.240,-0.680,58.333,105.556,405.556,1061.111,13.889,R
1604,-0.615,1.250,-0.685,127.778,108.333,405.556,1025.000,36.111,R
1605,-0.435,1.295,-0.695,50.000,83.333,386.111,1025.000,0.000,R
1606,-0.495,1.105,-0.805,47.222,77.778,380.556,1044.444,19.444,R
1607,-0.475,1.250,-0.750,47.222,88.889,377.778,1102.778,58.333,R
1608,-0.625,1.325,-0.690,58.333,100.000,405.556,1030.556,72.222,R
1609,-0.335,1.315,-0.570,44.444,75.000,380.556,1061.111,30.556,R
1610,-0.300,1.305,-0.665,52.778,97.222,386.111,1066.667,5.556,R
1611,-0.545,1.395,-0.585,130.556,105.556,394.444,1019.444,47.222,R
1612,-0.340,1.405,-0.595,50.000,88.889,375.000,1030.556,11.111,R
1613,-0.610,1.235,-0.700,161.111,102.778,391.667,1030.556,0.000,R
1614,-0.785,1.080,-0.840,127.778,105.556,394.444,1000.000,30.556,R
1615,-0.785,1.135,-0.875,58.333,105.556,405.556,1011.111,11.111,R