id,Pamp,Ramp,Tamp,PR,QRS,QT,RRI,dRRI,label
1,-0.195,0.940,0.005,175.000,50.000,236.111,638.889,11.111,N
2,-0.170,0.945,-0.020,166.667,83.333,297.222,622.222,16.667,N
3,-0.165,1.145,0.120,152.778,44.444,241.667,619.444,2.778,N
4,-0.030,1.255,0.170,172.222,47.222,238.889,602.778,16.667,N
5,0.020,1.165,0.200,158.333,41.667,238.889,611.111,8.333,N
6,-0.015,1.235,0.145,175.000,50.000,266.667,627.778,16.667,N
7,-0.085,1.145,0.100,169.444,47.222,258.333,658.333,30.556,N
8,-0.120,1.025,0.075,169.444,47.222,272.222,666.667,8.333,N
9,-0.160,0.975,0.080,152.778,47.222,250.000,636.111,30.556,N
10,-0.055,1.310,0.140,158.333,44.444,252.778,636.111,0.000,N
11,-0.055,1.135,0.125,163.889,47.222,247.222,638.889,2.778,N
12,-0.055,1.155,0.130,166.667,44.444,255.556,625.000,13.889,N
13,-0.050,1.040,0.120,161.111,47.222,238.889,636.111,11.111,N
14,-0.090,1.030,0.085,166.667,47.222,238.889,627.778,8.333,N
15,-0.125,1.095,0.110,166.667,47.222,241.667,600.000,27.778,N
16,-0.040,1.235,0.125,163.889,47.222,244.444,644.444,44.444,N
17,-0.050,1.055,0.140,169.444,47.222,272.222,655.556,11.111,N
18,-0.075,1.090,0.075,197.222,47.222,261.111,663.889,8.333,N
19,-0.165,1.015,0.035,155.556,47.222,252.778,672.222,8.333,N
20,-0.140,1.140,0.095,150.000,44.444,241.667,658.333,13.889,N
21,-0.085,1.055,0.125,155.556,47.222,247.222,647.222,11.111,N
22,-0.040,1.005,0.125,158.333,44.444,244.444,616.667,30.556,N
23,-0.080,0.950,0.070,152.778,44.444,236.111,627.778,11.111,N
24,-0.195,0.935,-0.010,144.444,44.444,244.444,605.556,22.222,N
25,-0.160,1.050,0.015,163.889,47.222,261.111,638.889,33.333,N
26,-0.200,0.900,-0.020,180.556,47.222,244.444,680.556,41.667,N
27,-0.225,1.005,-0.015,175.000,52.778,258.333,677.778,2.778,N
28,-0.145,1.130,0.095,161.111,44.444,241.667,669.444,8.333,N
29,-0.075,1.120,0.095,161.111,47.222,244.444,652.778,16.667,N
30,-0.085,1.065,0.060,166.667,47.222,241.667,638.889,13.889,N
31,-0.155,0.905,0.020,161.111,47.222,244.444,644.444,5.556,N
32,-0.165,0.965,0.005,169.444,50.000,238.889,658.333,13.889,N
33,-0.200,0.780,0.050,150.000,36.111,230.556,616.667,41.667,N
34,-0.110,1.040,0.065,144.444,44.444,261.111,641.667,25.000,N
35,-0.130,1.085,0.055,158.333,47.222,263.889,650.000,8.333,N
36,-0.135,0.935,0.060,175.000,47.222,233.333,666.667,16.667,N
37,-0.135,1.095,0.090,183.333,50.000,261.111,658.333,8.333,N
38,-0.125,1.095,0.105,163.889,47.222,261.111,630.556,27.778,N
39,-0.090,1.145,0.060,169.444,47.222,255.556,655.556,25.000,N
40,-0.150,0.875,0.010,166.667,52.778,258.333,663.889,8.333,N
41,-0.215,0.950,0.015,161.111,47.222,244.444,644.444,19.444,N
42,-0.175,1.145,0.040,152.778,47.222,211.111,655.556,11.111,N
43,-0.160,1.000,0.010,163.889,44.444,244.444,627.778,27.778,N
44,-0.210,0.945,0.050,175.000,47.222,266.667,677.778,50.000,N
45,-0.115,1.080,0.065,183.333,52.778,275.000,711.111,33.333,N
46,-0.100,1.095,0.070,169.444,50.000,261.111,702.778,8.333,N
47,-0.145,0.965,0.065,158.333,44.444,244.444,672.222,30.556,N
48,-0.100,0.960,0.120,144.444,44.444,258.333,652.778,19.444,N
49,-0.100,0.970,0.070,138.889,47.222,236.111,658.333,5.556,N
50,-0.145,0.870,-0.005,161.111,47.222,216.667,655.556,2.778,N
51,-0.190,0.930,0.025,155.556,50.000,236.111,627.778,27.778,N
52,-0.125,1.065,0.060,169.444,50.000,269.444,636.111,8.333,N
53,-0.115,0.920,0.080,177.778,50.000,247.222,688.889,52.778,N
54,-0.090,1.070,0.140,163.889,47.222,261.111,669.444,19.444,N
55,-0.065,0.940,0.080,166.667,50.000,258.333,669.444,0.000,N
56,-0.135,0.910,-0.025,172.222,47.222,250.000,644.444,25.000,N
57,-0.200,0.935,0.000,172.222,50.000,252.778,647.222,2.778,N
58,-0.175,1.020,0.020,169.444,41.667,250.000,650.000,2.778,N
59,-0.150,0.975,0.040,163.889,44.444,252.778,627.778,22.222,N
60,-0.185,0.875,-0.015,147.222,44.444,227.778,627.778,0.000,N
61,-0.205,0.960,0.045,144.444,44.444,227.778,583.333,44.444,N
62,-0.170,0.965,0.060,161.111,44.444,247.222,630.556,47.222,N
63,-0.205,0.865,0.030,147.222,50.000,261.111,669.444,38.889,N
64,-0.225,1.055,0.040,186.111,52.778,261.111,655.556,13.889,N
65,-0.075,1.190,0.170,169.444,47.222,252.778,633.333,22.222,N
66,0.025,1.215,0.270,147.222,50.000,261.111,661.111,27.778,N
67,0.015,1.155,0.145,177.778,44.444,241.667,633.333,27.778,N
68,-0.140,0.950,0.060,155.556,44.444,236.111,627.778,5.556,N
69,-0.130,1.070,0.115,161.111,44.444,241.667,605.556,22.222,N
70,-0.075,1.110,0.115,158.333,36.111,244.444,611.111,5.556,N
71,-0.150,1.045,0.075,177.778,52.778,272.222,652.778,41.667,N
72,-0.145,1.035,0.130,177.778,47.222,250.000,652.778,0.000,N
73,-0.025,1.010,0.075,172.222,52.778,258.333,658.333,5.556,N
74,-0.165,0.900,0.035,158.333,47.222,250.000,638.889,19.444,N
75,-0.205,0.955,0.050,161.111,44.444,247.222,633.333,5.556,N
76,-0.155,0.990,0.075,172.222,52.778,255.556,630.556,2.778,N
77,-0.100,1.180,0.085,152.778,44.444,241.667,611.111,19.444,N
78,-0.125,1.020,0.100,147.222,44.444,247.222,627.778,16.667,N
79,-0.145,0.835,-0.005,186.111,44.444,261.111,625.000,2.778,N
80,-0.215,0.790,-0.050,122.222,44.444,222.222,486.111,138.889,A
81,-0.280,1.040,0.075,172.222,47.222,275.000,711.111,225.000,N
82,-0.080,0.965,0.050,172.222,47.222,252.778,652.778,58.333,N
83,-0.115,1.050,0.100,169.444,47.222,241.667,650.000,2.778,N
84,-0.130,0.945,0.050,166.667,47.222,255.556,650.000,0.000,N
85,-0.175,0.930,0.020,152.778,47.222,241.667,630.556,19.444,N
86,-0.200,0.940,0.000,169.444,50.000,238.889,622.222,8.333,N
87,-0.135,1.085,0.045,158.333,44.444,247.222,616.667,5.556,N
88,-0.120,1.150,0.105,166.667,50.000,258.333,600.000,16.667,N
89,-0.060,1.165,0.145,136.111,44.444,222.222,597.222,2.778,N
90,-0.025,1.170,0.180,150.000,44.444,255.556,613.889,16.667,N
91,-0.005,0.990,0.155,144.444,50.000,275.000,650.000,36.111,N
92,-0.025,1.070,0.095,177.778,44.444,277.778,680.556,30.556,N
93,-0.090,1.035,0.130,166.667,47.222,255.556,686.111,5.556,N
94,0.000,1.125,0.185,158.333,47.222,269.444,638.889,47.222,N
95,0.020,1.065,0.100,158.333,50.000,250.000,636.111,2.778,N
96,-0.100,0.830,0.000,155.556,47.222,252.778,613.889,22.222,N
97,-0.220,0.805,-0.075,183.333,47.222,244.444,627.778,13.889,N
98,-0.225,1.020,-0.005,163.889,52.778,252.778,630.556,2.778,N
99,-0.150,1.035,0.015,163.889,47.222,238.889,586.111,44.444,N
100,-0.190,0.880,0.000,147.222,47.222,241.667,633.333,47.222,N
101,-0.175,0.815,-0.010,180.556,52.778,263.889,633.333,0.000,N
102,-0.185,1.005,0.045,152.778,44.444,272.222,586.111,47.222,N
103,-0.115,1.075,0.120,158.333,50.000,252.778,688.889,102.778,N
104,-0.050,1.065,0.095,177.778,47.222,261.111,622.222,66.667,N
105,-0.075,0.990,0.115,166.667,47.222,241.667,638.889,16.667,N
106,-0.075,0.900,0.095,163.889,44.444,247.222,625.000,13.889,N
107,-0.100,0.995,0.105,161.111,44.444,241.667,602.778,22.222,N
108,-0.050,1.100,0.095,119.444,44.444,219.444,508.333,94.444,A
109,-0.110,1.090,0.125,144.444,50.000,255.556,666.667,158.333,N
110,-0.085,1.020,0.045,177.778,47.222,244.444,644.444,22.222,N
111,-0.135,0.995,0.110,161.111,47.222,277.778,663.889,19.444,N
112,-0.080,1.035,0.045,177.778,47.222,255.556,655.556,8.333,N
113,-0.020,1.290,0.255,150.000,44.444,238.889,633.333,22.222,N
114,0.050,1.205,0.105,163.889,44.444,244.444,611.111,22.222,N
115,-0.115,1.005,0.050,138.889,47.222,250.000,625.000,13.889,N
116,-0.120,0.880,0.035,155.556,47.222,252.778,616.667,8.333,N
117,-0.160,0.900,0.005,166.667,44.444,233.333,597.222,19.444,N
118,-0.195,0.985,-0.025,166.667,44.444,241.667,580.556,16.667,N
119,-0.225,1.110,-0.015,169.444,50.000,258.333,619.444,38.889,N
120,-0.175,1.010,0.000,166.667,47.222,241.667,647.222,27.778,N
121,-0.135,0.985,0.105,161.111,44.444,258.333,647.222,0.000,N
122,-0.080,0.975,0.090,158.333,44.444,261.111,630.556,16.667,N
123,-0.090,1.020,0.085,163.889,47.222,263.889,622.222,8.333,N
124,-0.090,0.985,0.120,169.444,47.222,258.333,636.111,13.889,N
125,-0.025,1.105,0.130,163.889,44.444,244.444,627.778,8.333,N
126,-0.065,1.035,0.105,150.000,44.444,241.667,602.778,25.000,N
127,-0.060,1.040,0.120,130.556,41.667,227.778,583.333,19.444,N
128,-0.095,1.040,0.160,147.222,44.444,241.667,597.222,13.889,N
129,-0.050,1.095,0.140,172.222,47.222,255.556,622.222,25.000,N
130,-0.040,1.105,0.140,166.667,47.222,255.556,650.000,27.778,N
131,-0.090,1.055,0.110,183.333,47.222,241.667,650.000,0.000,N
132,-0.140,0.880,0.040,161.111,47.222,247.222,641.667,8.333,N
133,-0.125,0.930,0.060,172.222,44.444,250.000,644.444,2.778,N
134,-0.145,1.075,0.075,169.444,44.444,236.111,636.111,8.333,N
135,-0.130,0.850,0.015,172.222,44.444,227.778,633.333,2.778,N
136,-0.185,0.890,0.060,161.111,41.667,225.000,619.444,13.889,N
137,-0.125,0.975,0.070,163.889,44.444,241.667,619.444,0.000,N
138,-0.105,1.015,0.065,172.222,50.000,258.333,675.000,55.556,N
139,-0.165,0.970,0.020,186.111,50.000,258.333,680.556,5.556,N
140,-0.210,0.920,0.025,169.444,47.222,250.000,675.000,5.556,N
141,-0.180,0.900,0.040,175.000,50.000,252.778,666.667,8.333,N
142,-0.140,0.840,0.025,172.222,50.000,255.556,644.444,22.222,N
143,-0.170,0.920,0.035,161.111,44.444,241.667,647.222,2.778,N
144,-0.150,0.960,0.065,166.667,47.222,258.333,630.556,16.667,N
145,-0.080,1.015,0.130,172.222,47.222,236.111,555.556,75.000,N
146,-0.075,1.000,0.140,150.000,41.667,222.222,694.444,138.889,N
147,-0.105,0.880,0.005,169.444,44.444,247.222,608.333,86.111,N
148,-0.185,0.920,0.005,169.444,47.222,258.333,644.444,36.111,N
149,-0.185,0.980,0.060,169.444,47.222,255.556,652.778,8.333,N
150,-0.115,0.995,0.075,175.000,50.000,266.667,669.444,16.667,N
151,-0.140,0.930,0.050,158.333,44.444,247.222,652.778,16.667,N
152,-0.160,0.940,0.070,169.444,50.000,258.333,627.778,25.000,N
153,-0.150,0.885,0.095,155.556,41.667,225.000,622.222,5.556,N
154,-0.075,0.965,0.110,152.778,47.222,238.889,608.333,13.889,N
155,-0.100,1.025,0.035,191.667,44.444,236.111,469.444,138.889,A
156,-0.185,0.935,0.040,147.222,44.444,255.556,658.333,188.889,N
157,-0.145,1.055,0.075,177.778,47.222,247.222,650.000,8.333,N
158,-0.135,1.135,0.115,152.778,50.000,258.333,655.556,5.556,N
159,-0.105,1.070,0.105,194.444,50.000,244.444,663.889,8.333,N
160,-0.105,0.975,0.050,172.222,50.000,250.000,625.000,38.889,N
161,-0.210,0.825,0.015,180.556,44.444,227.778,641.667,16.667,N
162,-0.200,0.900,0.030,150.000,47.222,241.667,616.667,25.000,N
163,-0.145,1.030,0.115,163.889,47.222,258.333,616.667,0.000,N
164,-0.095,1.150,0.135,177.778,44.444,244.444,630.556,13.889,N
165,-0.060,0.990,0.130,152.778,47.222,222.222,605.556,25.000,N
166,-0.100,0.845,0.085,163.889,44.444,227.778,594.444,11.111,N
167,-0.115,0.915,0.185,161.111,44.444,238.889,616.667,22.222,N
168,-0.015,1.045,0.205,180.556,47.222,269.444,644.444,27.778,N
169,0.015,1.080,0.110,194.444,50.000,250.000,652.778,8.333,N
170,-0.110,0.925,0.110,138.889,44.444,238.889,616.667,36.111,N
171,-0.055,0.865,0.130,166.667,47.222,222.222,625.000,8.333,N
172,-0.080,0.845,0.080,166.667,47.222,258.333,633.333,8.333,N
173,-0.215,0.710,0.000,158.333,47.222,227.778,608.333,25.000,N
174,-0.205,0.930,0.045,166.667,47.222,241.667,608.333,0.000,N
175,-0.185,0.970,0.020,125.000,44.444,244.444,575.000,33.333,N
176,-0.215,1.010,0.025,147.222,44.444,261.111,619.444,44.444,N
177,-0.160,1.175,0.160,161.111,50.000,263.889,652.778,33.333,N
178,-0.030,1.030,0.160,166.667,47.222,241.667,652.778,0.000,N
179,-0.100,0.965,0.145,166.667,50.000,247.222,647.222,5.556,N
180,-0.060,1.080,0.130,152.778,47.222,227.778,619.444,27.778,N
181,-0.050,1.115,0.185,186.111,41.667,247.222,622.222,2.778,N
182,0.035,1.290,0.230,152.778,44.444,255.556,608.333,13.889,N
183,0.015,1.125,0.185,147.222,41.667,225.000,486.111,122.222,A
184,-0.055,1.085,0.140,150.000,44.444,258.333,716.667,230.556,N
185,-0.105,1.055,0.065,166.667,47.222,255.556,616.667,100.000,N
186,-0.085,1.150,0.210,147.222,47.222,255.556,666.667,50.000,N
187,0.040,1.175,0.215,172.222,47.222,266.667,677.778,11.111,N
188,0.005,1.030,0.150,158.333,44.444,261.111,630.556,47.222,N
189,-0.070,0.885,0.105,155.556,41.667,261.111,680.556,50.000,N
190,-0.095,0.935,0.135,141.667,44.444,241.667,652.778,27.778,N
191,-0.030,1.050,0.155,150.000,44.444,244.444,652.778,0.000,N
192,-0.070,0.975,0.085,163.889,44.444,252.778,622.222,30.556,N
193,-0.130,0.985,0.050,152.778,44.444,225.000,616.667,5.556,N
194,-0.135,0.920,0.045,166.667,44.444,236.111,586.111,30.556,N
195,-0.080,1.105,0.105,175.000,47.222,252.778,622.222,36.111,N
196,-0.050,0.985,0.120,144.444,44.444,261.111,636.111,13.889,N
197,-0.060,1.070,0.055,180.556,47.222,261.111,652.778,16.667,N
198,-0.120,1.030,0.070,180.556,47.222,263.889,650.000,2.778,N
199,-0.090,0.980,0.140,166.667,44.444,238.889,636.111,13.889,N
200,-0.085,0.980,0.075,150.000,44.444,241.667,616.667,19.444,N
201,-0.170,0.960,0.035,155.556,41.667,241.667,611.111,5.556,N
202,-0.125,1.100,0.050,169.444,41.667,233.333,611.111,0.000,N
203,-0.115,1.030,0.060,155.556,44.444,244.444,619.444,8.333,N
204,-0.205,0.960,0.015,166.667,47.222,255.556,608.333,11.111,N
205,-0.175,0.955,-0.020,169.444,47.222,255.556,636.111,27.778,N
206,-0.175,1.155,0.040,169.444,47.222,238.889,666.667,30.556,N
207,-0.130,1.055,0.080,172.222,50.000,266.667,638.889,27.778,N
208,-0.115,1.065,0.070,163.889,44.444,261.111,638.889,0.000,N
209,-0.120,0.905,0.035,166.667,47.222,241.667,636.111,2.778,N
210,-0.155,1.090,0.085,169.444,47.222,244.444,636.111,0.000,N
211,-0.080,1.025,0.110,163.889,44.444,255.556,630.556,5.556,N
212,-0.100,1.045,0.095,161.111,47.222,244.444,630.556,0.000,N
213,-0.110,1.025,0.080,141.667,41.667,230.556,594.444,36.111,N
214,-0.150,1.020,0.080,163.889,47.222,252.778,633.333,38.889,N
215,-0.135,1.025,0.050,172.222,47.222,247.222,636.111,2.778,N
216,-0.180,0.955,0.010,150.000,47.222,266.667,655.556,19.444,N
217,-0.215,0.850,-0.030,183.333,47.222,258.333,669.444,13.889,N
218,-0.245,0.870,-0.040,166.667,44.444,250.000,633.333,36.111,N
219,-0.195,1.110,0.025,169.444,50.000,255.556,636.111,2.778,N
220,-0.150,1.080,0.065,152.778,47.222,238.889,613.889,22.222,N
221,-0.125,1.005,0.060,158.333,41.667,227.778,625.000,11.111,N
222,-0.125,0.960,0.065,163.889,44.444,238.889,622.222,2.778,N
223,-0.135,1.115,0.110,152.778,47.222,252.778,588.889,33.333,N
224,-0.060,1.150,0.110,163.889,47.222,258.333,661.111,72.222,N
225,-0.110,1.035,0.075,163.889,50.000,258.333,680.556,19.444,N
226,-0.155,0.990,0.050,161.111,50.000,236.111,661.111,19.444,N
227,-0.065,1.210,0.135,144.444,47.222,252.778,652.778,8.333,N
228,-0.050,1.145,0.235,172.222,44.444,250.000,627.778,25.000,N
229,-0.050,0.895,0.075,163.889,44.444,255.556,630.556,2.778,N
230,-0.170,0.635,0.235,125.000,44.444,247.222,625.000,5.556,N
231,0.165,1.210,0.340,169.444,38.889,230.556,497.222,127.778,A
232,0.120,1.100,-0.020,125.000,41.667,247.222,666.667,169.444,N
233,-0.230,0.885,0.155,169.444,72.222,272.222,611.111,55.556,N
234,-0.150,0.665,0.420,166.667,52.778,269.444,622.222,11.111,N
235,-0.115,0.225,-0.200,58.333,113.889,219.444,250.000,372.222,|
236,-0.300,0.805,-0.205,152.778,52.778,258.333,377.778,127.778,N
237,-0.300,1.105,0.030,133.333,47.222,241.667,630.556,252.778,N
238,-0.175,0.930,-0.015,172.222,50.000,252.778,625.000,5.556,N
239,-0.235,0.835,-0.100,172.222,50.000,266.667,633.333,8.333,N
240,-0.260,0.850,-0.025,138.889,50.000,255.556,633.333,0.000,N
241,-0.175,1.010,0.100,163.889,47.222,241.667,608.333,25.000,N
242,0.125,1.180,0.415,116.667,50.000,183.333,611.111,2.778,N
243,-0.160,0.865,0.010,150.000,52.778,194.444,580.556,30.556,N
244,-0.140,0.915,0.010,119.444,52.778,222.222,638.889,58.333,N
245,0.010,-1.000,0.440,113.889,22.222,347.222,311.111,327.778,|
246,0.330,1.095,0.200,77.778,77.778,291.667,355.556,44.444,N
247,-0.105,1.040,0.235,186.111,47.222,252.778,641.667,286.111,N
248,0.080,0.945,-0.010,197.222,44.444,266.667,466.667,175.000,A
249,-0.285,0.895,-0.095,163.889,50.000,244.444,666.667,200.000,N
250,-0.270,0.900,-0.140,175.000,47.222,227.778,636.111,30.556,N
251,-0.325,0.950,-0.185,186.111,50.000,247.222,613.889,22.222,N
252,-0.250,1.055,0.030,155.556,47.222,252.778,600.000,13.889,N
253,-0.090,1.100,0.135,158.333,41.667,230.556,588.889,11.111,N
254,-0.005,1.250,0.145,163.889,47.222,258.333,622.222,33.333,N
255,-0.105,1.115,0.080,166.667,47.222,266.667,638.889,16.667,N
256,-0.095,0.985,0.030,169.444,50.000,258.333,647.222,8.333,N
257,-0.160,0.925,-0.025,169.444,47.222,244.444,644.444,2.778,N
258,-0.265,0.810,-0.105,161.111,47.222,241.667,636.111,8.333,N
259,-0.290,0.865,-0.035,172.222,50.000,263.889,627.778,8.333,N
260,-0.200,0.925,0.010,166.667,41.667,238.889,638.889,11.111,N
261,-0.135,1.045,-0.005,163.889,44.444,255.556,616.667,22.222,N
262,-0.215,0.695,-0.070,158.333,41.667,211.111,611.111,5.556,N
263,-0.250,0.635,-0.085,133.333,41.667,225.000,586.111,25.000,N
264,-0.320,0.745,-0.150,166.667,47.222,255.556,622.222,36.111,N
265,-0.290,0.835,-0.005,152.778,44.444,266.667,655.556,33.333,N
266,-0.145,0.900,0.020,163.889,50.000,261.111,658.333,2.778,N
267,-0.175,0.880,0.040,175.000,52.778,272.222,661.111,2.778,N
268,-0.165,0.900,0.110,161.111,44.444,250.000,652.778,8.333,N
269,-0.050,1.040,0.115,152.778,50.000,225.000,625.000,27.778,N
270,-0.030,1.015,0.120,158.333,41.667,230.556,622.222,2.778,N
271,-0.045,0.940,0.070,161.111,44.444,211.111,619.444,2.778,N
272,-0.110,0.885,0.050,150.000,44.444,238.889,638.889,19.444,N
273,-0.130,0.760,0.040,172.222,47.222,241.667,638.889,0.000,N
274,-0.155,0.875,0.035,172.222,50.000,258.333,666.667,27.778,N
275,-0.130,0.755,0.115,166.667,50.000,225.000,680.556,13.889,N
276,-0.085,0.785,0.050,172.222,47.222,255.556,669.444,11.111,N
277,-0.150,0.800,0.015,161.111,47.222,244.444,655.556,13.889,N
278,-0.185,0.770,0.010,161.111,47.222,238.889,661.111,5.556,N
279,-0.160,0.900,0.035,166.667,47.222,241.667,661.111,0.000,N
280,0.040,0.795,0.000,125.000,50.000,252.778,655.556,5.556,N
281,-0.250,0.785,-0.140,188.889,50.000,205.556,650.000,5.556,N
282,-0.200,0.960,0.040,155.556,47.222,269.444,605.556,44.444,N
283,-0.095,1.115,0.150,175.000,52.778,252.778,650.000,44.444,N
284,0.025,1.300,0.360,158.333,47.222,258.333,655.556,5.556,N
285,0.155,0.995,0.170,175.000,47.222,280.556,661.111,5.556,N
286,-0.095,0.865,0.105,169.444,47.222,241.667,675.000,13.889,N
287,-0.100,1.040,0.095,155.556,47.222,255.556,636.111,38.889,N
288,-0.145,1.000,0.065,163.889,47.222,241.667,630.556,5.556,N
289,-0.115,0.930,0.090,172.222,47.222,247.222,608.333,22.222,N
290,-0.035,1.150,0.175,161.111,52.778,266.667,616.667,8.333,N
291,-0.035,0.945,0.150,141.667,41.667,222.222,602.778,13.889,N
292,-0.040,1.060,0.100,177.778,50.000,252.778,630.556,27.778,N
293,-0.110,1.080,0.050,177.778,52.778,272.222,666.667,36.111,N
294,-0.185,0.865,0.025,155.556,47.222,238.889,677.778,11.111,N
295,-0.190,0.840,0.010,177.778,47.222,230.556,638.889,38.889,N
296,-0.215,0.900,0.000,155.556,44.444,233.333,630.556,8.333,N
297,-0.160,1.020,0.065,175.000,52.778,255.556,636.111,5.556,N
298,-0.125,1.115,0.085,180.556,47.222,261.111,638.889,2.778,N
299,-0.075,1.070,0.135,166.667,47.222,241.667,636.111,2.778,N
300,-0.065,1.035,0.140,180.556,41.667,222.222,613.889,22.222,N
301,-0.085,0.935,0.105,169.444,44.444,238.889,605.556,8.333,N
302,-0.095,0.975,0.105,169.444,50.000,258.333,630.556,25.000,N
303,-0.105,0.935,0.035,163.889,47.222,244.444,644.444,13.889,N
304,-0.170,0.915,-0.010,152.778,47.222,236.111,525.000,119.444,A
305,-0.230,0.875,0.075,158.333,47.222,261.111,722.222,197.222,N
306,-0.110,0.900,0.055,163.889,44.444,230.556,636.111,86.111,N
307,-0.125,1.015,0.085,169.444,50.000,241.667,644.444,8.333,N
308,-0.125,0.850,0.085,163.889,44.444,244.444,608.333,36.111,N
309,-0.140,0.935,0.060,144.444,44.444,213.889,600.000,8.333,N
310,-0.145,1.055,0.105,138.889,38.889,244.444,577.778,22.222,N
311,-0.070,1.080,0.135,175.000,50.000,272.222,630.556,52.778,N
312,-0.065,0.975,0.085,183.333,50.000,269.444,680.556,50.000,N
313,-0.135,0.850,0.070,172.222,44.444,261.111,675.000,5.556,N
314,-0.135,0.955,0.040,175.000,47.222,244.444,669.444,5.556,N
315,-0.165,0.960,0.055,163.889,47.222,263.889,633.333,36.111,N
316,-0.160,0.945,0.040,177.778,44.444,247.222,650.000,16.667,N
317,-0.150,0.895,0.070,169.444,47.222,238.889,641.667,8.333,N
318,-0.045,0.980,0.135,158.333,50.000,269.444,619.444,22.222,N
319,-0.040,0.960,0.130,163.889,44.444,213.889,636.111,16.667,N
320,-0.060,0.860,0.115,183.333,50.000,241.667,625.000,11.111,N
321,-0.080,0.495,0.085,163.889,83.333,275.000,644.444,19.444,N
322,-0.115,0.770,0.130,175.000,58.333,258.333,663.889,19.444,N
323,-0.115,0.805,0.065,183.333,52.778,258.333,644.444,19.444,N
324,-0.085,0.765,0.195,144.444,61.111,261.111,644.444,0.000,N
325,-0.030,0.930,0.150,191.667,50.000,252.778,644.444,0.000,N
326,-0.045,0.860,0.135,161.111,72.222,277.778,633.333,11.111,N
327,-0.070,0.765,0.085,194.444,44.444,241.667,636.111,2.778,N
328,-0.150,0.550,-0.010,163.889,50.000,241.667,605.556,30.556,N
329,-0.210,0.565,0.050,152.778,83.333,288.889,583.333,22.222,N
330,-0.105,0.920,0.145,175.000,50.000,250.000,647.222,63.889,N
331,-0.150,0.880,-0.025,183.333,50.000,277.778,655.556,8.333,N
332,-0.240,0.830,0.015,169.444,47.222,272.222,666.667,11.111,N
333,-0.165,0.950,0.095,147.222,50.000,263.889,675.000,8.333,N
334,-0.095,0.910,0.095,152.778,50.000,255.556,641.667,33.333,N
335,-0.110,0.920,0.165,169.444,47.222,216.667,652.778,11.111,N
336,-0.140,0.920,0.035,155.556,47.222,252.778,616.667,36.111,N
337,-0.140,1.075,0.095,183.333,44.444,258.333,625.000,8.333,N
338,-0.170,0.870,-0.010,183.333,41.667,222.222,636.111,11.111,N
339,-0.240,0.905,-0.025,108.333,44.444,247.222,611.111,25.000,N
340,-0.215,1.035,0.030,177.778,47.222,258.333,652.778,41.667,N
341,-0.115,1.105,0.120,175.000,50.000,272.222,641.667,11.111,N
342,-0.040,1.230,0.230,169.444,50.000,269.444,652.778,11.111,N
343,0.045,1.170,0.400,169.444,69.444,266.667,647.222,5.556,N
344,0.060,1.190,0.480,186.111,52.778,288.889,619.444,27.778,N
345,0.290,1.475,0.490,116.667,41.667,222.222,622.222,2.778,N
346,0.340,1.305,0.260,163.889,41.667,191.667,616.667,5.556,N
347,-0.025,1.090,0.025,147.222,44.444,238.889,586.111,30.556,N
348,-0.115,0.930,-0.160,197.222,47.222,222.222,575.000,11.111,N
349,-0.385,0.870,-0.230,169.444,58.333,263.889,597.222,22.222,N
350,-0.370,0.995,-0.115,169.444,52.778,277.778,630.556,33.333,N
351,-0.185,1.025,0.230,186.111,47.222,236.111,638.889,8.333,N
352,0.090,1.055,0.050,186.111,47.222,255.556,627.778,11.111,N
353,-0.190,0.980,-0.100,175.000,50.000,261.111,600.000,27.778,N
354,-0.255,1.000,-0.015,141.667,44.444,252.778,600.000,0.000,N
355,-0.195,1.105,0.035,138.889,44.444,236.111,588.889,11.111,N
356,-0.150,0.930,0.035,163.889,47.222,261.111,588.889,0.000,N
357,-0.175,1.005,0.010,175.000,47.222,236.111,597.222,8.333,N
358,-0.140,1.100,0.095,163.889,47.222,247.222,572.222,25.000,N
359,-0.075,1.055,0.115,108.333,44.444,261.111,616.667,44.444,N
360,-0.055,1.050,0.125,150.000,50.000,252.778,652.778,36.111,N
361,-0.050,1.055,0.120,177.778,47.222,230.556,630.556,22.222,N
362,-0.075,0.965,0.340,155.556,80.556,266.667,627.778,2.778,N
363,0.195,1.340,0.370,155.556,44.444,250.000,594.444,33.333,N
364,0.160,1.230,0.185,172.222,44.444,263.889,605.556,11.111,N
365,0.060,1.080,0.120,166.667,47.222,261.111,608.333,2.778,N
366,-0.420,1.090,0.005,38.889,50.000,102.778,591.667,16.667,N
367,-0.185,1.005,0.030,141.667,50.000,238.889,586.111,5.556,N
368,-0.080,1.005,0.130,130.556,44.444,258.333,552.778,33.333,N
369,-0.050,0.985,0.160,177.778,44.444,244.444,613.889,61.111,N
370,-0.105,1.040,0.050,180.556,52.778,255.556,633.333,19.444,N
371,-0.150,1.070,0.080,161.111,52.778,252.778,616.667,16.667,N
372,-0.025,1.210,0.270,194.444,50.000,250.000,633.333,16.667,N
373,0.055,1.265,0.200,136.111,50.000,238.889,613.889,19.444,N
374,-0.025,0.960,0.165,111.111,47.222,216.667,619.444,5.556,N
375,-0.040,1.105,0.120,163.889,44.444,227.778,588.889,30.556,N
376,-0.035,1.145,0.220,113.889,47.222,216.667,558.333,30.556,N
377,0.125,1.220,0.300,158.333,63.889,236.111,616.667,58.333,N
378,0.070,1.090,0.125,172.222,44.444,241.667,588.889,27.778,N
379,-0.210,1.075,0.050,116.667,50.000,275.000,641.667,52.778,N
380,-0.130,1.160,0.145,172.222,47.222,233.333,638.889,2.778,N
381,-0.025,1.430,0.165,175.000,50.000,244.444,644.444,5.556,N
382,-0.010,1.160,0.155,161.111,47.222,250.000,602.778,41.667,N
383,-0.070,1.190,0.090,166.667,47.222,236.111,602.778,0.000,N
384,-0.155,1.000,0.010,138.889,47.222,238.889,613.889,11.111,N
385,-0.225,1.135,0.100,163.889,44.444,238.889,594.444,19.444,N
386,-0.095,1.285,0.060,155.556,47.222,250.000,605.556,11.111,N
387,0.150,1.170,0.070,152.778,38.889,333.333,605.556,0.000,N
388,0.120,1.205,0.230,136.111,47.222,255.556,591.667,13.889,N
389,-0.020,1.130,0.110,127.778,47.222,372.222,625.000,33.333,N
390,0.040,0.915,-0.020,188.889,47.222,263.889,625.000,0.000,N
391,-0.245,0.875,-0.060,177.778,47.222,250.000,627.778,2.778,N
392,-0.125,0.850,-0.145,163.889,47.222,252.778,636.111,8.333,N
393,-0.435,1.030,0.045,66.667,47.222,219.444,619.444,16.667,N
394,0.215,0.915,0.140,55.556,38.889,177.778,597.222,22.222,N
395,-0.060,0.500,-0.140,197.222,83.333,280.556,594.444,2.778,N
396,-0.230,0.745,-0.020,180.556,47.222,241.667,588.889,5.556,N
397,0.055,1.295,0.310,63.889,38.889,219.444,563.889,25.000,N
398,-0.275,0.935,0.225,127.778,50.000,213.889,588.889,25.000,N
399,0.075,1.360,0.295,127.778,63.889,313.889,600.000,11.111,N
400,-0.020,1.200,0.295,191.667,75.000,186.111,625.000,25.000,N
401,-0.190,1.215,0.420,191.667,66.667,258.333,613.889,11.111,N
402,0.255,1.500,0.290,113.889,66.667,258.333,588.889,25.000,N
403,0.060,1.270,0.035,108.333,47.222,247.222,580.556,8.333,N
404,-0.040,1.165,0.480,100.000,66.667,255.556,575.000,5.556,N
405,0.390,1.585,0.465,172.222,50.000,250.000,572.222,2.778,N
406,0.220,1.055,0.215,147.222,47.222,263.889,569.444,2.778,N
407,-0.085,0.955,0.065,105.556,47.222,216.667,580.556,11.111,N
408,-0.065,0.990,0.220,136.111,47.222,241.667,544.444,36.111,N
409,0.135,1.030,0.285,138.889,50.000,247.222,586.111,41.667,N
410,0.280,0.695,-0.100,197.222,41.667,250.000,419.444,166.667,A
411,-0.140,0.880,0.385,152.778,44.444,288.889,666.667,247.222,N
412,0.450,1.155,0.470,147.222,50.000,216.667,602.778,63.889,N
413,0.240,0.730,0.150,144.444,47.222,233.333,563.889,38.889,N
414,-0.005,0.720,-0.090,172.222,50.000,269.444,580.556,16.667,N
415,-0.280,0.505,-0.260,144.444,50.000,225.000,566.667,13.889,N
416,-0.355,0.640,-0.175,161.111,50.000,250.000,575.000,8.333,N
417,-0.255,0.705,-0.295,152.778,50.000,227.778,555.556,19.444,N
418,-0.400,0.670,-0.245,150.000,47.222,241.667,533.333,22.222,N
419,-0.360,0.690,-0.230,152.778,50.000,252.778,552.778,19.444,N
420,-0.480,0.620,-0.320,116.667,47.222,244.444,477.778,75.000,A
421,-0.505,0.840,-0.220,141.667,52.778,272.222,675.000,197.222,N
422,-0.375,0.700,-0.215,161.111,47.222,244.444,605.556,69.444,N
423,-0.430,0.805,-0.160,158.333,50.000,266.667,566.667,38.889,N
424,-0.375,0.825,-0.175,147.222,47.222,230.556,566.667,0.000,N
425,-0.410,0.700,-0.190,130.556,44.444,222.222,455.556,111.111,A
426,-0.400,0.800,-0.350,155.556,47.222,222.222,619.444,163.889,N
427,-0.600,0.440,-0.615,150.000,47.222,225.000,544.444,75.000,N
428,-0.715,0.750,-0.390,100.000,47.222,241.667,536.111,8.333,N
429,-0.525,0.995,-0.270,161.111,47.222,241.667,533.333,2.778,N
430,-0.315,1.175,0.085,144.444,44.444,261.111,561.111,27.778,N
431,-0.200,1.120,-0.100,175.000,50.000,244.444,588.889,27.778,N
432,-0.280,1.160,0.010,166.667,50.000,261.111,569.444,19.444,N
433,-0.105,1.385,0.115,150.000,50.000,247.222,577.778,8.333,N
434,-0.065,1.215,0.125,130.556,44.444,244.444,547.222,30.556,N
435,-0.110,1.030,0.120,161.111,44.444,244.444,550.000,2.778,N
436,-0.050,1.200,0.155,166.667,50.000,255.556,561.111,11.111,N
437,-0.050,1.225,0.095,163.889,50.000,255.556,563.889,2.778,N
438,-0.060,1.265,0.310,158.333,44.444,241.667,538.889,25.000,N
439,0.200,1.385,0.220,150.000,44.444,208.333,538.889,0.000,N
440,0.065,1.265,0.220,147.222,47.222,255.556,502.778,36.111,N
441,0.055,1.255,0.155,163.889,44.444,258.333,563.889,61.111,N
442,-0.015,1.000,0.085,172.222,50.000,266.667,575.000,11.111,N
443,-0.060,1.160,0.100,161.111,47.222,261.111,572.222,2.778,N
444,-0.035,1.235,0.060,161.111,47.222,291.667,566.667,5.556,N
445,-0.015,1.075,0.040,158.333,47.222,238.889,558.333,8.333,N
446,-0.050,1.165,0.155,172.222,50.000,222.222,569.444,11.111,N
447,-0.030,0.965,0.000,147.222,41.667,236.111,541.667,27.778,N
448,-0.015,1.310,0.275,94.444,44.444,230.556,544.444,2.778,N
449,0.205,1.565,0.380,152.778,44.444,208.333,525.000,19.444,N
450,0.255,1.450,0.385,158.333,47.222,230.556,527.778,2.778,N
451,0.265,1.320,0.335,133.333,47.222,222.222,525.000,2.778,N
452,0.190,1.200,0.120,166.667,50.000,244.444,566.667,41.667,N
453,-0.140,0.865,-0.180,144.444,47.222,230.556,558.333,8.333,N
454,-0.160,0.860,-0.140,197.222,44.444,244.444,566.667,8.333,N
455,-0.310,0.475,-0.365,155.556,44.444,244.444,547.222,19.444,N
456,-0.465,0.735,-0.085,163.889,47.222,238.889,544.444,2.778,N
457,-0.310,0.950,-0.205,136.111,50.000,238.889,533.333,11.111,N
458,-0.390,0.850,-0.160,147.222,44.444,227.778,547.222,13.889,N
459,-0.210,0.905,-0.045,155.556,47.222,238.889,522.222,25.000,N
460,-0.225,0.845,-0.165,125.000,47.222,219.444,536.111,13.889,N
461,-0.275,0.935,-0.140,155.556,44.444,219.444,530.556,5.556,N
462,-0.245,1.010,0.110,155.556,44.444,252.778,516.667,13.889,N
463,0.060,1.215,0.230,147.222,47.222,244.444,544.444,27.778,N
464,0.060,1.265,0.035,141.667,50.000,208.333,536.111,8.333,N
465,-0.120,1.355,0.160,161.111,50.000,269.444,572.222,36.111,N
466,0.090,1.470,0.285,158.333,47.222,247.222,569.444,2.778,N
467,0.195,1.235,0.225,158.333,50.000,238.889,561.111,8.333,N
468,0.020,1.265,0.335,163.889,44.444,225.000,558.333,2.778,N
469,0.195,1.480,0.430,138.889,44.444,238.889,541.667,16.667,N
470,0.215,1.230,0.220,152.778,47.222,241.667,533.333,8.333,N
471,0.080,1.250,0.300,155.556,47.222,230.556,522.222,11.111,N
472,0.220,1.355,0.355,141.667,47.222,197.222,533.333,11.111,N
473,0.225,1.305,0.235,158.333,41.667,244.444,516.667,16.667,N
474,0.170,1.280,0.355,152.778,47.222,236.111,544.444,27.778,N
475,0.145,1.010,0.120,188.889,50.000,238.889,566.667,22.222,N
476,-0.065,1.140,0.260,155.556,47.222,236.111,569.444,2.778,N
477,0.190,1.255,0.170,163.889,47.222,211.111,580.556,11.111,N
478,-0.015,1.135,0.220,152.778,44.444,233.333,536.111,44.444,N
479,0.060,1.305,0.310,152.778,47.222,238.889,547.222,11.111,N
480,0.270,1.355,0.335,133.333,41.667,219.444,533.333,13.889,N
481,0.005,1.225,0.235,169.444,47.222,222.222,530.556,2.778,N
482,0.230,1.730,0.345,197.222,80.556,277.778,397.222,133.333,A
483,0.175,1.595,0.325,166.667,47.222,241.667,569.444,172.222,N
484,0.095,1.245,0.255,177.778,44.444,238.889,530.556,38.889,N
485,0.110,1.390,0.265,169.444,50.000,247.222,569.444,38.889,N
486,0.090,1.095,0.065,172.222,47.222,233.333,555.556,13.889,N
487,-0.125,1.200,0.105,161.111,47.222,227.778,555.556,0.000,N
488,-0.035,1.150,0.075,152.778,47.222,247.222,541.667,13.889,N
489,-0.175,1.105,0.075,150.000,47.222,236.111,566.667,25.000,N
490,-0.075,1.120,0.020,138.889,50.000,258.333,533.333,33.333,N
491,-0.205,1.025,-0.005,155.556,47.222,222.222,550.000,16.667,N
492,-0.200,1.070,0.040,152.778,50.000,244.444,530.556,19.444,N
493,-0.130,1.205,0.055,147.222,47.222,230.556,533.333,2.778,N
494,-0.200,1.000,0.045,152.778,44.444,225.000,522.222,11.111,N
495,-0.170,1.060,0.130,122.222,47.222,211.111,497.222,25.000,N
496,0.090,1.175,-0.125,197.222,41.667,227.778,388.889,108.333,A
497,-0.235,1.025,0.045,141.667,50.000,269.444,583.333,194.444,N
498,0.015,1.145,-0.035,166.667,50.000,225.000,591.667,8.333,N
499,-0.210,0.860,-0.030,172.222,50.000,236.111,591.667,0.000,N
500,-0.265,1.035,0.035,136.111,47.222,222.222,544.444,47.222,N
501,-0.080,1.135,0.075,150.000,50.000,225.000,533.333,11.111,N
502,-0.165,1.000,0.020,163.889,47.222,230.556,530.556,2.778,N
503,-0.265,1.080,-0.055,163.889,47.222,222.222,533.333,2.778,N
504,-0.180,1.065,0.040,161.111,47.222,211.111,530.556,2.778,N
505,-0.130,1.225,0.130,133.333,47.222,219.444,522.222,8.333,N
506,-0.300,0.885,-0.195,144.444,47.222,233.333,508.333,13.889,N
507,-0.355,1.040,0.040,163.889,50.000,211.111,541.667,33.333,N
508,-0.130,1.310,0.120,136.111,47.222,241.667,569.444,27.778,N
509,0.045,1.325,0.095,194.444,41.667,230.556,419.444,150.000,A
510,-0.045,1.375,0.280,100.000,50.000,258.333,577.778,158.333,N
511,0.045,1.095,0.240,169.444,47.222,222.222,569.444,8.333,N
512,0.100,1.385,0.360,125.000,44.444,225.000,541.667,27.778,N
513,0.170,1.145,0.205,127.778,44.444,227.778,550.000,8.333,N
514,-0.075,1.125,0.155,127.778,47.222,230.556,550.000,0.000,N
515,-0.045,1.045,0.025,155.556,44.444,213.889,530.556,19.444,N
516,-0.145,0.995,0.095,130.556,47.222,230.556,536.111,5.556,N
517,-0.170,0.850,-0.040,122.222,36.111,213.889,508.333,27.778,N
518,-0.290,0.990,-0.055,158.333,47.222,238.889,516.667,8.333,N
519,-0.190,1.280,0.145,150.000,50.000,244.444,547.222,30.556,N
520,-0.195,1.000,0.105,158.333,47.222,225.000,569.444,22.222,N
521,-0.120,1.195,0.180,63.889,75.000,272.222,558.333,11.111,N
522,-0.160,1.115,0.185,94.444,47.222,227.778,572.222,13.889,N
523,-0.040,1.200,0.295,197.222,50.000,250.000,550.000,22.222,N
524,-0.140,1.200,0.120,94.444,44.444,230.556,561.111,11.111,N
525,0.080,0.960,0.015,191.667,44.444,216.667,547.222,13.889,N
526,-0.195,0.970,-0.085,150.000,41.667,222.222,544.444,2.778,N
527,-0.290,1.065,0.050,147.222,41.667,219.444,527.778,16.667,N
528,-0.110,0.860,0.055,94.444,36.111,222.222,530.556,2.778,N
529,-0.125,1.020,0.050,141.667,47.222,252.778,563.889,33.333,N
530,-0.060,1.300,0.205,136.111,50.000,258.333,577.778,13.889,N
531,0.095,1.345,0.300,152.778,50.000,241.667,583.333,5.556,N
532,0.110,1.390,0.360,158.333,44.444,233.333,572.222,11.111,N
533,0.245,1.265,0.335,155.556,47.222,222.222,580.556,8.333,N
534,0.100,1.205,0.200,147.222,47.222,238.889,555.556,25.000,N
535,-0.050,1.120,0.050,133.333,44.444,197.222,569.444,13.889,N
536,-0.025,1.255,0.110,147.222,47.222,241.667,552.778,16.667,N
537,0.015,1.020,0.225,100.000,41.667,236.111,469.444,83.333,A
538,0.095,1.120,0.180,136.111,44.444,211.111,644.444,175.000,N
539,0.095,1.200,0.165,169.444,44.444,208.333,538.889,105.556,N
540,0.015,1.130,0.170,163.889,47.222,227.778,563.889,25.000,N
541,0.065,1.300,0.160,158.333,44.444,230.556,577.778,13.889,N
542,-0.005,1.240,0.135,163.889,47.222,250.000,586.111,8.333,N
543,0.030,0.970,0.160,169.444,47.222,247.222,591.667,5.556,N
544,0.005,1.195,0.260,158.333,47.222,258.333,594.444,2.778,N
545,0.100,1.105,0.140,152.778,47.222,238.889,569.444,25.000,N
546,0.010,1.175,0.180,138.889,52.778,244.444,572.222,2.778,N
547,0.020,1.075,0.095,152.778,41.667,216.667,533.333,38.889,N
548,-0.030,1.190,0.210,150.000,44.444,225.000,544.444,11.111,N
549,0.005,0.965,0.110,125.000,44.444,202.778,558.333,13.889,N
550,-0.095,0.970,0.155,147.222,44.444,250.000,538.889,19.444,N
551,0.030,1.185,0.115,166.667,47.222,227.778,583.333,44.444,N
552,-0.035,0.945,0.125,158.333,44.444,247.222,577.778,5.556,N
553,-0.070,1.090,0.115,169.444,52.778,241.667,597.222,19.444,N
554,-0.090,1.020,0.090,161.111,52.778,222.222,569.444,27.778,N
555,-0.030,1.100,0.130,127.778,47.222,216.667,552.778,16.667,N
556,-0.100,1.000,0.015,125.000,47.222,222.222,544.444,8.333,N
557,-0.180,1.025,0.085,152.778,50.000,252.778,544.444,0.000,N
558,0.085,0.985,-0.045,175.000,44.444,233.333,400.000,144.444,A
559,-0.190,0.805,-0.115,158.333,50.000,269.444,658.333,258.333,N
560,-0.055,0.860,-0.025,141.667,36.111,208.333,533.333,125.000,N
561,-0.180,0.845,0.040,163.889,44.444,244.444,536.111,2.778,N
562,-0.075,1.095,0.085,155.556,47.222,219.444,544.444,8.333,N
563,-0.130,1.000,0.125,161.111,50.000,236.111,586.111,41.667,N
564,-0.095,0.795,-0.060,163.889,50.000,244.444,575.000,11.111,N
565,-0.395,0.515,-0.250,158.333,47.222,225.000,563.889,11.111,N
566,-0.500,0.545,-0.265,150.000,50.000,238.889,558.333,5.556,N
567,-0.355,0.540,-0.070,197.222,41.667,227.778,438.889,119.444,A
568,-0.400,0.595,-0.150,133.333,50.000,241.667,652.778,213.889,N
569,-0.250,0.900,0.025,155.556,41.667,200.000,544.444,108.333,N
570,-0.165,0.885,0.240,161.111,44.444,238.889,541.667,2.778,N
571,0.145,1.295,0.470,116.667,41.667,205.556,516.667,25.000,N
572,0.420,1.495,0.165,197.222,41.667,58.333,400.000,116.667,A
573,-0.080,0.925,-0.040,163.889,50.000,261.111,602.778,202.778,N
574,-0.200,1.045,-0.090,113.889,47.222,225.000,597.222,5.556,N
575,-0.140,1.015,-0.005,175.000,50.000,211.111,569.444,27.778,N
576,-0.180,0.870,-0.005,188.889,47.222,208.333,569.444,0.000,N
577,-0.155,0.855,0.040,88.889,38.889,366.667,413.889,155.556,A
578,-0.115,0.730,-0.200,127.778,55.556,258.333,575.000,161.111,N
579,-0.265,0.900,0.045,150.000,83.333,272.222,558.333,16.667,N
580,0.085,0.905,0.935,147.222,63.889,236.111,550.000,8.333,N
581,0.580,1.590,0.635,152.778,80.556,263.889,527.778,22.222,N
582,0.305,0.930,0.170,188.889,63.889,222.222,538.889,11.111,N
583,-0.135,0.850,0.010,166.667,50.000,211.111,536.111,2.778,N
584,-0.400,0.560,-0.110,144.444,47.222,236.111,575.000,38.889,N
585,-0.270,0.740,-0.085,175.000,44.444,241.667,566.667,8.333,N
586,-0.290,0.705,-0.060,155.556,36.111,200.000,483.333,83.333,N
587,-0.300,0.780,-0.045,158.333,55.556,255.556,619.444,136.111,N
588,-0.250,0.825,0.040,169.444,47.222,275.000,555.556,63.889,N
589,0.030,1.010,0.195,175.000,50.000,241.667,563.889,8.333,N
590,0.140,1.105,0.155,152.778,44.444,222.222,552.778,11.111,N
591,0.155,0.855,-0.130,177.778,55.556,241.667,375.000,177.778,A
592,-0.120,0.895,0.050,175.000,41.667,225.000,633.333,258.333,N
593,-0.015,0.860,-0.060,163.889,47.222,205.556,530.556,102.778,N
594,-0.190,0.800,-0.035,113.889,50.000,219.444,513.889,16.667,N
595,-0.145,1.155,-0.015,186.111,61.111,219.444,563.889,50.000,N
596,-0.265,0.860,-0.155,188.889,44.444,227.778,561.111,2.778,N
597,-0.330,0.640,-0.065,169.444,47.222,216.667,588.889,27.778,N
598,-0.150,1.010,0.055,163.889,55.556,272.222,580.556,8.333,N
599,-0.100,0.800,0.020,72.222,52.778,247.222,561.111,19.444,N
600,-0.095,0.690,-0.045,197.222,41.667,225.000,436.111,125.000,A
601,-0.210,0.785,0.000,91.667,47.222,233.333,627.778,191.667,N
602,-0.070,0.865,-0.060,166.667,44.444,208.333,538.889,88.889,N
603,-0.085,0.955,0.075,175.000,44.444,227.778,533.333,5.556,N
604,0.000,0.935,0.055,161.111,36.111,205.556,530.556,2.778,N
605,-0.175,1.125,0.150,130.556,52.778,205.556,550.000,19.444,N
606,-0.140,0.890,0.160,155.556,41.667,252.778,561.111,11.111,N
607,0.105,1.125,0.115,166.667,61.111,205.556,580.556,19.444,N
608,-0.260,0.960,-0.045,141.667,47.222,225.000,547.222,33.333,N
609,-0.165,1.085,0.035,161.111,47.222,230.556,563.889,16.667,N
610,-0.125,0.875,-0.005,133.333,47.222,238.889,538.889,25.000,N
611,-0.180,0.955,-0.010,133.333,47.222,230.556,547.222,8.333,N
612,-0.205,1.025,0.120,111.111,41.667,219.444,444.444,102.778,A
613,0.105,1.280,0.175,152.778,58.333,266.667,622.222,177.778,N
614,0.025,0.850,-0.070,152.778,44.444,238.889,550.000,72.222,N
615,-0.130,0.840,0.155,105.556,66.667,244.444,522.222,27.778,N
616,-0.040,0.945,0.090,163.889,61.111,272.222,541.667,19.444,N
617,-0.065,0.970,0.130,152.778,47.222,222.222,558.333,16.667,N
618,-0.075,0.860,0.020,180.556,52.778,263.889,575.000,16.667,N
619,-0.080,0.940,0.600,113.889,55.556,213.889,583.333,8.333,N
620,0.250,1.160,0.275,138.889,47.222,241.667,552.778,30.556,N
621,0.080,0.825,0.190,144.444,44.444,247.222,577.778,25.000,N
622,0.150,0.765,0.230,177.778,50.000,222.222,566.667,11.111,N
623,-0.145,0.825,0.045,144.444,44.444,230.556,533.333,33.333,N
624,-0.105,0.750,0.070,108.333,77.778,397.222,541.667,8.333,N
625,0.070,0.505,-0.070,100.000,72.222,244.444,441.667,100.000,A
626,-0.295,0.590,-0.090,105.556,72.222,258.333,597.222,155.556,N
627,-0.060,0.755,0.145,108.333,80.556,263.889,555.556,41.667,N
628,0.290,0.630,0.255,169.444,47.222,236.111,577.778,22.222,N
629,0.395,0.710,0.060,172.222,44.444,344.444,583.333,5.556,N
630,0.000,0.545,0.105,122.222,83.333,258.333,572.222,11.111,N
631,-0.090,0.625,-0.040,141.667,44.444,227.778,566.667,5.556,N
632,-0.165,0.695,-0.050,138.889,66.667,261.111,547.222,19.444,N
633,-0.135,0.690,-0.035,147.222,44.444,205.556,538.889,8.333,N
634,-0.085,0.745,0.025,152.778,50.000,244.444,541.667,2.778,N
635,-0.150,0.650,-0.145,158.333,47.222,252.778,555.556,13.889,N
636,-0.280,0.485,-0.100,152.778,55.556,222.222,533.333,22.222,N
637,-0.170,0.635,-0.115,197.222,44.444,225.000,411.111,122.222,A
638,-0.205,0.735,0.060,125.000,47.222,269.444,619.444,208.333,N
639,-0.060,0.755,0.085,183.333,50.000,236.111,561.111,58.333,N
640,-0.100,0.780,0.060,180.556,47.222,216.667,566.667,5.556,N
641,-0.125,0.620,0.035,158.333,47.222,222.222,569.444,2.778,N
642,0.015,0.985,0.075,197.222,50.000,230.556,411.111,158.333,A
643,-0.025,0.765,-0.045,177.778,50.000,236.111,594.444,183.333,N
644,-0.130,0.730,0.080,166.667,50.000,252.778,566.667,27.778,N
645,0.005,0.790,0.005,172.222,52.778,238.889,561.111,5.556,N
646,-0.125,0.930,0.085,155.556,47.222,197.222,530.556,30.556,N
647,-0.195,0.800,0.125,72.222,75.000,238.889,530.556,0.000,N
648,0.030,0.865,0.170,108.333,52.778,227.778,497.222,33.333,N
649,-0.085,0.810,0.035,105.556,61.111,244.444,538.889,41.667,N
650,-0.020,0.975,0.245,158.333,50.000,252.778,544.444,5.556,N
651,0.080,0.965,0.240,158.333,50.000,244.444,594.444,50.000,N
652,0.030,0.890,0.310,138.889,44.444,238.889,552.778,41.667,N
653,0.145,1.045,0.160,130.556,52.778,211.111,563.889,11.111,N
654,-0.050,0.820,0.030,158.333,44.444,230.556,519.444,44.444,N
655,-0.185,0.735,-0.030,130.556,44.444,222.222,461.111,58.333,A
656,-0.200,0.775,-0.005,152.778,44.444,238.889,597.222,136.111,N
657,-0.150,0.815,-0.015,150.000,41.667,219.444,538.889,58.333,N
658,-0.155,0.670,-0.090,141.667,44.444,244.444,536.111,2.778,N
659,-0.210,0.720,-0.070,108.333,38.889,227.778,519.444,16.667,N
660,-0.170,0.800,0.035,197.222,38.889,194.444,433.333,86.111,A
661,-0.095,0.875,0.070,141.667,47.222,233.333,652.778,219.444,N
662,-0.070,0.825,0.050,183.333,47.222,244.444,588.889,63.889,N
663,-0.150,0.895,0.040,133.333,50.000,227.778,566.667,22.222,N
664,-0.060,0.935,0.075,141.667,47.222,227.778,561.111,5.556,N
665,-0.075,0.940,0.110,169.444,50.000,238.889,561.111,0.000,N
666,-0.050,0.795,0.035,186.111,47.222,219.444,583.333,22.222,N
667,-0.145,0.740,-0.005,152.778,47.222,227.778,547.222,36.111,N
668,-0.180,0.790,0.005,111.111,44.444,213.889,511.111,36.111,N
669,-0.145,0.975,0.080,150.000,44.444,222.222,572.222,61.111,N
670,-0.075,0.880,0.010,141.667,41.667,227.778,525.000,47.222,N
671,-0.160,0.850,-0.040,152.778,47.222,236.111,558.333,33.333,N
672,-0.170,0.885,-0.010,163.889,44.444,222.222,580.556,22.222,N
673,-0.185,0.940,0.005,138.889,50.000,241.667,575.000,5.556,N
674,-0.175,0.880,0.025,163.889,44.444,238.889,591.667,16.667,N
675,-0.135,0.990,0.060,138.889,50.000,222.222,588.889,2.778,N
676,-0.115,1.005,0.070,147.222,41.667,208.333,561.111,27.778,N
677,-0.095,1.035,0.090,155.556,44.444,213.889,561.111,0.000,N
678,-0.085,0.925,0.080,161.111,47.222,233.333,552.778,8.333,N
679,-0.170,0.870,0.110,152.778,47.222,222.222,558.333,5.556,N
680,-0.090,0.925,0.060,150.000,47.222,222.222,566.667,8.333,N
681,-0.115,1.025,0.080,161.111,47.222,233.333,561.111,5.556,N
682,-0.090,0.880,0.105,158.333,50.000,238.889,591.667,30.556,N
683,-0.110,0.880,0.020,161.111,50.000,247.222,625.000,33.333,N
684,-0.210,0.890,0.025,97.222,50.000,238.889,597.222,27.778,N
685,-0.165,0.940,0.095,163.889,47.222,233.333,605.556,8.333,N
686,-0.075,1.000,0.080,166.667,47.222,238.889,600.000,5.556,N
687,-0.145,0.865,0.070,158.333,47.222,236.111,591.667,8.333,N
688,0.005,0.850,0.050,194.444,41.667,227.778,436.111,155.556,A
689,-0.050,0.950,0.190,158.333,47.222,252.778,713.889,277.778,N
690,0.040,0.890,0.140,155.556,47.222,213.889,611.111,102.778,N
691,-0.050,0.860,0.100,152.778,47.222,211.111,566.667,44.444,N
692,-0.100,0.830,0.100,155.556,44.444,236.111,602.778,36.111,N
693,-0.085,0.910,0.070,161.111,52.778,255.556,602.778,0.000,N
694,-0.100,0.985,0.090,183.333,50.000,258.333,627.778,25.000,N
695,-0.095,0.880,0.070,163.889,47.222,225.000,633.333,5.556,N
696,-0.125,0.730,0.035,158.333,44.444,230.556,591.667,41.667,N
697,-0.120,0.895,0.100,144.444,50.000,216.667,602.778,11.111,N
698,-0.095,0.925,0.150,197.222,41.667,222.222,452.778,150.000,A
699,-0.010,1.020,0.225,136.111,47.222,222.222,675.000,222.222,N
700,0.010,0.960,0.110,163.889,44.444,211.111,591.667,83.333,N
701,-0.100,0.940,0.085,130.556,47.222,225.000,552.778,38.889,N
702,-0.110,0.960,0.090,144.444,47.222,241.667,616.667,63.889,N
703,-0.095,0.890,0.115,175.000,50.000,252.778,625.000,8.333,N
704,-0.095,0.895,0.120,144.444,41.667,211.111,638.889,13.889,N
705,0.015,0.930,-0.020,197.222,41.667,236.111,422.222,216.667,A
706,-0.020,1.095,-0.050,152.778,63.889,261.111,369.444,52.778,A
707,-0.050,1.095,0.055,150.000,66.667,255.556,366.667,2.778,A
708,0.055,1.080,0.000,155.556,66.667,252.778,363.889,2.778,A
709,0.000,1.160,-0.030,169.444,72.222,258.333,377.778,13.889,A
710,-0.030,1.140,-0.075,166.667,77.778,172.222,372.222,5.556,A
711,-0.085,1.060,-0.010,150.000,52.778,238.889,372.222,0.000,A
712,-0.010,0.950,0.060,163.889,44.444,225.000,372.222,0.000,A
713,0.060,1.025,0.135,163.889,75.000,244.444,366.667,5.556,A
714,0.135,0.825,0.090,177.778,44.444,161.111,366.667,0.000,A
715,0.080,0.910,0.100,183.333,38.889,227.778,361.111,5.556,A
716,0.100,0.775,0.055,158.333,41.667,177.778,366.667,5.556,A
717,0.045,0.810,0.050,183.333,44.444,227.778,388.889,22.222,A
718,0.050,0.920,-0.075,183.333,50.000,191.667,391.667,2.778,A
719,-0.090,0.835,-0.020,183.333,66.667,202.778,394.444,2.778,A
720,-0.020,1.050,-0.100,172.222,80.556,208.333,402.778,8.333,A
721,-0.105,0.895,-0.130,166.667,63.889,258.333,380.556,22.222,A
722,-0.130,1.050,-0.220,166.667,75.000,258.333,383.333,2.778,A
723,-0.220,0.980,-0.095,155.556,63.889,241.667,369.444,13.889,A
724,-0.290,0.700,-0.140,163.889,47.222,250.000,611.111,241.667,N
725,-0.285,0.625,-0.135,169.444,47.222,233.333,608.333,2.778,N
726,-0.260,0.620,-0.110,150.000,44.444,213.889,577.778,30.556,N
727,-0.245,0.640,-0.045,158.333,47.222,216.667,561.111,16.667,N
728,-0.235,0.630,-0.025,172.222,47.222,222.222,544.444,16.667,N
729,-0.245,0.795,-0.065,152.778,50.000,230.556,600.000,55.556,N
730,-0.245,0.735,0.025,136.111,50.000,238.889,633.333,33.333,N
731,-0.125,0.955,-0.075,197.222,47.222,233.333,441.667,191.667,A
732,-0.075,1.170,-0.095,158.333,44.444,230.556,363.889,77.778,A
733,-0.180,0.940,-0.040,161.111,44.444,213.889,602.778,238.889,N
734,-0.155,0.875,-0.040,172.222,50.000,238.889,611.111,8.333,N
735,-0.215,0.945,0.040,138.889,47.222,236.111,602.778,8.333,N
736,-0.155,0.765,0.030,152.778,47.222,219.444,597.222,5.556,N
737,-0.165,0.865,0.060,147.222,47.222,225.000,611.111,13.889,N
738,-0.115,0.865,0.080,158.333,44.444,211.111,611.111,0.000,N
739,-0.170,0.840,0.040,152.778,50.000,241.667,611.111,0.000,N
740,-0.165,0.885,0.035,155.556,50.000,255.556,633.333,22.222,N
741,-0.170,0.915,0.040,158.333,47.222,238.889,666.667,33.333,N
742,-0.180,0.845,0.040,158.333,47.222,236.111,669.444,2.778,N
743,-0.100,0.935,0.115,177.778,47.222,227.778,655.556,13.889,N
744,-0.105,1.045,0.145,138.889,50.000,238.889,658.333,2.778,N
745,-0.130,0.930,0.075,152.778,47.222,238.889,633.333,25.000,N
746,-0.135,0.925,0.030,130.556,44.444,211.111,561.111,72.222,N
747,-0.185,0.790,0.015,150.000,47.222,219.444,675.000,113.889,N
748,-0.170,0.855,0.005,163.889,47.222,227.778,591.667,83.333,N
749,-0.160,1.040,0.100,130.556,44.444,227.778,650.000,58.333,N
750,-0.095,0.970,0.095,175.000,50.000,238.889,661.111,11.111,N
751,-0.135,0.850,0.095,150.000,52.778,244.444,661.111,0.000,N
752,-0.125,0.865,0.085,186.111,47.222,219.444,669.444,8.333,N
753,-0.150,0.945,0.135,172.222,47.222,233.333,619.444,50.000,N
754,-0.105,0.950,0.155,144.444,44.444,222.222,625.000,5.556,N
755,-0.085,1.020,0.125,155.556,47.222,225.000,622.222,2.778,N
756,-0.095,0.900,0.105,169.444,50.000,238.889,633.333,11.111,N
757,-0.075,1.020,0.125,147.222,36.111,205.556,625.000,8.333,N
758,-0.070,1.085,0.155,138.889,50.000,241.667,625.000,0.000,N
759,-0.050,0.950,0.165,161.111,47.222,230.556,655.556,30.556,N
760,-0.085,0.940,0.135,172.222,50.000,236.111,630.556,25.000,N
761,-0.130,1.030,0.150,172.222,47.222,225.000,694.444,63.889,N
762,-0.050,1.080,0.185,133.333,41.667,225.000,647.222,47.222,N
763,-0.050,1.135,0.265,166.667,50.000,241.667,652.778,5.556,N
764,-0.025,1.080,0.190,175.000,47.222,233.333,655.556,2.778,N
765,-0.085,0.835,0.100,158.333,47.222,213.889,652.778,2.778,N
766,-0.165,0.920,0.030,136.111,44.444,205.556,625.000,27.778,N
767,-0.175,0.980,0.110,163.889,44.444,227.778,613.889,11.111,N
768,-0.125,0.970,0.135,163.889,47.222,244.444,650.000,36.111,N
769,-0.120,0.860,0.055,169.444,50.000,244.444,688.889,38.889,N
770,-0.200,0.905,0.050,144.444,47.222,230.556,694.444,5.556,N
771,-0.185,0.900,0.120,138.889,52.778,241.667,661.111,33.333,N
772,-0.070,0.990,0.195,161.111,44.444,227.778,650.000,11.111,N
773,-0.025,1.095,0.170,183.333,44.444,230.556,641.667,8.333,N
774,-0.095,0.975,0.125,166.667,47.222,241.667,633.333,8.333,N
775,-0.125,0.935,0.150,130.556,47.222,213.889,630.556,2.778,N
776,-0.045,1.025,0.180,163.889,47.222,227.778,616.667,13.889,N
777,-0.085,0.995,0.135,175.000,52.778,255.556,661.111,44.444,N
778,-0.105,0.880,0.160,172.222,52.778,241.667,683.333,22.222,N
779,-0.130,0.915,0.095,175.000,52.778,252.778,666.667,16.667,N
780,-0.155,1.010,0.170,138.889,47.222,238.889,644.444,22.222,N
781,-0.090,1.030,0.105,172.222,50.000,250.000,638.889,5.556,N
782,-0.165,0.955,0.065,166.667,47.222,225.000,661.111,22.222,N
783,-0.200,0.860,0.025,177.778,41.667,208.333,527.778,133.333,A
784,-0.180,0.830,0.015,161.111,44.444,222.222,750.000,222.222,N
785,-0.135,0.930,0.050,155.556,44.444,233.333,611.111,138.889,N
786,-0.170,0.940,0.075,186.111,47.222,238.889,666.667,55.556,N
787,-0.160,0.870,0.045,175.000,52.778,255.556,669.444,2.778,N
788,-0.195,0.850,0.035,166.667,50.000,241.667,661.111,8.333,N
789,-0.190,0.825,0.040,175.000,50.000,236.111,672.222,11.111,N
790,-0.185,0.930,0.065,150.000,50.000,244.444,641.667,30.556,N
791,-0.165,0.790,0.050,166.667,47.222,241.667,633.333,8.333,N
792,-0.155,0.835,0.070,166.667,44.444,238.889,650.000,16.667,N
793,-0.110,0.895,0.090,158.333,41.667,211.111,627.778,22.222,N
794,-0.105,1.040,0.180,150.000,38.889,219.444,608.333,19.444,N
795,-0.065,0.970,0.120,175.000,52.778,255.556,655.556,47.222,N
796,-0.140,0.915,0.100,150.000,47.222,238.889,694.444,38.889,N
797,-0.180,0.875,0.040,169.444,47.222,230.556,683.333,11.111,N
798,-0.170,0.915,0.080,163.889,47.222,244.444,644.444,38.889,N
799,-0.170,0.895,0.040,150.000,44.444,236.111,636.111,8.333,N
800,-0.195,0.745,-0.010,166.667,44.444,236.111,652.778,16.667,N
801,-0.235,0.760,-0.030,141.667,44.444,244.444,625.000,27.778,N
802,-0.235,0.920,0.005,138.889,47.222,233.333,630.556,5.556,N
803,-0.180,0.900,0.070,161.111,47.222,216.667,636.111,5.556,N
804,-0.160,0.815,0.090,138.889,44.444,236.111,611.111,25.000,N
805,-0.155,0.885,0.030,163.889,47.222,230.556,658.333,47.222,N
806,-0.190,0.885,0.035,166.667,50.000,238.889,658.333,0.000,N
807,-0.150,0.975,0.055,175.000,50.000,255.556,672.222,13.889,N
808,-0.160,0.990,0.080,133.333,50.000,241.667,661.111,11.111,N
809,-0.135,1.095,0.185,163.889,50.000,258.333,650.000,11.111,N
810,-0.080,0.985,0.085,197.222,44.444,233.333,477.778,172.222,A
811,-0.125,0.910,0.090,152.778,44.444,247.222,730.556,252.778,N
812,-0.175,0.925,0.090,130.556,41.667,211.111,652.778,77.778,N
813,-0.150,0.945,0.140,147.222,47.222,241.667,602.778,50.000,N
814,-0.070,1.080,0.165,169.444,47.222,255.556,638.889,36.111,N
815,-0.070,1.100,0.200,172.222,50.000,261.111,666.667,27.778,N
816,-0.040,1.035,0.110,163.889,47.222,233.333,661.111,5.556,N
817,-0.130,0.975,0.065,169.444,52.778,244.444,655.556,5.556,N
818,-0.205,1.050,0.045,144.444,47.222,236.111,638.889,16.667,N
819,-0.185,0.980,0.080,169.444,47.222,230.556,627.778,11.111,N
820,-0.160,0.985,0.045,144.444,41.667,227.778,508.333,119.444,A
821,-0.205,0.840,0.040,169.444,50.000,250.000,730.556,222.222,N
822,-0.215,0.850,-0.050,127.778,36.111,211.111,636.111,94.444,N
823,-0.250,0.970,0.060,152.778,52.778,247.222,625.000,11.111,N
824,-0.155,0.880,0.030,144.444,47.222,247.222,627.778,2.778,N
825,-0.110,0.960,0.055,163.889,47.222,241.667,666.667,38.889,N
826,-0.195,0.965,0.000,175.000,47.222,255.556,655.556,11.111,N
827,-0.190,1.025,0.115,130.556,41.667,238.889,630.556,25.000,N
828,-0.095,1.090,0.140,158.333,52.778,250.000,641.667,11.111,N
829,-0.110,1.060,0.170,175.000,47.222,238.889,633.333,8.333,N
830,-0.120,1.000,0.120,138.889,47.222,225.000,644.444,11.111,N
831,-0.110,1.045,0.135,158.333,44.444,225.000,627.778,16.667,N
832,-0.055,1.105,0.220,147.222,47.222,247.222,602.778,25.000,N
833,-0.025,1.050,0.190,175.000,52.778,252.778,658.333,55.556,N
834,-0.075,0.955,0.110,161.111,55.556,272.222,686.111,27.778,N
835,-0.135,1.005,0.145,122.222,44.444,252.778,683.333,2.778,N
836,-0.080,1.070,0.130,161.111,50.000,225.000,658.333,25.000,N
837,-0.075,1.050,0.145,133.333,44.444,241.667,633.333,25.000,N
838,-0.120,0.960,0.090,161.111,44.444,213.889,627.778,5.556,N
839,-0.115,1.020,0.125,172.222,47.222,236.111,613.889,13.889,N
840,-0.130,1.130,0.075,136.111,41.667,230.556,533.333,80.556,N
841,-0.190,0.960,0.090,141.667,47.222,250.000,666.667,133.333,N
842,-0.130,0.915,0.040,158.333,50.000,255.556,633.333,33.333,N
843,-0.160,0.905,0.025,175.000,47.222,238.889,650.000,16.667,N
844,-0.175,0.935,0.030,172.222,55.556,255.556,633.333,16.667,N
845,-0.130,1.030,0.090,158.333,47.222,252.778,633.333,0.000,N
846,-0.150,0.960,0.080,133.333,44.444,238.889,625.000,8.333,N
847,-0.125,0.935,0.200,172.222,47.222,255.556,655.556,30.556,N
848,-0.105,1.150,0.050,197.222,50.000,238.889,469.444,186.111,A
849,0.050,1.490,-0.055,180.556,77.778,277.778,391.667,77.778,A
850,-0.210,1.055,0.010,147.222,47.222,238.889,569.444,177.778,N
851,-0.165,1.040,0.025,136.111,44.444,238.889,750.000,180.556,N
852,-0.155,0.975,0.100,163.889,47.222,241.667,666.667,83.333,N
853,-0.105,1.035,0.155,152.778,50.000,258.333,669.444,2.778,N
854,-0.105,0.915,0.060,166.667,47.222,252.778,650.000,19.444,N
855,-0.165,0.925,0.075,175.000,47.222,227.778,658.333,8.333,N
856,-0.125,1.075,0.120,161.111,52.778,255.556,630.556,27.778,N
857,-0.110,0.955,0.140,147.222,47.222,238.889,625.000,5.556,N
858,-0.155,0.965,0.065,166.667,47.222,236.111,619.444,5.556,N
859,-0.130,1.020,0.070,141.667,47.222,238.889,602.778,16.667,N
860,-0.070,1.025,0.140,158.333,44.444,219.444,602.778,0.000,N
861,-0.095,0.910,0.115,136.111,44.444,241.667,538.889,63.889,A
862,-0.200,0.950,0.075,152.778,50.000,252.778,711.111,172.222,N
863,-0.185,1.010,0.085,152.778,66.667,283.333,663.889,47.222,N
864,-0.065,1.090,0.210,166.667,47.222,241.667,647.222,16.667,N
865,-0.005,1.065,0.240,155.556,44.444,230.556,638.889,8.333,N
866,-0.045,1.040,0.170,141.667,47.222,255.556,566.667,72.222,A
867,-0.120,1.005,0.110,125.000,44.444,227.778,702.778,136.111,N
868,-0.080,0.985,0.125,169.444,47.222,225.000,641.667,61.111,N
869,-0.085,1.015,0.125,158.333,44.444,236.111,636.111,5.556,N
870,-0.090,0.905,0.100,158.333,47.222,230.556,622.222,13.889,N
871,-0.225,0.790,-0.050,155.556,44.444,244.444,497.222,125.000,A
872,-0.260,0.965,0.060,108.333,47.222,263.889,786.111,288.889,N
873,-0.190,0.995,-0.070,169.444,50.000,227.778,658.333,127.778,N
874,-0.245,1.060,0.015,177.778,50.000,269.444,672.222,13.889,N
875,-0.200,0.960,0.020,161.111,52.778,238.889,650.000,22.222,N
876,-0.185,1.080,0.070,155.556,47.222,255.556,633.333,16.667,N
877,-0.160,0.820,-0.050,158.333,44.444,225.000,619.444,13.889,N
878,-0.235,0.830,-0.025,163.889,44.444,250.000,622.222,2.778,N
879,-0.190,0.895,-0.045,177.778,38.889,230.556,616.667,5.556,N
880,-0.300,0.605,-0.100,138.889,41.667,247.222,611.111,5.556,N
881,-0.365,0.735,-0.100,147.222,50.000,241.667,655.556,44.444,N
882,-0.295,0.900,-0.050,183.333,52.778,275.000,669.444,13.889,N
883,-0.250,0.970,-0.040,172.222,50.000,227.778,669.444,0.000,N
884,-0.245,0.950,0.010,166.667,47.222,230.556,627.778,41.667,N
885,-0.200,0.810,-0.005,161.111,44.444,244.444,630.556,2.778,N
886,-0.205,1.000,0.080,136.111,47.222,236.111,627.778,2.778,N
887,-0.155,0.865,0.050,158.333,44.444,252.778,630.556,2.778,N
888,-0.145,0.970,0.060,163.889,44.444,241.667,647.222,16.667,N
889,-0.155,0.905,0.055,155.556,50.000,255.556,622.222,25.000,N
890,-0.190,0.945,0.090,188.889,44.444,258.333,658.333,36.111,N
891,-0.165,0.930,0.105,158.333,47.222,244.444,663.889,5.556,N
892,-0.145,0.980,0.075,177.778,47.222,263.889,666.667,2.778,N
893,-0.140,0.905,0.120,127.778,47.222,233.333,666.667,0.000,N
894,-0.110,0.990,0.145,155.556,47.222,250.000,652.778,13.889,N
895,-0.125,1.055,0.070,177.778,47.222,227.778,650.000,2.778,N
896,-0.125,1.085,0.105,177.778,41.667,227.778,647.222,2.778,N
897,-0.110,0.910,0.070,166.667,41.667,227.778,633.333,13.889,N
898,-0.180,0.910,0.010,155.556,44.444,236.111,597.222,36.111,N
899,-0.205,0.900,-0.025,150.000,47.222,244.444,638.889,41.667,N
900,-0.225,0.925,-0.010,150.000,52.778,266.667,686.111,47.222,N
901,-0.240,0.965,0.005,155.556,50.000,258.333,677.778,8.333,N
902,-0.200,0.935,0.010,172.222,47.222,258.333,650.000,27.778,N
903,-0.215,0.960,-0.030,183.333,47.222,238.889,644.444,5.556,N
904,-0.230,0.920,-0.005,152.778,47.222,247.222,641.667,2.778,N
905,-0.245,1.000,-0.030,152.778,47.222,241.667,575.000,66.667,N
906,-0.250,1.070,0.000,144.444,44.444,244.444,661.111,86.111,N
907,-0.195,1.000,-0.005,155.556,36.111,230.556,625.000,36.111,N
908,-0.190,0.945,0.070,141.667,50.000,247.222,622.222,2.778,N
909,-0.165,0.860,0.055,163.889,44.444,238.889,655.556,33.333,N
910,-0.170,0.980,0.025,144.444,50.000,250.000,661.111,5.556,N
911,-0.195,1.060,0.050,172.222,47.222,244.444,655.556,5.556,N
912,-0.215,0.995,0.080,163.889,47.222,233.333,630.556,25.000,N
913,-0.145,1.115,0.105,141.667,50.000,252.778,644.444,13.889,N
914,-0.115,1.130,0.105,169.444,47.222,238.889,647.222,2.778,N
915,-0.130,1.075,0.160,166.667,44.444,244.444,625.000,22.222,N
916,-0.105,1.030,0.145,158.333,41.667,230.556,616.667,8.333,N
917,-0.040,1.235,0.210,161.111,50.000,252.778,594.444,22.222,N
918,-0.030,1.185,0.225,152.778,50.000,272.222,647.222,52.778,N
919,-0.030,1.155,0.145,141.667,44.444,238.889,600.000,47.222,A
920,-0.065,1.020,0.155,141.667,52.778,252.778,738.889,138.889,N
921,-0.105,1.175,0.110,147.222,47.222,258.333,672.222,66.667,N
922,-0.090,1.085,0.160,163.889,44.444,244.444,663.889,8.333,N
923,-0.065,1.090,0.130,175.000,47.222,219.444,647.222,16.667,N
924,0.090,1.340,0.340,188.889,41.667,372.222,413.889,233.333,A
925,-0.025,1.455,-0.015,144.444,72.222,255.556,358.333,55.556,A
926,-0.015,1.175,-0.045,186.111,69.444,255.556,388.889,30.556,A
927,-0.050,1.165,-0.085,197.222,47.222,225.000,433.333,44.444,A
928,-0.150,1.245,0.125,186.111,50.000,258.333,550.000,116.667,A
929,-0.105,1.370,0.115,36.111,44.444,250.000,469.444,80.556,A
930,0.115,1.580,0.125,161.111,58.333,272.222,391.667,77.778,A
931,0.125,1.455,0.080,163.889,63.889,258.333,402.778,11.111,A
932,0.080,1.305,0.100,172.222,69.444,258.333,388.889,13.889,A
933,0.100,1.290,0.030,180.556,75.000,291.667,391.667,2.778,A
934,0.030,1.035,0.080,155.556,72.222,247.222,394.444,2.778,A
935,0.080,1.120,-0.020,172.222,77.778,286.111,369.444,25.000,A
936,-0.020,1.055,0.045,155.556,83.333,263.889,388.889,19.444,A
937,0.045,1.115,-0.105,147.222,61.111,250.000,366.667,22.222,A
938,-0.105,0.995,0.160,161.111,83.333,275.000,383.333,16.667,A
939,0.160,1.080,-0.055,163.889,55.556,241.667,380.556,2.778,A
940,-0.055,1.165,0.100,161.111,75.000,269.444,375.000,5.556,A
941,0.100,1.115,-0.045,169.444,52.778,238.889,386.111,11.111,A
942,-0.045,1.080,0.825,169.444,66.667,394.444,377.778,8.333,A
943,-0.040,1.265,-0.060,155.556,66.667,261.111,352.778,25.000,A
944,-0.060,1.045,-0.130,161.111,63.889,272.222,380.556,27.778,A
945,-0.130,1.160,-0.090,147.222,75.000,275.000,377.778,2.778,A
946,-0.090,1.170,0.020,158.333,69.444,261.111,380.556,2.778,A
947,0.020,1.225,-0.060,177.778,80.556,261.111,391.667,11.111,A
948,-0.060,1.145,0.110,191.667,61.111,258.333,394.444,2.778,A
949,0.110,1.125,0.070,172.222,72.222,277.778,391.667,2.778,A
950,0.070,1.270,0.095,172.222,63.889,252.778,402.778,11.111,A
951,0.095,1.260,-0.020,166.667,77.778,272.222,377.778,25.000,A
952,-0.020,1.065,-0.005,169.444,52.778,241.667,386.111,8.333,A
953,-0.005,1.205,0.100,166.667,63.889,388.889,380.556,5.556,A
954,-0.130,1.035,0.015,141.667,75.000,255.556,361.111,19.444,A
955,0.015,1.215,-0.065,161.111,77.778,402.778,366.667,5.556,A
956,-0.130,1.215,0.505,138.889,72.222,400.000,363.889,2.778,A
957,-0.070,1.285,0.010,163.889,58.333,383.333,355.556,8.333,A
958,-0.090,1.185,1.355,125.000,69.444,388.889,361.111,5.556,A
959,-0.025,1.190,-0.025,147.222,75.000,261.111,336.111,25.000,A
960,-0.025,1.230,0.135,169.444,72.222,263.889,375.000,38.889,A
961,0.135,1.155,0.120,169.444,80.556,272.222,383.333,8.333,A
962,0.120,1.220,0.145,175.000,80.556,283.333,388.889,5.556,A
963,0.145,1.255,0.005,175.000,77.778,280.556,400.000,11.111,A
964,0.005,1.035,0.030,163.889,80.556,275.000,388.889,11.111,A
965,0.030,1.190,-0.100,163.889,80.556,277.778,383.333,5.556,A
966,-0.100,1.160,-0.005,163.889,77.778,255.556,386.111,2.778,A
967,-0.005,1.215,-0.040,163.889,75.000,272.222,366.667,19.444,A
968,-0.040,1.215,-0.005,147.222,63.889,258.333,366.667,0.000,A
969,-0.005,1.395,-0.005,155.556,63.889,255.556,372.222,5.556,A
970,-0.005,1.325,0.045,161.111,72.222,255.556,372.222,0.000,A
971,0.045,1.335,0.050,163.889,66.667,252.778,372.222,0.000,A
972,0.050,1.175,0.170,161.111,83.333,269.444,369.444,2.778,A
973,0.170,1.190,0.165,150.000,55.556,238.889,361.111,8.333,A
974,0.165,1.170,0.465,155.556,72.222,397.222,361.111,0.000,A
975,0.215,1.125,0.105,163.889,72.222,255.556,355.556,5.556,A
976,0.105,1.160,0.155,163.889,72.222,266.667,369.444,13.889,A
977,0.155,1.180,0.055,169.444,63.889,275.000,386.111,16.667,A
978,0.055,1.155,0.085,158.333,72.222,258.333,391.667,5.556,A
979,0.085,1.340,-0.030,175.000,58.333,275.000,383.333,8.333,A
980,-0.030,1.320,0.035,155.556,80.556,266.667,394.444,11.111,A
981,0.035,1.350,-0.035,161.111,69.444,255.556,369.444,25.000,A
982,-0.035,1.155,0.115,172.222,77.778,266.667,380.556,11.111,A
983,0.115,1.100,0.120,166.667,44.444,225.000,377.778,2.778,A
984,0.120,1.195,0.205,172.222,61.111,213.889,377.778,0.000,A
985,0.170,1.150,0.100,175.000,44.444,225.000,386.111,8.333,A
986,0.100,0.980,0.130,166.667,44.444,208.333,369.444,16.667,A
987,0.130,0.985,0.070,175.000,69.444,244.444,369.444,0.000,A
988,0.070,0.985,0.100,172.222,75.000,250.000,369.444,0.000,A
989,0.100,1.035,0.205,177.778,38.889,366.667,375.000,5.556,A
990,0.010,1.010,0.930,166.667,44.444,369.444,355.556,19.444,A
991,-0.080,1.140,-0.040,166.667,47.222,227.778,350.000,5.556,A
992,-0.040,1.125,-0.010,172.222,75.000,208.333,375.000,25.000,A
993,-0.020,1.310,-0.105,175.000,50.000,180.556,391.667,16.667,A
994,-0.105,1.120,-0.055,166.667,80.556,280.556,400.000,8.333,A
995,-0.055,1.215,-0.020,163.889,47.222,238.889,386.111,13.889,A
996,-0.020,1.065,0.115,191.667,72.222,269.444,405.556,19.444,A
997,-0.040,1.040,-0.060,175.000,44.444,225.000,527.778,122.222,A
998,-0.135,1.025,0.000,177.778,47.222,266.667,608.333,80.556,N
999,-0.105,0.965,0.095,136.111,47.222,238.889,591.667,16.667,N
1000,-0.070,1.025,0.140,141.667,47.222,230.556,608.333,16.667,N
1001,-0.085,1.045,0.125,158.333,47.222,227.778,583.333,25.000,N
1002,-0.100,1.055,0.095,163.889,47.222,219.444,611.111,27.778,N
1003,-0.100,1.005,0.080,172.222,50.000,236.111,619.444,8.333,N
1004,-0.180,0.970,-0.005,166.667,47.222,236.111,661.111,41.667,N
1005,-0.135,1.150,0.065,133.333,44.444,238.889,683.333,22.222,N
1006,-0.100,1.155,0.135,150.000,47.222,241.667,683.333,0.000,N
1007,-0.050,1.045,0.070,172.222,50.000,225.000,688.889,5.556,N
1008,-0.165,0.960,0.060,150.000,44.444,222.222,694.444,5.556,N
1009,-0.205,1.005,0.060,155.556,47.222,236.111,658.333,36.111,N
1010,-0.200,0.910,0.080,158.333,44.444,208.333,658.333,0.000,N
1011,-0.115,1.110,0.245,161.111,44.444,213.889,630.556,27.778,N
1012,0.050,1.200,0.295,97.222,50.000,227.778,600.000,30.556,N
1013,0.060,1.120,0.305,197.222,44.444,213.889,480.556,119.444,A
1014,-0.090,1.265,0.145,144.444,52.778,250.000,783.333,302.778,N
1015,-0.110,1.015,0.060,172.222,44.444,216.667,677.778,105.556,N
1016,-0.190,1.005,0.035,166.667,44.444,238.889,663.889,13.889,N
1017,-0.225,0.825,-0.020,136.111,50.000,225.000,619.444,44.444,N
1018,-0.225,0.910,0.115,163.889,47.222,225.000,627.778,8.333,N
1019,-0.105,1.145,0.180,141.667,50.000,208.333,608.333,19.444,N
1020,-0.075,1.005,0.195,177.778,47.222,225.000,611.111,2.778,N
1021,-0.105,1.040,0.205,130.556,41.667,211.111,611.111,0.000,N
1022,-0.055,1.185,0.015,197.222,72.222,241.667,430.556,180.556,A
1023,0.015,1.385,-0.040,183.333,44.444,213.889,372.222,58.333,A
1024,-0.045,1.290,-0.040,191.667,47.222,233.333,394.444,22.222,A
1025,-0.040,1.265,-0.095,177.778,52.778,241.667,383.333,11.111,A
1026,-0.095,1.405,0.000,166.667,80.556,258.333,375.000,8.333,A
1027,0.000,1.175,0.045,175.000,72.222,258.333,388.889,13.889,A
1028,0.045,1.165,0.110,177.778,69.444,219.444,386.111,2.778,A
1029,0.105,1.105,0.130,177.778,44.444,175.000,383.333,2.778,A
1030,0.100,1.040,0.200,197.222,55.556,205.556,383.333,0.000,A
1031,0.160,0.945,0.075,188.889,75.000,208.333,383.333,0.000,A
1032,0.015,1.050,0.005,197.222,77.778,255.556,388.889,5.556,A
1033,0.005,0.985,-0.060,180.556,44.444,208.333,380.556,8.333,A
1034,-0.060,1.000,-0.160,194.444,50.000,169.444,380.556,0.000,A
1035,-0.180,0.965,-0.195,191.667,61.111,175.000,388.889,8.333,A
1036,-0.200,1.290,-0.105,186.111,77.778,405.556,372.222,16.667,A
1037,-0.200,1.095,-0.090,191.667,44.444,225.000,361.111,11.111,A
1038,-0.090,1.370,-0.100,180.556,77.778,275.000,383.333,22.222,A
1039,-0.100,1.410,-0.075,169.444,61.111,244.444,386.111,2.778,A
1040,-0.075,1.355,-0.090,183.333,72.222,280.556,388.889,2.778,A
1041,-0.090,1.245,-0.095,161.111,77.778,272.222,391.667,2.778,A
1042,-0.095,1.220,-0.030,158.333,72.222,275.000,377.778,13.889,A
1043,-0.030,1.300,-0.085,169.444,80.556,269.444,394.444,16.667,A
1044,-0.085,1.065,-0.065,163.889,63.889,225.000,380.556,13.889,A
1045,-0.065,0.985,-0.045,180.556,44.444,222.222,366.667,13.889,A
1046,-0.045,1.035,-0.060,188.889,66.667,241.667,388.889,22.222,A
1047,-0.060,0.970,-0.145,175.000,80.556,247.222,372.222,16.667,A
1048,-0.145,1.195,-0.030,188.889,55.556,227.778,377.778,5.556,A
1049,-0.030,1.105,0.040,175.000,77.778,402.778,369.444,8.333,A
1050,-0.150,1.240,-0.145,169.444,50.000,194.444,361.111,8.333,A
1051,-0.160,1.340,0.285,188.889,69.444,397.222,369.444,8.333,A
1052,-0.175,1.355,1.430,147.222,77.778,397.222,358.333,11.111,A
1053,-0.060,1.335,-0.100,166.667,77.778,255.556,336.111,22.222,A
1054,-0.100,1.165,-0.085,169.444,69.444,255.556,375.000,38.889,A
1055,-0.085,1.095,-0.095,172.222,66.667,250.000,380.556,5.556,A
1056,-0.095,1.075,-0.030,177.778,77.778,263.889,386.111,5.556,A
1057,-0.030,1.175,-0.090,188.889,72.222,258.333,400.000,13.889,A
1058,-0.090,1.220,-0.035,175.000,58.333,233.333,383.333,16.667,A
1059,-0.035,1.170,-0.005,188.889,72.222,272.222,386.111,2.778,A
1060,-0.005,1.285,0.365,169.444,80.556,405.556,391.667,5.556,A
1061,-0.035,1.365,0.390,169.444,55.556,383.333,358.333,33.333,A
1062,-0.080,1.370,-0.040,150.000,66.667,244.444,358.333,0.000,A
1063,-0.040,1.335,-0.075,163.889,77.778,263.889,363.889,5.556,A
1064,-0.075,1.175,-0.050,161.111,75.000,255.556,366.667,2.778,A
1065,-0.050,1.025,-0.110,169.444,69.444,250.000,372.222,5.556,A
1066,-0.110,0.940,0.170,166.667,80.556,405.556,369.444,2.778,A
1067,-0.055,1.065,0.155,166.667,58.333,383.333,358.333,11.111,A
1068,-0.040,1.195,1.315,172.222,58.333,380.556,361.111,2.778,A
1069,0.000,1.115,0.475,147.222,80.556,405.556,338.889,22.222,A
1070,0.015,1.225,-0.035,161.111,72.222,244.444,355.556,16.667,A
1071,-0.040,1.305,-0.075,197.222,77.778,255.556,394.444,38.889,A
1072,-0.075,1.430,-0.090,172.222,80.556,258.333,372.222,22.222,A
1073,-0.090,1.160,-0.035,183.333,69.444,255.556,383.333,11.111,A
1074,-0.035,1.020,-0.085,180.556,80.556,255.556,397.222,13.889,A
1075,-0.085,0.830,-0.145,175.000,63.889,247.222,375.000,22.222,A
1076,-0.145,1.065,-0.140,180.556,72.222,252.778,386.111,11.111,A
1077,-0.140,0.945,-0.160,180.556,72.222,261.111,383.333,2.778,A
1078,-0.160,1.065,-0.095,169.444,83.333,280.556,383.333,0.000,A
1079,-0.095,1.085,-0.040,172.222,47.222,236.111,394.444,11.111,A
1080,-0.160,1.205,0.090,147.222,44.444,216.667,488.889,94.444,N
1081,-0.015,1.210,0.170,155.556,47.222,225.000,544.444,55.556,N
1082,-0.080,1.035,0.135,175.000,47.222,208.333,541.667,2.778,N
1083,-0.130,1.075,0.055,130.556,44.444,208.333,519.444,22.222,N
1084,-0.195,0.955,0.030,155.556,47.222,238.889,555.556,36.111,N
1085,-0.275,0.945,-0.010,163.889,50.000,233.333,608.333,52.778,N
1086,-0.295,0.955,0.070,97.222,50.000,238.889,633.333,25.000,N
1087,-0.145,1.135,0.190,161.111,50.000,222.222,677.778,44.444,N
1088,-0.075,1.155,0.205,155.556,50.000,222.222,663.889,13.889,N
1089,-0.070,1.120,0.120,169.444,50.000,225.000,683.333,19.444,N
1090,-0.135,1.145,0.125,161.111,44.444,216.667,705.556,22.222,N
1091,-0.075,1.090,0.160,163.889,47.222,233.333,686.111,19.444,N
1092,-0.060,0.940,0.150,155.556,38.889,194.444,680.556,5.556,N
1093,-0.150,1.105,0.080,163.889,47.222,216.667,686.111,5.556,N
1094,-0.190,0.955,0.050,169.444,52.778,244.444,694.444,8.333,N
1095,-0.190,0.980,0.070,169.444,50.000,227.778,697.222,2.778,N
1096,-0.165,0.945,0.075,172.222,47.222,219.444,686.111,11.111,N
1097,-0.160,0.970,0.045,166.667,50.000,244.444,677.778,8.333,N
1098,-0.210,0.960,0.030,158.333,44.444,216.667,661.111,16.667,N
1099,-0.195,1.130,0.095,158.333,52.778,222.222,630.556,30.556,N
1100,-0.090,1.030,0.165,152.778,44.444,222.222,611.111,19.444,N
1101,-0.100,1.010,0.100,158.333,44.444,188.889,627.778,16.667,N
1102,-0.135,0.980,0.140,166.667,50.000,225.000,605.556,22.222,N
1103,-0.140,0.885,0.100,158.333,44.444,227.778,641.667,36.111,N
1104,-0.180,1.055,0.115,169.444,50.000,225.000,661.111,19.444,N
1105,-0.135,1.105,0.140,183.333,44.444,225.000,483.333,177.778,A
1106,-0.120,1.120,0.110,158.333,47.222,213.889,777.778,294.444,N
1107,-0.095,0.990,0.170,161.111,44.444,208.333,630.556,147.222,N
1108,-0.075,1.065,0.185,163.889,44.444,211.111,619.444,11.111,N
1109,-0.095,1.015,0.130,166.667,47.222,222.222,605.556,13.889,N
1110,-0.100,1.190,0.180,161.111,47.222,213.889,608.333,2.778,N
1111,-0.070,1.085,0.175,138.889,44.444,213.889,597.222,11.111,N
1112,-0.090,1.005,0.225,169.444,47.222,222.222,627.778,30.556,N
1113,-0.075,1.055,0.155,172.222,47.222,222.222,650.000,22.222,N
1114,-0.160,1.095,0.150,177.778,50.000,233.333,627.778,22.222,N
1115,-0.090,1.175,0.190,141.667,50.000,236.111,627.778,0.000,N
1116,-0.045,1.050,0.235,158.333,44.444,213.889,633.333,5.556,N
1117,-0.010,1.090,0.280,163.889,47.222,225.000,608.333,25.000,N
1118,0.040,1.130,0.325,141.667,44.444,230.556,625.000,16.667,N
1119,0.030,1.145,0.305,130.556,44.444,225.000,508.333,116.667,A
1120,0.030,1.185,0.310,144.444,41.667,213.889,694.444,186.111,N
1121,0.050,1.105,0.290,155.556,47.222,222.222,594.444,100.000,N
1122,0.015,1.215,0.330,152.778,44.444,236.111,616.667,22.222,N
1123,0.055,1.200,0.360,169.444,47.222,225.000,647.222,30.556,N
1124,0.065,1.210,0.360,183.333,50.000,233.333,597.222,50.000,N
1125,0.190,1.185,0.660,161.111,61.111,227.778,697.222,100.000,N
1126,0.505,1.380,0.590,133.333,75.000,277.778,613.889,83.333,N
1127,0.165,1.200,0.260,152.778,44.444,208.333,608.333,5.556,N
1128,-0.030,1.015,0.170,152.778,47.222,208.333,602.778,5.556,N
1129,-0.160,1.045,0.210,86.111,44.444,197.222,469.444,133.333,A
1130,-0.070,1.325,0.265,150.000,44.444,205.556,677.778,208.333,N
1131,0.055,1.325,0.355,172.222,44.444,230.556,613.889,63.889,N
1132,0.105,1.280,0.395,172.222,52.778,241.667,661.111,47.222,N
1133,0.115,1.110,0.345,161.111,44.444,213.889,669.444,8.333,N
1134,0.040,1.010,0.250,172.222,52.778,227.778,647.222,22.222,N
1135,-0.015,1.095,0.245,166.667,44.444,213.889,633.333,13.889,N
1136,-0.055,1.175,0.240,155.556,50.000,247.222,616.667,16.667,N
1137,-0.085,1.050,0.155,186.111,47.222,222.222,627.778,11.111,N
1138,-0.120,0.935,0.150,158.333,47.222,222.222,622.222,5.556,N
1139,-0.095,1.040,0.185,163.889,47.222,241.667,605.556,16.667,N
1140,-0.070,1.060,0.180,155.556,50.000,225.000,591.667,13.889,N
1141,-0.090,1.070,0.160,155.556,52.778,225.000,619.444,27.778,N
1142,-0.100,1.095,0.315,194.444,47.222,238.889,650.000,30.556,N
1143,0.045,1.235,0.335,144.444,50.000,222.222,597.222,52.778,N
1144,0.045,1.230,0.305,150.000,55.556,261.111,694.444,97.222,N
1145,-0.060,1.120,0.240,177.778,47.222,225.000,630.556,63.889,N
1146,-0.100,1.120,0.180,158.333,50.000,219.444,647.222,16.667,N
1147,-0.055,1.160,0.215,158.333,47.222,233.333,605.556,41.667,N
1148,-0.035,1.165,0.200,175.000,44.444,205.556,508.333,97.222,A
1149,-0.090,1.055,0.205,141.667,47.222,219.444,686.111,177.778,N
1150,-0.030,1.140,0.140,194.444,47.222,213.889,605.556,80.556,N
1151,-0.025,1.150,0.260,150.000,47.222,241.667,652.778,47.222,N
1152,0.000,1.285,0.240,172.222,50.000,222.222,641.667,11.111,N
1153,-0.030,1.080,0.185,136.111,47.222,227.778,536.111,105.556,A
1154,-0.050,1.195,0.315,144.444,47.222,236.111,716.667,180.556,N
1155,0.105,1.260,0.175,161.111,41.667,211.111,616.667,100.000,N
1156,-0.060,1.015,0.150,163.889,47.222,211.111,636.111,19.444,N
1157,-0.140,0.930,0.095,144.444,44.444,230.556,613.889,22.222,N
1158,-0.100,0.970,0.190,180.556,44.444,225.000,619.444,5.556,N
1159,-0.020,0.840,0.190,122.222,41.667,219.444,594.444,25.000,N
1160,-0.100,0.900,0.180,100.000,47.222,241.667,591.667,2.778,N
1161,-0.030,1.055,0.245,175.000,50.000,244.444,627.778,36.111,N
1162,0.075,1.050,0.190,158.333,47.222,238.889,613.889,13.889,N
1163,-0.025,0.985,0.195,141.667,47.222,236.111,619.444,5.556,N
1164,-0.105,0.915,0.110,194.444,44.444,225.000,619.444,0.000,N
1165,-0.105,0.950,0.075,161.111,41.667,208.333,616.667,2.778,N
1166,-0.140,0.905,0.135,183.333,47.222,236.111,594.444,22.222,N
1167,-0.125,0.965,0.055,147.222,41.667,205.556,591.667,2.778,N
1168,-0.205,0.885,0.015,161.111,44.444,230.556,591.667,0.000,N
1169,-0.225,0.775,0.005,141.667,41.667,225.000,572.222,19.444,N
1170,-0.250,0.790,-0.005,155.556,47.222,225.000,608.333,36.111,N
1171,-0.180,0.865,0.065,175.000,47.222,247.222,625.000,16.667,N
1172,-0.190,0.935,0.055,188.889,50.000,241.667,641.667,16.667,N
1173,-0.175,0.850,0.070,188.889,52.778,238.889,655.556,13.889,N
1174,-0.175,0.750,0.075,161.111,44.444,227.778,619.444,36.111,N
1175,-0.115,0.980,0.125,158.333,47.222,225.000,613.889,5.556,N
1176,-0.090,1.115,0.155,175.000,44.444,233.333,600.000,13.889,N
1177,-0.050,1.005,0.160,158.333,44.444,216.667,616.667,16.667,N
1178,-0.070,0.980,0.120,163.889,47.222,225.000,625.000,8.333,N
1179,-0.110,0.885,0.085,150.000,47.222,225.000,586.111,38.889,N
1180,-0.115,0.875,0.090,163.889,50.000,227.778,630.556,44.444,N
1181,-0.110,0.960,0.095,136.111,50.000,252.778,588.889,41.667,N
1182,-0.150,0.965,0.105,169.444,50.000,238.889,683.333,94.444,N
1183,-0.135,0.910,0.060,175.000,44.444,213.889,641.667,41.667,N
1184,-0.175,0.965,0.090,186.111,50.000,241.667,608.333,33.333,N
1185,-0.055,1.085,0.160,147.222,44.444,241.667,627.778,19.444,N
1186,-0.050,0.930,0.175,166.667,44.444,225.000,619.444,8.333,N
1187,-0.045,1.025,0.185,166.667,47.222,227.778,600.000,19.444,N
1188,-0.030,0.970,0.155,136.111,47.222,202.778,605.556,5.556,N
1189,-0.075,1.010,0.165,152.778,47.222,238.889,580.556,25.000,N
1190,0.020,1.175,0.210,166.667,50.000,258.333,633.333,52.778,N
1191,-0.025,1.055,0.160,175.000,50.000,252.778,658.333,25.000,N
1192,-0.090,0.950,0.100,147.222,47.222,241.667,655.556,2.778,N
1193,-0.095,0.930,0.085,166.667,50.000,225.000,638.889,16.667,N
1194,-0.060,0.935,0.155,158.333,44.444,236.111,602.778,36.111,N
1195,-0.055,0.970,0.125,136.111,47.222,225.000,611.111,8.333,N
1196,-0.055,0.870,0.150,152.778,44.444,233.333,619.444,8.333,N
1197,-0.080,0.925,0.085,119.444,44.444,225.000,597.222,22.222,N
1198,-0.095,0.995,0.130,141.667,47.222,233.333,588.889,8.333,N
1199,-0.070,1.035,0.135,172.222,52.778,255.556,616.667,27.778,N
1200,-0.090,0.990,0.120,172.222,50.000,236.111,650.000,33.333,N
1201,-0.095,0.915,0.070,144.444,47.222,230.556,638.889,11.111,N
1202,-0.145,1.000,0.065,166.667,47.222,238.889,625.000,13.889,N
1203,-0.125,1.020,0.050,163.889,47.222,238.889,616.667,8.333,N
1204,-0.145,1.035,0.065,169.444,47.222,244.444,633.333,16.667,N
1205,-0.125,0.915,0.100,166.667,44.444,222.222,633.333,0.000,N
1206,-0.080,1.010,0.075,163.889,47.222,225.000,600.000,33.333,N
1207,-0.120,0.905,0.135,127.778,41.667,225.000,608.333,8.333,N
1208,-0.070,1.060,0.155,144.444,50.000,233.333,586.111,22.222,N
1209,-0.060,0.915,0.100,161.111,50.000,250.000,597.222,11.111,N
1210,-0.125,0.835,0.060,166.667,47.222,219.444,675.000,77.778,N
1211,-0.110,0.905,0.035,175.000,52.778,255.556,641.667,33.333,N
1212,-0.140,0.995,0.065,158.333,44.444,227.778,652.778,11.111,N
1213,-0.140,0.910,0.060,175.000,47.222,247.222,630.556,22.222,N
1214,-0.170,0.890,0.040,141.667,50.000,236.111,619.444,11.111,N
1215,-0.175,0.950,0.005,191.667,52.778,241.667,613.889,5.556,N
1216,-0.190,0.825,0.055,150.000,44.444,238.889,591.667,22.222,N
1217,-0.085,1.050,0.235,166.667,44.444,202.778,608.333,16.667,N
1218,0.035,1.055,0.230,150.000,47.222,225.000,494.444,113.889,A
1219,-0.010,0.935,0.150,158.333,44.444,275.000,727.778,233.333,N
1220,-0.080,0.855,0.120,161.111,50.000,250.000,663.889,63.889,N
1221,-0.125,0.920,0.050,152.778,44.444,238.889,625.000,38.889,N
1222,-0.140,0.915,0.065,161.111,44.444,225.000,625.000,0.000,N
1223,-0.130,0.980,0.045,150.000,50.000,238.889,527.778,97.222,A
1224,-0.165,0.825,0.040,147.222,44.444,244.444,680.556,152.778,N
1225,-0.125,0.925,-0.020,169.444,47.222,222.222,619.444,61.111,N
1226,-0.195,0.975,0.025,183.333,44.444,238.889,613.889,5.556,N
1227,-0.105,0.925,0.145,144.444,38.889,227.778,594.444,19.444,N
1228,-0.070,1.225,0.150,197.222,44.444,222.222,458.333,136.111,A
1229,0.015,1.150,0.195,163.889,47.222,250.000,711.111,252.778,N
1230,-0.020,1.050,0.150,172.222,47.222,255.556,661.111,50.000,N
1231,-0.025,1.100,0.200,172.222,50.000,255.556,663.889,2.778,N
1232,0.060,1.110,0.255,166.667,44.444,238.889,644.444,19.444,N
1233,0.095,1.185,0.290,163.889,44.444,255.556,616.667,27.778,N
1234,0.075,1.115,0.185,158.333,44.444,238.889,625.000,8.333,N
1235,-0.025,0.920,0.140,161.111,44.444,230.556,602.778,22.222,N
1236,-0.075,0.955,0.115,161.111,44.444,227.778,602.778,0.000,N
1237,-0.095,0.940,0.130,152.778,44.444,236.111,591.667,11.111,N
1238,-0.075,1.095,0.120,180.556,50.000,250.000,627.778,36.111,N
1239,-0.110,1.005,0.050,155.556,50.000,258.333,655.556,27.778,N
1240,-0.135,0.940,0.030,138.889,47.222,247.222,652.778,2.778,N
1241,-0.185,1.030,0.050,163.889,47.222,238.889,636.111,16.667,N
1242,-0.130,1.045,0.125,163.889,44.444,238.889,625.000,11.111,N
1243,-0.080,1.055,0.105,155.556,44.444,222.222,622.222,2.778,N
1244,-0.080,1.040,0.105,141.667,50.000,250.000,622.222,0.000,N
1245,-0.090,0.975,0.075,163.889,47.222,244.444,638.889,16.667,N
1246,-0.120,0.975,0.045,133.333,47.222,211.111,616.667,22.222,N
1247,-0.125,0.920,0.075,172.222,50.000,238.889,608.333,8.333,N
1248,-0.120,1.000,0.075,161.111,47.222,261.111,638.889,30.556,N
1249,-0.135,0.900,0.085,191.667,55.556,255.556,663.889,25.000,N
1250,-0.105,0.960,0.090,188.889,50.000,252.778,663.889,0.000,N
1251,-0.145,1.145,0.165,172.222,47.222,236.111,630.556,33.333,N
1252,0.045,1.280,0.240,141.667,47.222,236.111,636.111,5.556,N
1253,0.075,1.240,0.185,180.556,47.222,244.444,641.667,5.556,N
1254,-0.020,1.175,0.205,161.111,44.444,238.889,625.000,16.667,N
1255,-0.040,1.170,0.130,136.111,44.444,241.667,558.333,66.667,N
1256,-0.075,0.910,0.125,175.000,44.444,230.556,647.222,88.889,N
1257,-0.110,1.030,0.050,161.111,47.222,225.000,652.778,5.556,N
1258,-0.105,0.910,0.095,177.778,50.000,258.333,669.444,16.667,N
1259,-0.125,0.870,0.050,180.556,47.222,233.333,663.889,5.556,N
1260,-0.190,1.065,-0.105,194.444,77.778,291.667,463.889,200.000,A
1261,-0.105,1.285,-0.110,163.889,75.000,272.222,405.556,58.333,A
1262,-0.150,1.240,0.165,138.889,47.222,258.333,541.667,136.111,A
1263,-0.055,1.290,0.075,197.222,41.667,227.778,472.222,69.444,A
1264,0.075,1.350,0.110,166.667,80.556,275.000,372.222,100.000,A
1265,0.110,1.480,0.120,150.000,66.667,263.889,386.111,13.889,A
1266,0.120,1.430,0.200,144.444,80.556,261.111,363.889,22.222,A
1267,0.200,1.480,0.090,158.333,69.444,255.556,375.000,11.111,A
1268,0.090,1.300,0.340,163.889,72.222,402.778,369.444,5.556,A
1269,0.150,1.190,0.000,166.667,52.778,258.333,358.333,11.111,A
1270,0.000,1.210,0.020,163.889,77.778,275.000,394.444,36.111,A
1271,0.020,1.130,-0.105,175.000,72.222,286.111,397.222,2.778,A
1272,-0.105,1.065,-0.035,158.333,72.222,275.000,394.444,2.778,A
1273,-0.035,0.980,-0.115,161.111,52.778,255.556,402.778,8.333,A
1274,-0.115,0.860,-0.050,172.222,72.222,258.333,397.222,5.556,A
1275,-0.050,0.905,-0.160,175.000,63.889,263.889,388.889,8.333,A
1276,-0.160,1.085,-0.125,163.889,61.111,255.556,386.111,2.778,A
1277,-0.125,0.945,-0.215,169.444,77.778,286.111,386.111,0.000,A
1278,-0.215,0.915,-0.180,155.556,75.000,275.000,391.667,5.556,A
1279,-0.180,0.905,-0.200,172.222,69.444,255.556,400.000,8.333,A
1280,-0.200,0.820,-0.085,163.889,75.000,258.333,372.222,27.778,A
1281,-0.085,0.805,-0.140,163.889,80.556,261.111,369.444,2.778,A
1282,-0.140,0.620,-0.065,152.778,66.667,252.778,372.222,2.778,A
1283,-0.065,0.660,0.770,152.778,80.556,405.556,363.889,8.333,A
1284,-0.210,0.715,-0.200,141.667,77.778,261.111,344.444,19.444,A
1285,-0.200,0.705,-0.305,163.889,80.556,261.111,369.444,25.000,A
1286,-0.305,0.640,-0.185,177.778,80.556,277.778,380.556,11.111,A
1287,-0.185,0.725,-0.245,163.889,80.556,263.889,386.111,5.556,A
1288,-0.245,0.890,-0.090,169.444,80.556,280.556,377.778,8.333,A
1289,-0.090,1.055,-0.175,158.333,69.444,286.111,380.556,2.778,A
1290,-0.175,1.105,-0.055,155.556,83.333,269.444,394.444,13.889,A
1291,-0.055,1.115,-0.200,166.667,77.778,275.000,380.556,13.889,A
1292,-0.200,1.100,-0.035,158.333,55.556,244.444,377.778,2.778,A
1293,-0.035,1.110,-0.030,169.444,80.556,405.556,377.778,0.000,A
1294,-0.085,1.200,-0.020,158.333,80.556,261.111,363.889,13.889,A
1295,-0.020,1.120,-0.070,158.333,80.556,402.778,366.667,2.778,A
1296,-0.135,1.225,0.540,141.667,75.000,400.000,363.889,2.778,A
1297,-0.035,1.270,0.230,136.111,72.222,397.222,355.556,8.333,A
1298,-0.085,1.455,1.155,147.222,77.778,405.556,361.111,5.556,A
1299,-0.040,1.410,-0.075,144.444,72.222,258.333,350.000,11.111,A
1300,-0.190,0.920,-0.035,136.111,47.222,247.222,555.556,205.556,N
1301,-0.165,0.895,-0.025,172.222,44.444,241.667,588.889,33.333,N
1302,-0.155,0.945,0.070,175.000,52.778,252.778,586.111,2.778,N
1303,-0.135,0.930,0.125,144.444,44.444,238.889,572.222,13.889,N
1304,-0.100,1.035,0.140,102.778,50.000,252.778,558.333,13.889,N
1305,-0.075,1.000,0.100,130.556,44.444,225.000,555.556,2.778,N
1306,-0.145,0.960,0.020,133.333,41.667,222.222,558.333,2.778,N
1307,-0.175,0.945,-0.025,141.667,44.444,225.000,544.444,13.889,N
1308,-0.210,0.925,0.115,105.556,47.222,236.111,555.556,11.111,N
1309,-0.165,0.975,0.060,102.778,75.000,272.222,550.000,5.556,N
1310,-0.060,1.210,1.240,158.333,52.778,380.556,577.778,27.778,N
1311,0.295,1.240,0.095,163.889,61.111,266.667,347.222,230.556,A
1312,0.095,1.215,0.185,91.667,47.222,233.333,752.778,405.556,N
1313,0.065,1.010,0.190,197.222,77.778,252.778,625.000,127.778,N
1314,-0.005,0.975,0.135,180.556,50.000,244.444,661.111,36.111,N
1315,-0.175,0.990,0.020,147.222,52.778,219.444,663.889,2.778,N
1316,-0.080,1.015,0.060,150.000,44.444,225.000,619.444,44.444,N
1317,-0.180,0.865,-0.035,158.333,50.000,216.667,627.778,8.333,N
1318,-0.275,0.915,0.030,158.333,47.222,236.111,594.444,33.333,N
1319,-0.160,1.095,0.145,138.889,47.222,233.333,602.778,8.333,N
1320,-0.050,1.075,0.135,125.000,66.667,222.222,600.000,2.778,N
1321,-0.070,1.000,0.215,147.222,75.000,297.222,572.222,27.778,N
1322,-0.080,1.125,0.480,169.444,50.000,255.556,638.889,66.667,N
1323,0.150,0.960,0.330,183.333,47.222,233.333,636.111,2.778,N
1324,0.150,1.210,0.285,163.889,41.667,238.889,627.778,8.333,N
1325,0.055,1.060,0.120,147.222,47.222,225.000,602.778,25.000,N
1326,-0.140,0.940,-0.030,161.111,66.667,255.556,591.667,11.111,N
1327,-0.245,0.870,-0.045,147.222,44.444,222.222,580.556,11.111,N
1328,-0.230,0.895,-0.105,158.333,69.444,255.556,538.889,41.667,N
1329,-0.305,0.710,-0.170,172.222,47.222,233.333,630.556,91.667,N
1330,-0.315,0.785,-0.160,150.000,44.444,205.556,575.000,55.556,N
1331,-0.360,0.800,-0.140,172.222,41.667,233.333,563.889,11.111,N
1332,-0.365,0.835,-0.090,155.556,41.667,236.111,575.000,11.111,N
1333,-0.220,1.135,0.270,111.111,50.000,225.000,594.444,19.444,N
1334,-0.075,0.930,0.120,191.667,61.111,263.889,608.333,13.889,N
1335,-0.130,0.880,0.040,36.111,47.222,241.667,591.667,16.667,N
1336,-0.110,1.220,0.010,177.778,47.222,230.556,580.556,11.111,N
1337,-0.180,0.980,0.045,125.000,44.444,244.444,580.556,0.000,N
1338,0.010,1.010,0.260,138.889,66.667,244.444,588.889,8.333,N
1339,-0.070,1.010,0.095,127.778,55.556,219.444,558.333,30.556,N
1340,-0.055,1.315,0.290,130.556,75.000,252.778,558.333,0.000,N
1341,0.080,1.305,0.285,150.000,44.444,230.556,536.111,22.222,N
1342,0.015,1.360,0.245,163.889,52.778,250.000,594.444,58.333,N
1343,0.045,1.430,0.230,183.333,52.778,244.444,625.000,30.556,N
1344,-0.095,1.095,0.165,186.111,50.000,261.111,600.000,25.000,N
1345,0.165,1.150,0.160,191.667,77.778,261.111,425.000,175.000,A
1346,-0.080,1.355,0.175,127.778,44.444,230.556,688.889,263.889,N
1347,-0.040,1.170,0.125,158.333,41.667,222.222,591.667,97.222,N
1348,-0.090,1.040,0.155,150.000,47.222,233.333,575.000,16.667,N
1349,-0.125,1.165,0.180,152.778,44.444,225.000,586.111,11.111,N
1350,-0.085,1.200,0.085,197.222,47.222,225.000,447.222,138.889,A
1351,-0.175,1.350,0.165,130.556,44.444,222.222,638.889,191.667,N
1352,-0.100,1.120,0.140,161.111,44.444,230.556,622.222,16.667,N
1353,-0.150,1.215,0.120,150.000,41.667,241.667,652.778,30.556,N
1354,-0.130,1.085,0.115,169.444,55.556,238.889,669.444,16.667,N
1355,-0.100,1.105,0.215,183.333,47.222,247.222,652.778,16.667,N
1356,-0.060,1.180,0.285,158.333,50.000,252.778,644.444,8.333,N
1357,-0.010,1.120,0.285,186.111,44.444,225.000,669.444,25.000,N
1358,-0.020,1.870,-0.210,783683.333,783741.667,784019.444,600.000,69.444,V
1359,-0.030,1.370,0.320,138.889,50.000,222.222,661.111,61.111,N
1360,-0.025,1.255,0.210,163.889,47.222,213.889,622.222,38.889,N
1361,-0.080,1.180,0.125,158.333,50.000,238.889,608.333,13.889,N
1362,-0.230,0.945,0.000,152.778,52.778,241.667,652.778,44.444,N
1363,-0.210,1.085,0.080,152.778,50.000,258.333,644.444,8.333,N
1364,-0.140,1.100,0.115,166.667,47.222,244.444,647.222,2.778,N
1365,-0.160,1.145,0.115,166.667,58.333,236.111,650.000,2.778,N
1366,-0.130,1.200,0.180,183.333,50.000,247.222,633.333,16.667,N
1367,-0.100,1.055,0.110,161.111,47.222,213.889,630.556,2.778,N
1368,-0.180,0.905,0.070,163.889,47.222,227.778,608.333,22.222,N
1369,-0.205,1.045,0.060,130.556,44.444,241.667,625.000,16.667,N
1370,-0.190,1.080,0.045,152.778,47.222,225.000,608.333,16.667,N
1371,-0.045,1.440,-0.075,197.222,44.444,236.111,430.556,177.778,A
1372,-0.180,1.100,0.150,186.111,50.000,272.222,588.889,158.333,N
1373,-0.245,0.910,-0.020,197.222,44.444,213.889,483.333,105.556,A
1374,-0.090,1.065,-0.180,197.222,80.556,277.778,408.333,75.000,A
1375,-0.180,0.920,-0.385,186.111,47.222,186.111,405.556,2.778,A
1376,-0.410,0.790,-0.355,197.222,63.889,252.778,394.444,11.111,A
1377,-0.355,0.980,-0.350,163.889,75.000,252.778,380.556,13.889,A
1378,-0.350,1.105,-0.215,183.333,80.556,266.667,386.111,5.556,A
1379,-0.215,1.340,-0.395,172.222,80.556,238.889,383.333,2.778,A
1380,-0.400,1.040,-0.300,177.778,69.444,258.333,394.444,11.111,A
1381,-0.300,1.275,-0.380,163.889,75.000,263.889,372.222,22.222,A
1382,-0.380,1.275,-0.240,152.778,69.444,244.444,375.000,2.778,A
1383,-0.240,1.245,0.170,161.111,66.667,394.444,372.222,2.778,A
1384,-0.305,1.010,1.105,150.000,77.778,402.778,355.556,16.667,A
1385,-0.155,1.305,-0.295,155.556,77.778,272.222,350.000,5.556,A
1386,-0.295,1.115,-0.015,158.333,66.667,255.556,372.222,22.222,A
1387,-0.015,1.110,-0.205,163.889,75.000,272.222,375.000,2.778,A
1388,-0.205,0.970,-0.005,172.222,83.333,266.667,391.667,16.667,A
1389,-0.005,1.230,-0.180,183.333,75.000,275.000,391.667,0.000,A
1390,-0.180,1.200,0.020,180.556,83.333,272.222,402.778,11.111,A
1391,0.020,1.365,-0.145,197.222,80.556,266.667,413.889,11.111,A
1392,-0.145,1.295,-0.085,183.333,80.556,255.556,391.667,22.222,A
1393,-0.085,1.390,-0.255,172.222,52.778,72.222,369.444,22.222,A
1394,-0.275,1.335,1.365,158.333,72.222,400.000,383.333,13.889,A
1395,-0.165,1.365,0.765,138.889,63.889,391.667,347.222,36.111,A
1396,-0.190,1.295,0.080,152.778,72.222,397.222,352.778,5.556,A
1397,-0.040,1.505,-0.085,163.889,63.889,238.889,363.889,11.111,A
1398,-0.185,0.935,0.025,136.111,50.000,252.778,586.111,222.222,N
1399,-0.170,0.840,-0.150,127.778,41.667,194.444,669.444,83.333,N
1400,-0.345,0.865,-0.140,152.778,47.222,238.889,591.667,77.778,N
1401,-0.375,0.895,-0.090,172.222,50.000,247.222,605.556,13.889,N
1402,-0.255,1.065,-0.030,158.333,50.000,227.778,616.667,11.111,N
1403,-0.090,1.050,0.280,44.444,55.556,247.222,572.222,44.444,N
1404,0.180,0.970,0.180,111.111,80.556,238.889,611.111,38.889,N
1405,-0.225,1.190,0.005,186.111,47.222,238.889,580.556,30.556,N
1406,-0.150,1.195,0.100,161.111,47.222,233.333,605.556,25.000,N
1407,-0.100,1.145,0.125,163.889,47.222,227.778,625.000,19.444,N
1408,-0.135,0.975,0.300,125.000,41.667,227.778,475.000,150.000,A
1409,0.110,1.285,0.450,141.667,75.000,297.222,725.000,250.000,N
1410,0.095,0.125,0.005,111.111,69.444,405.556,261.111,463.889,|
1411,-0.135,0.860,-0.215,130.556,47.222,219.444,355.556,94.444,N
1412,0.580,1.360,0.435,50.000,88.889,255.556,658.333,302.778,N
1413,0.250,0.300,0.235,36.111,30.556,47.222,219.444,438.889,|
1414,0.060,1.185,0.575,105.556,80.556,250.000,438.889,219.444,N
1415,0.255,0.575,0.230,158.333,66.667,241.667,213.889,225.000,|
1416,-0.030,1.200,0.090,102.778,69.444,275.000,422.222,208.333,N
1417,0.010,1.380,0.265,141.667,50.000,219.444,638.889,216.667,N
1418,0.050,1.300,0.195,166.667,47.222,241.667,641.667,2.778,N
1419,-0.010,1.140,0.165,150.000,47.222,238.889,619.444,22.222,N
1420,-0.040,1.105,0.125,113.889,47.222,222.222,583.333,36.111,N
1421,-0.110,1.185,0.105,163.889,41.667,227.778,641.667,58.333,N
1422,-0.075,1.110,0.095,166.667,47.222,244.444,605.556,36.111,N
1423,-0.100,1.110,0.100,155.556,50.000,241.667,655.556,50.000,N
1424,-0.135,1.100,0.150,166.667,44.444,241.667,658.333,2.778,N
1425,-0.045,1.035,0.135,188.889,47.222,227.778,494.444,163.889,A
1426,-0.140,0.925,-0.010,133.333,44.444,252.778,758.333,263.889,N
1427,-0.245,0.815,-0.125,169.444,50.000,236.111,644.444,113.889,N
1428,-0.310,0.890,-0.055,163.889,50.000,236.111,633.333,11.111,N
1429,-0.305,0.850,-0.120,150.000,47.222,238.889,597.222,36.111,N
1430,-0.305,1.020,-0.095,141.667,44.444,230.556,622.222,25.000,N
1431,-0.285,0.890,-0.055,125.000,38.889,230.556,597.222,25.000,N
1432,-0.230,0.885,0.025,158.333,47.222,233.333,633.333,36.111,N
1433,-0.190,0.980,0.050,144.444,47.222,230.556,636.111,2.778,N
1434,-0.160,1.070,0.140,136.111,44.444,227.778,636.111,0.000,N
1435,-0.080,1.230,0.210,166.667,50.000,241.667,638.889,2.778,N
1436,-0.005,1.250,0.215,136.111,50.000,250.000,638.889,0.000,N
1437,0.015,1.170,0.175,155.556,69.444,258.333,630.556,8.333,N
1438,0.025,1.265,0.225,166.667,47.222,244.444,611.111,19.444,N
1439,0.010,1.200,0.190,150.000,44.444,225.000,616.667,5.556,N
1440,-0.050,1.210,0.235,166.667,44.444,225.000,616.667,0.000,N
1441,0.005,1.040,0.240,166.667,47.222,241.667,588.889,27.778,N
1442,0.020,1.145,0.235,161.111,47.222,230.556,641.667,52.778,N
1443,0.015,1.095,0.190,172.222,52.778,252.778,661.111,19.444,N
1444,-0.035,1.130,0.155,158.333,50.000,238.889,669.444,8.333,N
1445,-0.040,1.015,0.125,169.444,44.444,227.778,663.889,5.556,N
1446,-0.040,0.990,0.175,161.111,44.444,227.778,625.000,38.889,N
1447,-0.055,0.835,0.090,166.667,44.444,222.222,638.889,13.889,N
1448,-0.125,0.895,0.065,180.556,47.222,225.000,613.889,25.000,N
1449,-0.150,0.880,0.050,161.111,41.667,238.889,627.778,13.889,N
1450,-0.125,0.960,0.080,152.778,38.889,216.667,627.778,0.000,N
1451,-0.120,0.930,0.090,155.556,50.000,238.889,633.333,5.556,N
1452,-0.115,0.930,0.055,166.667,44.444,225.000,661.111,27.778,N
1453,-0.150,0.790,0.025,175.000,50.000,252.778,658.333,2.778,N
1454,-0.175,0.890,-0.010,172.222,50.000,244.444,663.889,5.556,N
1455,-0.205,0.870,-0.060,163.889,41.667,222.222,644.444,19.444,N
1456,-0.205,0.710,-0.030,158.333,47.222,247.222,644.444,0.000,N
1457,-0.210,0.760,-0.055,163.889,44.444,261.111,636.111,8.333,N
1458,-0.255,0.765,-0.165,158.333,47.222,230.556,580.556,55.556,N
1459,-0.425,0.695,-0.230,138.889,44.444,208.333,686.111,105.556,N
1460,-0.415,0.585,-0.220,147.222,41.667,227.778,616.667,69.444,N
1461,-0.330,0.760,-0.115,175.000,52.778,269.444,663.889,47.222,N
1462,-0.305,0.875,-0.100,180.556,52.778,250.000,688.889,25.000,N
1463,-0.315,0.755,-0.145,161.111,44.444,227.778,680.556,8.333,N
1464,-0.340,0.745,-0.165,175.000,47.222,244.444,652.778,27.778,N
1465,-0.285,0.970,-0.105,163.889,44.444,230.556,644.444,8.333,N
1466,-0.365,0.895,-0.030,180.556,72.222,252.778,641.667,2.778,N
1467,-0.440,0.695,-0.245,144.444,41.667,227.778,580.556,61.111,A
1468,-0.330,0.830,-0.105,152.778,44.444,227.778,722.222,141.667,N
1469,-0.285,0.745,-0.045,169.444,47.222,241.667,633.333,88.889,N
1470,-0.235,0.835,0.030,161.111,52.778,255.556,655.556,22.222,N
1471,-0.175,0.820,0.010,175.000,50.000,252.778,669.444,13.889,N
1472,-0.170,0.870,0.000,172.222,47.222,241.667,641.667,27.778,N
1473,-0.095,1.175,0.035,150.000,66.667,241.667,636.111,5.556,N
1474,-0.050,0.925,0.145,161.111,72.222,275.000,605.556,30.556,N
1475,-0.005,1.005,0.105,147.222,44.444,225.000,636.111,30.556,N
1476,-0.070,1.115,0.235,122.222,58.333,225.000,644.444,8.333,N
1477,0.165,1.055,0.430,111.111,77.778,241.667,616.667,27.778,N
1478,0.185,1.115,0.390,155.556,75.000,300.000,594.444,22.222,N
1479,0.320,1.040,0.025,163.889,77.778,316.667,625.000,30.556,N
1480,0.030,0.840,0.140,152.778,50.000,244.444,641.667,16.667,N
1481,0.075,1.065,0.200,147.222,41.667,250.000,613.889,27.778,N
1482,0.390,0.565,0.020,102.778,52.778,255.556,675.000,61.111,N
1483,-0.010,1.040,0.045,47.222,50.000,252.778,638.889,36.111,N
1484,-0.165,0.875,0.110,172.222,50.000,155.556,647.222,8.333,N
1485,-0.090,0.955,0.095,119.444,52.778,216.667,613.889,33.333,N
1486,-0.030,1.010,0.365,119.444,38.889,275.000,486.111,127.778,A
1487,0.360,1.180,0.120,130.556,44.444,183.333,700.000,213.889,N
1488,-0.105,0.620,-0.215,133.333,47.222,250.000,602.778,97.222,N
1489,-0.435,0.795,-0.285,188.889,69.444,255.556,644.444,41.667,N
1490,-0.550,0.730,-0.350,172.222,50.000,227.778,647.222,2.778,N
1491,-0.345,0.595,-0.320,161.111,47.222,233.333,641.667,5.556,N
1492,-0.520,0.690,-0.295,166.667,44.444,252.778,616.667,25.000,N
1493,-0.550,0.650,-0.370,177.778,47.222,230.556,602.778,13.889,N
1494,-0.525,0.760,-0.260,158.333,47.222,236.111,619.444,16.667,N
1495,-0.385,0.875,-0.190,158.333,47.222,219.444,602.778,16.667,N
1496,-0.230,1.185,-0.220,188.889,50.000,252.778,422.222,180.556,A
1497,-0.265,1.020,0.005,141.667,47.222,238.889,566.667,144.444,N
1498,-0.100,1.025,-0.020,197.222,80.556,275.000,444.444,122.222,A
1499,-0.020,1.420,-0.040,161.111,72.222,266.667,377.778,66.667,A
1500,-0.040,1.460,-0.050,158.333,77.778,280.556,383.333,5.556,A
1501,-0.050,1.475,-0.030,169.444,66.667,277.778,391.667,8.333,A
1502,-0.030,1.400,-0.060,152.778,80.556,269.444,383.333,8.333,A
1503,-0.060,1.405,0.050,163.889,75.000,283.333,377.778,5.556,A
1504,0.050,1.430,0.000,155.556,80.556,288.889,386.111,8.333,A
1505,0.000,1.295,0.130,166.667,77.778,277.778,397.222,11.111,A
1506,0.130,1.165,-0.075,169.444,66.667,272.222,388.889,8.333,A
1507,-0.075,1.275,-0.015,166.667,77.778,263.889,394.444,5.556,A
1508,-0.015,1.210,0.055,166.667,61.111,258.333,372.222,22.222,A
1509,0.055,1.430,0.100,172.222,61.111,263.889,388.889,16.667,A
1510,0.100,1.480,0.005,158.333,52.778,241.667,380.556,8.333,A
1511,0.005,1.275,0.080,158.333,69.444,258.333,366.667,13.889,A
1512,0.035,1.300,0.180,133.333,44.444,241.667,530.556,163.889,N
1513,0.065,1.215,0.225,158.333,47.222,250.000,694.444,163.889,N
1514,0.160,1.340,0.310,161.111,47.222,236.111,613.889,80.556,N
1515,0.105,1.315,0.275,172.222,52.778,255.556,630.556,16.667,N
1516,0.055,1.205,0.200,175.000,52.778,255.556,619.444,11.111,N
1517,0.020,1.165,0.285,158.333,44.444,236.111,613.889,5.556,N
1518,0.110,1.050,0.225,161.111,44.444,244.444,569.444,44.444,N
1519,0.050,0.975,0.265,152.778,47.222,244.444,586.111,16.667,N
1520,0.115,1.025,0.275,166.667,47.222,238.889,572.222,13.889,N
1521,0.115,1.095,0.260,158.333,47.222,244.444,577.778,5.556,N
1522,0.110,1.110,0.250,152.778,47.222,238.889,588.889,11.111,N
1523,0.080,1.095,0.205,150.000,44.444,241.667,563.889,25.000,N
1524,-0.010,0.910,0.055,158.333,44.444,247.222,611.111,47.222,N
1525,-0.145,0.715,0.490,136.111,50.000,252.778,613.889,2.778,N
1526,-0.160,0.290,0.050,58.333,108.333,319.444,230.556,383.333,|
1527,0.050,0.870,0.035,138.889,75.000,397.222,400.000,169.444,N
1528,0.000,0.815,0.155,188.889,50.000,241.667,616.667,216.667,N
1529,-0.215,0.780,0.045,116.667,41.667,238.889,605.556,11.111,N
1530,-0.010,1.060,0.190,138.889,50.000,238.889,611.111,5.556,N
1531,0.055,1.030,0.110,138.889,47.222,266.667,602.778,8.333,N
1532,-0.045,0.895,0.000,147.222,44.444,238.889,608.333,5.556,N
1533,-0.155,0.905,-0.060,108.333,44.444,219.444,541.667,66.667,N
1534,-0.285,0.890,-0.145,147.222,44.444,244.444,605.556,63.889,N
1535,-0.295,0.780,-0.110,158.333,44.444,241.667,600.000,5.556,N
1536,-0.270,1.005,-0.120,163.889,50.000,272.222,636.111,36.111,N
1537,-0.285,0.890,-0.075,147.222,47.222,261.111,619.444,16.667,N
1538,-0.145,1.015,0.035,161.111,44.444,247.222,661.111,41.667,N
1539,-0.060,1.170,0.120,163.889,44.444,238.889,619.444,41.667,N
1540,-0.025,1.185,0.185,155.556,47.222,222.222,605.556,13.889,N
1541,-0.020,1.200,0.130,141.667,41.667,238.889,611.111,5.556,N
1542,-0.115,0.990,0.005,161.111,44.444,238.889,563.889,47.222,N
1543,-0.155,1.135,0.130,152.778,44.444,225.000,641.667,77.778,N
1544,0.040,1.265,0.360,122.222,80.556,255.556,602.778,38.889,N
1545,0.225,1.465,0.535,163.889,50.000,225.000,638.889,36.111,N
1546,0.410,1.575,0.605,138.889,50.000,352.778,633.333,5.556,N
1547,0.605,1.420,0.565,169.444,47.222,216.667,494.444,138.889,A
1548,0.250,1.285,0.400,163.889,50.000,227.778,727.778,233.333,N
1549,0.245,1.290,0.765,138.889,63.889,266.667,613.889,113.889,N
1550,0.355,1.020,0.240,183.333,69.444,272.222,625.000,11.111,N
1551,0.085,1.050,0.220,141.667,44.444,241.667,511.111,113.889,N
1552,0.005,1.110,0.140,169.444,52.778,275.000,688.889,177.778,N
1553,0.000,1.100,0.250,158.333,72.222,238.889,591.667,97.222,N
1554,0.215,1.200,0.265,183.333,75.000,316.667,586.111,5.556,N
1555,0.145,1.240,0.490,144.444,50.000,261.111,622.222,36.111,N
1556,-0.005,1.105,0.275,186.111,50.000,236.111,647.222,25.000,N
1557,0.150,1.095,0.225,177.778,47.222,255.556,630.556,16.667,N
1558,0.100,1.135,0.255,169.444,41.667,219.444,625.000,5.556,N
1559,-0.290,0.825,-0.130,166.667,47.222,238.889,630.556,5.556,N
1560,-0.355,0.960,-0.040,133.333,44.444,233.333,602.778,27.778,N
1561,-0.110,1.210,0.205,141.667,47.222,219.444,602.778,0.000,N
1562,-0.025,1.105,0.190,166.667,50.000,241.667,594.444,8.333,N
1563,-0.035,1.000,0.070,158.333,69.444,250.000,588.889,5.556,N
1564,-0.260,1.000,0.050,144.444,47.222,247.222,586.111,2.778,N
1565,-0.145,1.090,0.050,175.000,47.222,247.222,669.444,83.333,N
1566,-0.125,1.040,0.130,177.778,77.778,275.000,647.222,22.222,N
1567,-0.075,1.015,0.140,144.444,47.222,233.333,616.667,30.556,N
1568,-0.100,1.000,0.055,150.000,44.444,236.111,608.333,8.333,N
1569,-0.145,0.985,0.005,97.222,47.222,244.444,544.444,63.889,N
1570,-0.310,0.560,-0.170,144.444,41.667,238.889,647.222,102.778,N
1571,-0.265,0.645,0.085,163.889,72.222,263.889,608.333,38.889,N
1572,0.075,0.965,0.370,44.444,55.556,263.889,586.111,22.222,N
1573,0.185,0.995,0.335,155.556,47.222,236.111,566.667,19.444,N
1574,-0.040,0.725,0.105,186.111,47.222,225.000,594.444,27.778,N
1575,-0.195,0.630,-0.040,183.333,47.222,255.556,619.444,25.000,N
1576,-0.230,0.645,-0.005,172.222,52.778,225.000,605.556,13.889,N
1577,-0.180,0.680,0.040,147.222,55.556,263.889,611.111,5.556,N
1578,-0.150,0.730,0.055,144.444,50.000,250.000,611.111,0.000,N
1579,-0.140,0.590,-0.040,130.556,50.000,241.667,586.111,25.000,N
1580,-0.250,0.520,-0.045,152.778,50.000,241.667,588.889,2.778,N
1581,-0.220,0.725,0.060,155.556,50.000,252.778,563.889,25.000,N
1582,-0.090,1.000,0.210,136.111,47.222,227.778,583.333,19.444,N
1583,0.055,1.080,0.275,152.778,50.000,244.444,566.667,16.667,N
1584,0.115,1.035,0.380,144.444,50.000,252.778,591.667,25.000,N
1585,0.240,1.210,0.390,169.444,50.000,255.556,630.556,38.889,N
1586,0.195,1.190,0.300,186.111,52.778,263.889,644.444,13.889,N
1587,0.055,1.020,0.205,158.333,47.222,233.333,638.889,5.556,N
1588,-0.025,0.900,0.250,155.556,52.778,250.000,619.444,19.444,N
1589,0.025,0.910,0.255,180.556,44.444,255.556,613.889,5.556,N
1590,0.115,1.025,0.210,136.111,44.444,241.667,605.556,8.333,N
1591,0.165,0.885,0.140,105.556,44.444,213.889,636.111,30.556,N
1592,-0.185,0.725,-0.050,38.889,44.444,205.556,630.556,5.556,N
1593,-0.145,0.700,-0.015,186.111,47.222,258.333,591.667,38.889,N
1594,0.075,0.885,0.145,111.111,75.000,275.000,644.444,52.778,N
1595,0.035,0.820,0.280,36.111,44.444,269.444,516.667,127.778,A
1596,-0.120,0.735,0.210,77.778,77.778,297.222,761.111,244.444,N
1597,-0.080,0.895,0.195,155.556,69.444,244.444,663.889,97.222,N
1598,-0.070,0.920,0.225,125.000,50.000,255.556,652.778,11.111,N
1599,0.020,0.965,0.210,144.444,44.444,247.222,633.333,19.444,N
1600,-0.135,0.815,-0.065,158.333,50.000,244.444,627.778,5.556,N
1601,-0.285,0.815,0.040,177.778,44.444,241.667,613.889,13.889,N
1602,-0.065,0.980,0.210,130.556,41.667,233.333,597.222,16.667,N
1603,0.075,1.055,0.165,166.667,55.556,269.444,616.667,19.444,N
1604,-0.040,0.965,0.175,194.444,44.444,241.667,500.000,116.667,A
1605,0.015,1.090,0.415,188.889,52.778,277.778,791.667,291.667,N
1606,0.180,1.195,0.285,177.778,80.556,283.333,655.556,136.111,N
1607,0.085,1.375,0.160,155.556,44.444,222.222,627.778,27.778,N
1608,-0.195,1.060,-0.125,163.889,47.222,241.667,611.111,16.667,N
1609,-0.195,1.220,0.260,163.889,44.444,241.667,616.667,5.556,N
1610,0.065,1.355,0.300,163.889,44.444,211.111,616.667,0.000,N
1611,0.060,1.235,0.185,180.556,44.444,244.444,597.222,19.444,N
1612,-0.075,1.075,0.095,166.667,44.444,236.111,591.667,5.556,N
1613,-0.135,1.250,0.075,166.667,50.000,244.444,597.222,5.556,N
1614,-0.165,1.100,0.045,158.333,47.222,261.111,680.556,83.333,N
1615,-0.145,1.145,0.090,186.111,44.444,241.667,636.111,44.444,N
1616,-0.090,1.115,0.120,177.778,47.222,227.778,633.333,2.778,N
1617,0.015,1.175,0.165,169.444,47.222,236.111,619.444,13.889,N
1618,-0.085,1.055,0.070,158.333,47.222,252.778,638.889,19.444,N
1619,-0.185,1.055,-0.010,163.889,47.222,238.889,625.000,13.889,N
1620,-0.195,1.015,0.030,141.667,44.444,222.222,625.000,0.000,N
1621,-0.130,1.195,0.100,163.889,44.444,227.778,605.556,19.444,N
1622,-0.080,1.140,0.185,163.889,47.222,244.444,602.778,2.778,N
1623,0.000,1.210,0.235,150.000,50.000,244.444,666.667,63.889,N
1624,0.065,1.180,0.280,188.889,52.778,258.333,658.333,8.333,N
1625,0.005,1.185,0.230,155.556,50.000,258.333,661.111,2.778,N
1626,0.035,1.180,0.285,158.333,47.222,255.556,638.889,22.222,N
1627,0.060,1.180,0.265,169.444,47.222,250.000,633.333,5.556,N
1628,0.055,1.055,0.275,130.556,44.444,222.222,625.000,8.333,N
1629,0.070,1.100,0.195,175.000,41.667,230.556,594.444,30.556,N
1630,-0.065,0.935,-0.145,141.667,41.667,230.556,483.333,111.111,A
1631,-0.475,0.745,-0.120,150.000,47.222,266.667,677.778,194.444,N
1632,-0.150,1.105,0.090,180.556,47.222,241.667,647.222,30.556,N
1633,-0.110,1.010,0.015,188.889,47.222,244.444,655.556,8.333,N
1634,-0.240,0.885,-0.110,177.778,47.222,227.778,641.667,13.889,N
1635,-0.295,0.865,-0.115,169.444,47.222,255.556,641.667,0.000,N
1636,-0.315,0.715,-0.090,158.333,47.222,244.444,622.222,19.444,N
1637,-0.305,0.755,-0.230,166.667,47.222,227.778,622.222,0.000,N
1638,-0.455,0.710,-0.175,150.000,47.222,258.333,616.667,5.556,N
1639,-0.275,0.945,0.075,166.667,47.222,255.556,619.444,2.778,N
1640,-0.140,0.940,0.070,163.889,47.222,208.333,616.667,2.778,N
1641,-0.115,1.025,0.080,166.667,47.222,230.556,580.556,36.111,N
1642,-0.095,1.025,0.120,161.111,44.444,247.222,627.778,47.222,N
1643,-0.055,1.155,0.150,172.222,47.222,255.556,647.222,19.444,N
1644,-0.050,1.035,0.155,186.111,50.000,255.556,663.889,16.667,N
1645,-0.040,1.075,0.130,172.222,47.222,236.111,666.667,2.778,N
1646,-0.095,1.035,0.090,161.111,47.222,244.444,627.778,38.889,N
1647,-0.125,0.925,0.050,158.333,44.444,230.556,594.444,33.333,N
1648,-0.155,1.020,0.100,147.222,47.222,241.667,661.111,66.667,N
1649,-0.075,1.080,0.100,155.556,47.222,222.222,619.444,41.667,N
1650,-0.105,1.105,0.110,147.222,44.444,238.889,608.333,11.111,N
1651,-0.130,1.030,0.040,169.444,47.222,255.556,641.667,33.333,N
1652,-0.235,0.805,-0.290,188.889,47.222,236.111,516.667,125.000,A
1653,-0.595,0.885,-0.135,175.000,50.000,255.556,822.222,305.556,N
1654,-0.225,1.090,0.105,155.556,47.222,250.000,680.556,141.667,N
1655,-0.110,1.055,0.070,166.667,44.444,241.667,661.111,19.444,N
1656,-0.165,1.070,-0.005,175.000,50.000,238.889,638.889,22.222,N
1657,-0.230,1.080,0.025,175.000,47.222,236.111,652.778,13.889,N
1658,-0.215,1.170,0.030,166.667,44.444,230.556,666.667,13.889,N
1659,-0.160,1.115,0.155,133.333,41.667,236.111,625.000,41.667,N
1660,-0.085,1.060,0.160,141.667,44.444,247.222,641.667,16.667,N
1661,-0.040,1.175,0.175,175.000,50.000,252.778,663.889,22.222,N
1662,-0.015,1.310,0.135,175.000,50.000,269.444,666.667,2.778,N
1663,-0.145,1.105,0.170,147.222,44.444,208.333,658.333,8.333,N
1664,-0.085,1.050,0.055,150.000,50.000,263.889,563.889,94.444,N
1665,-0.405,0.745,-0.310,169.444,47.222,250.000,680.556,116.667,N
1666,-0.425,0.965,0.050,144.444,47.222,227.778,638.889,41.667,N
1667,-0.055,1.225,0.190,161.111,47.222,244.444,616.667,22.222,N
1668,-0.115,1.125,0.155,161.111,41.667,211.111,633.333,16.667,N
1669,0.080,1.320,-0.005,194.444,41.667,233.333,411.111,222.222,A
1670,-0.310,0.960,-0.130,183.333,50.000,277.778,761.111,350.000,N
1671,-0.285,1.000,-0.035,183.333,50.000,227.778,716.667,44.444,N
1672,-0.105,1.060,0.025,186.111,52.778,277.778,672.222,44.444,N
1673,-0.270,1.155,-0.080,197.222,47.222,222.222,513.889,158.333,A
1674,-0.270,1.085,0.025,155.556,50.000,258.333,700.000,186.111,N
1675,-0.195,1.075,0.105,163.889,47.222,269.444,650.000,50.000,N
1676,-0.075,1.005,0.285,130.556,80.556,277.778,647.222,2.778,N
1677,0.125,1.225,0.260,186.111,50.000,241.667,616.667,30.556,N
1678,-0.155,0.950,0.040,136.111,47.222,225.000,602.778,13.889,N
1679,-0.160,1.160,0.135,177.778,61.111,255.556,658.333,55.556,N
1680,-0.025,1.175,0.265,155.556,47.222,269.444,666.667,8.333,N
1681,0.070,1.180,0.235,147.222,47.222,258.333,686.111,19.444,N
1682,0.055,1.200,0.185,177.778,50.000,258.333,663.889,22.222,N
1683,-0.010,1.245,0.205,169.444,50.000,258.333,658.333,5.556,N
1684,-0.030,1.045,0.170,147.222,47.222,238.889,677.778,19.444,N
1685,-0.035,1.075,0.000,150.000,44.444,225.000,550.000,127.778,N
1686,-0.415,0.770,-0.040,172.222,47.222,255.556,722.222,172.222,N
1687,0.035,1.410,0.485,52.778,36.111,227.778,622.222,100.000,N
1688,0.255,1.225,0.230,147.222,47.222,258.333,641.667,19.444,N
1689,-0.135,1.015,-0.105,163.889,50.000,241.667,669.444,27.778,N
1690,-0.400,0.880,-0.150,169.444,52.778,258.333,672.222,2.778,N
1691,-0.380,0.970,-0.110,150.000,50.000,250.000,675.000,2.778,N
1692,-0.300,0.890,-0.005,166.667,47.222,247.222,672.222,2.778,N
1693,-0.180,0.830,0.015,150.000,44.444,252.778,650.000,22.222,N
1694,-0.160,1.010,-0.025,175.000,44.444,213.889,647.222,2.778,N
1695,-0.390,0.980,-0.150,144.444,44.444,247.222,627.778,19.444,N
1696,-0.390,0.935,-0.085,169.444,69.444,244.444,625.000,2.778,N
1697,-0.120,1.270,0.270,163.889,66.667,266.667,627.778,2.778,N
1698,0.070,1.380,0.350,175.000,50.000,263.889,650.000,22.222,N
1699,0.060,1.350,0.230,172.222,50.000,252.778,661.111,11.111,N
1700,-0.070,1.240,0.140,177.778,47.222,250.000,638.889,22.222,N
1701,-0.090,1.185,0.155,163.889,44.444,244.444,636.111,2.778,N
1702,-0.080,1.205,0.195,180.556,44.444,244.444,630.556,5.556,N
1703,-0.065,1.190,0.000,166.667,50.000,241.667,602.778,27.778,N
1704,-0.295,1.045,-0.015,166.667,47.222,241.667,533.333,69.444,A
1705,-0.005,1.455,0.485,158.333,50.000,250.000,694.444,161.111,N
1706,0.225,1.445,0.290,133.333,47.222,236.111,597.222,97.222,N
1707,-0.030,1.245,0.100,169.444,47.222,244.444,644.444,47.222,N
1708,-0.190,1.115,-0.005,188.889,47.222,269.444,658.333,13.889,N
1709,-0.235,1.080,0.045,175.000,47.222,263.889,683.333,25.000,N
1710,-0.170,1.115,0.095,163.889,47.222,244.444,688.889,5.556,N
1711,-0.105,1.080,0.170,136.111,47.222,269.444,641.667,47.222,N
1712,0.000,1.295,0.260,166.667,50.000,244.444,661.111,19.444,N
1713,-0.010,1.230,0.190,166.667,47.222,241.667,636.111,25.000,N
1714,-0.060,1.290,0.155,163.889,41.667,236.111,644.444,8.333,N
1715,-0.080,1.180,0.045,125.000,38.889,225.000,630.556,13.889,N
1716,-0.295,1.050,-0.095,161.111,50.000,269.444,633.333,2.778,N
1717,-0.255,1.145,0.160,141.667,52.778,266.667,716.667,83.333,N
1718,0.005,1.315,0.285,169.444,47.222,258.333,708.333,8.333,N
1719,0.060,1.345,0.280,183.333,47.222,258.333,680.556,27.778,N
1720,-0.025,1.165,0.130,155.556,44.444,233.333,575.000,105.556,A
1721,-0.180,1.110,0.020,161.111,44.444,255.556,725.000,150.000,N
1722,-0.190,1.230,0.020,172.222,47.222,252.778,672.222,52.778,N
1723,-0.100,1.210,0.155,166.667,44.444,244.444,675.000,2.778,N
1724,-0.070,1.160,0.060,147.222,44.444,241.667,619.444,55.556,N
1725,-0.180,1.180,-0.030,188.889,38.889,247.222,491.667,127.778,A
1726,-0.225,1.010,0.020,172.222,52.778,269.444,750.000,258.333,N
1727,-0.210,0.930,-0.185,169.444,50.000,241.667,697.222,52.778,N
1728,-0.465,0.870,0.220,144.444,47.222,252.778,663.889,33.333,N
1729,0.375,1.600,0.635,136.111,47.222,233.333,641.667,22.222,N
1730,0.280,1.355,0.205,172.222,47.222,244.444,650.000,8.333,N
1731,-0.140,0.970,-0.095,163.889,44.444,238.889,638.889,11.111,N
1732,-0.380,0.925,-0.190,161.111,44.444,247.222,613.889,25.000,N
1733,-0.435,0.800,-0.235,155.556,41.667,216.667,611.111,2.778,N
1734,-0.445,0.935,-0.130,158.333,47.222,252.778,602.778,8.333,N
1735,-0.275,0.985,-0.005,163.889,47.222,261.111,655.556,52.778,N
1736,-0.225,1.065,0.050,172.222,47.222,241.667,672.222,16.667,N
1737,-0.130,1.265,0.220,166.667,47.222,255.556,650.000,22.222,N
1738,-0.010,1.425,0.250,169.444,47.222,213.889,652.778,2.778,N
1739,0.280,1.345,0.330,38.889,44.444,247.222,625.000,27.778,N
1740,-0.185,1.115,0.010,125.000,41.667,238.889,625.000,0.000,N
1741,-0.140,1.295,0.390,102.778,77.778,250.000,633.333,8.333,N
1742,0.315,1.495,0.560,152.778,47.222,255.556,633.333,0.000,N
1743,0.325,1.635,0.415,161.111,47.222,241.667,608.333,25.000,N
1744,0.030,1.225,0.145,158.333,63.889,244.444,658.333,50.000,N
1745,-0.105,1.140,0.055,169.444,50.000,247.222,663.889,5.556,N
1746,-0.095,1.355,0.265,158.333,69.444,286.111,675.000,11.111,N
1747,0.135,1.375,0.315,158.333,52.778,255.556,669.444,5.556,N
1748,0.100,1.375,0.225,166.667,47.222,244.444,669.444,0.000,N
1749,-0.040,1.200,0.095,175.000,47.222,261.111,669.444,0.000,N
1750,-0.095,1.125,0.050,158.333,66.667,241.667,641.667,27.778,N
1751,-0.155,1.160,0.000,172.222,69.444,261.111,613.889,27.778,N
1752,-0.235,1.070,-0.035,152.778,41.667,200.000,541.667,72.222,A
1753,-0.185,1.235,0.060,147.222,63.889,283.333,688.889,147.222,N
1754,-0.135,1.140,0.190,155.556,77.778,283.333,652.778,36.111,N
1755,-0.105,1.265,0.270,163.889,50.000,247.222,675.000,22.222,N
1756,-0.040,1.230,0.140,147.222,63.889,288.889,661.111,13.889,N
1757,-0.080,1.240,0.280,138.889,44.444,233.333,552.778,108.333,A
1758,-0.015,1.175,0.190,130.556,47.222,258.333,705.556,152.778,N
1759,-0.035,1.285,0.130,150.000,47.222,238.889,630.556,75.000,N
1760,-0.005,1.205,0.180,169.444,44.444,236.111,625.000,5.556,N
1761,-0.030,1.200,0.175,152.778,50.000,250.000,633.333,8.333,N
1762,0.025,1.275,0.260,127.778,47.222,247.222,575.000,58.333,N
1763,-0.025,1.210,0.135,155.556,50.000,269.444,675.000,100.000,N
1764,-0.090,1.035,0.090,177.778,66.667,263.889,658.333,16.667,N
1765,-0.185,0.965,0.020,183.333,47.222,233.333,658.333,0.000,N
1766,-0.160,0.960,0.165,144.444,44.444,244.444,641.667,16.667,N
1767,0.030,1.285,0.230,113.889,50.000,252.778,627.778,13.889,N
1768,-0.010,1.065,0.155,158.333,50.000,236.111,641.667,13.889,N
1769,-0.090,0.920,0.100,141.667,44.444,247.222,616.667,25.000,N
1770,-0.035,1.250,0.035,166.667,44.444,197.222,619.444,2.778,N
1771,-0.095,1.165,0.240,116.667,44.444,252.778,583.333,36.111,N
1772,-0.035,1.160,0.255,108.333,44.444,255.556,611.111,27.778,N
1773,-0.105,1.065,0.265,75.000,44.444,244.444,630.556,19.444,N
1774,0.140,1.120,0.160,155.556,47.222,236.111,661.111,30.556,N
1775,0.115,1.065,0.335,136.111,50.000,280.556,663.889,2.778,N
1776,0.035,0.550,0.050,177.778,47.222,194.444,627.778,36.111,N
1777,-0.315,0.870,0.000,163.889,75.000,272.222,622.222,5.556,N
1778,-0.070,1.220,0.205,111.111,47.222,227.778,613.889,8.333,N
1779,0.055,1.255,0.275,119.444,44.444,252.778,608.333,5.556,N
1780,0.035,1.110,0.055,147.222,44.444,236.111,613.889,5.556,N
1781,-0.250,1.015,-0.075,175.000,50.000,269.444,594.444,19.444,N
1782,-0.310,0.860,-0.040,155.556,47.222,263.889,644.444,50.000,N
1783,-0.245,0.920,0.035,150.000,50.000,258.333,663.889,19.444,N
1784,-0.125,1.015,0.050,169.444,47.222,255.556,636.111,27.778,N
1785,-0.120,1.110,0.010,158.333,55.556,261.111,636.111,0.000,N
1786,-0.120,1.030,-0.080,163.889,44.444,258.333,605.556,30.556,N
1787,-0.395,0.760,-0.020,150.000,44.444,247.222,622.222,16.667,N
1788,0.095,1.430,0.485,52.778,47.222,202.778,616.667,5.556,N
1789,0.175,1.285,0.275,130.556,44.444,208.333,594.444,22.222,N
1790,-0.040,0.870,0.065,197.222,47.222,197.222,602.778,8.333,N
1791,-0.330,0.875,-0.035,163.889,63.889,252.778,569.444,33.333,N
1792,-0.200,0.910,0.085,138.889,52.778,269.444,622.222,52.778,N
1793,-0.110,1.070,-0.020,130.556,50.000,261.111,644.444,22.222,N
1794,-0.335,0.600,-0.095,91.667,50.000,272.222,636.111,8.333,N
1795,-0.145,0.930,-0.205,100.000,69.444,269.444,644.444,8.333,N
1796,-0.265,1.105,0.100,133.333,63.889,266.667,619.444,25.000,N
1797,-0.230,1.085,-0.035,119.444,47.222,244.444,616.667,2.778,N
1798,-0.300,0.995,-0.120,147.222,47.222,238.889,616.667,0.000,N
1799,-0.310,0.955,0.195,163.889,47.222,233.333,594.444,22.222,N
1800,-0.020,1.155,0.250,161.111,50.000,275.000,608.333,13.889,N
1801,-0.055,1.045,0.135,161.111,55.556,258.333,644.444,36.111,N
1802,-0.115,0.810,-0.040,119.444,72.222,272.222,661.111,16.667,N
1803,-0.210,1.005,0.020,163.889,47.222,277.778,661.111,0.000,N
1804,-0.155,0.735,0.095,152.778,66.667,266.667,633.333,27.778,N
1805,-0.315,0.830,-0.115,183.333,58.333,266.667,627.778,5.556,N
1806,-0.280,0.850,-0.025,163.889,50.000,252.778,625.000,2.778,N
1807,-0.260,0.995,-0.005,158.333,44.444,258.333,619.444,5.556,N
1808,-0.215,0.980,-0.025,163.889,66.667,294.444,625.000,5.556,N
1809,-0.095,1.025,-0.050,77.778,44.444,219.444,555.556,69.444,A
1810,-0.285,1.105,-0.110,166.667,47.222,247.222,652.778,97.222,N
1811,-0.320,0.965,0.005,116.667,80.556,294.444,644.444,8.333,N
1812,-0.125,1.005,0.200,186.111,44.444,208.333,650.000,5.556,N
1813,-0.080,0.965,0.165,147.222,47.222,261.111,641.667,8.333,N
1814,-0.080,1.125,0.035,197.222,44.444,186.111,630.556,11.111,N
1815,-0.240,1.115,0.520,161.111,44.444,247.222,652.778,22.222,N
1816,0.190,1.170,0.255,180.556,75.000,280.556,636.111,16.667,N
1817,0.145,1.375,0.355,141.667,72.222,269.444,627.778,8.333,N
1818,0.050,1.225,0.295,158.333,55.556,269.444,605.556,22.222,N
1819,0.030,1.250,0.200,155.556,47.222,269.444,591.667,13.889,N
1820,-0.060,1.130,0.145,158.333,47.222,266.667,636.111,44.444,N
1821,-0.020,1.245,0.230,161.111,50.000,244.444,647.222,11.111,N
1822,-0.060,1.040,0.180,172.222,50.000,244.444,652.778,5.556,N
1823,-0.105,1.130,0.000,177.778,44.444,233.333,655.556,2.778,N
1824,-0.270,0.970,-0.015,161.111,44.444,247.222,611.111,44.444,N
1825,-0.275,1.070,0.015,152.778,44.444,236.111,616.667,5.556,N
1826,-0.220,1.045,0.100,161.111,44.444,241.667,591.667,25.000,N
1827,-0.155,1.150,0.135,166.667,47.222,230.556,613.889,22.222,N
1828,-0.090,1.230,0.200,163.889,44.444,238.889,619.444,5.556,N
1829,0.020,1.260,0.245,144.444,44.444,250.000,580.556,38.889,N
1830,-0.050,1.200,0.175,169.444,47.222,241.667,622.222,41.667,N
1831,-0.070,1.080,0.185,175.000,44.444,261.111,627.778,5.556,N
1832,-0.060,1.085,0.175,166.667,47.222,255.556,638.889,11.111,N
1833,-0.060,1.170,0.135,172.222,47.222,233.333,638.889,0.000,N
1834,-0.065,1.175,0.135,147.222,47.222,258.333,608.333,30.556,N
1835,-0.080,1.005,0.125,183.333,44.444,238.889,633.333,25.000,N
1836,-0.135,1.020,0.125,155.556,50.000,250.000,625.000,8.333,N
1837,-0.050,0.975,0.070,191.667,38.889,230.556,463.889,161.111,A
1838,-0.070,1.100,0.140,122.222,44.444,216.667,669.444,205.556,N
1839,-0.110,0.905,-0.125,141.667,47.222,233.333,602.778,66.667,N
1840,-0.340,0.725,-0.160,177.778,47.222,263.889,638.889,36.111,N
1841,-0.255,0.965,0.220,111.111,50.000,272.222,661.111,22.222,N
1842,0.070,1.185,0.360,116.667,63.889,266.667,661.111,0.000,N
1843,0.095,1.045,0.270,188.889,44.444,241.667,641.667,19.444,N
1844,-0.055,1.145,0.175,158.333,47.222,252.778,622.222,19.444,N
1845,-0.075,1.105,0.190,152.778,63.889,222.222,619.444,2.778,N
1846,0.030,1.200,0.225,180.556,47.222,258.333,611.111,8.333,N
1847,0.100,1.250,0.225,158.333,63.889,250.000,613.889,2.778,N
1848,-0.085,1.020,0.120,150.000,47.222,252.778,597.222,16.667,N
1849,-0.135,1.025,0.110,158.333,58.333,275.000,636.111,38.889,N
1850,-0.100,1.055,0.195,175.000,47.222,261.111,669.444,33.333,N
1851,-0.080,1.215,0.250,172.222,47.222,261.111,652.778,16.667,N
1852,0.060,1.135,0.255,163.889,47.222,236.111,647.222,5.556,N
1853,0.005,1.100,0.235,141.667,44.444,233.333,625.000,22.222,N
1854,0.000,1.135,0.205,188.889,72.222,277.778,636.111,11.111,N
1855,0.000,1.100,0.285,169.444,44.444,236.111,630.556,5.556,N
1856,0.040,1.260,0.265,158.333,47.222,219.444,602.778,27.778,N
1857,0.065,1.120,0.305,127.778,44.444,227.778,608.333,5.556,N
1858,0.050,1.160,0.265,163.889,44.444,258.333,583.333,25.000,N
1859,0.075,1.180,0.215,183.333,50.000,238.889,622.222,38.889,N
1860,-0.035,1.175,0.200,163.889,47.222,263.889,644.444,22.222,N
1861,-0.030,1.170,0.135,161.111,47.222,261.111,633.333,11.111,N
1862,-0.030,1.050,0.095,169.444,47.222,241.667,650.000,16.667,N
1863,-0.335,0.695,-0.300,161.111,41.667,255.556,630.556,19.444,N
1864,-0.585,0.555,-0.230,155.556,44.444,250.000,613.889,16.667,N
1865,-0.335,0.875,-0.005,144.444,44.444,241.667,588.889,25.000,N
1866,-0.105,0.990,0.105,152.778,47.222,247.222,619.444,30.556,N
1867,-0.110,0.770,-0.115,144.444,36.111,227.778,591.667,27.778,N
1868,-0.305,0.680,-0.120,169.444,47.222,247.222,700.000,108.333,N
1869,-0.340,0.795,-0.180,180.556,50.000,272.222,680.556,19.444,N
1870,-0.360,0.790,-0.055,172.222,80.556,283.333,666.667,13.889,N
1871,-0.200,1.005,0.040,197.222,66.667,255.556,630.556,36.111,N
1872,-0.105,1.070,0.195,138.889,44.444,250.000,619.444,11.111,N
1873,-0.020,1.095,0.230,166.667,47.222,258.333,644.444,25.000,N
1874,-0.055,1.080,0.140,183.333,44.444,250.000,619.444,25.000,N
1875,-0.115,0.890,0.040,177.778,41.667,213.889,619.444,0.000,N
1876,-0.130,1.010,0.090,116.667,47.222,227.778,613.889,5.556,N
1877,-0.095,1.005,0.115,147.222,44.444,261.111,594.444,19.444,N
1878,-0.110,1.045,0.045,152.778,44.444,252.778,558.333,36.111,N
1879,-0.235,0.880,-0.020,172.222,50.000,252.778,686.111,127.778,N
1880,-0.255,0.820,-0.085,152.778,50.000,275.000,644.444,41.667,N
1881,-0.240,0.865,-0.035,191.667,41.667,238.889,644.444,0.000,N
1882,-0.200,0.950,0.050,152.778,61.111,255.556,616.667,27.778,N
1883,-0.020,0.785,0.005,197.222,41.667,230.556,444.444,172.222,A
1884,-0.200,0.885,0.040,161.111,47.222,244.444,708.333,263.889,N
1885,-0.155,0.930,0.020,147.222,41.667,241.667,611.111,97.222,N
1886,-0.115,0.870,0.080,152.778,44.444,236.111,591.667,19.444,N
1887,-0.070,1.065,0.150,163.889,44.444,233.333,594.444,2.778,N
1888,-0.055,1.030,0.115,158.333,52.778,275.000,627.778,33.333,N
1889,-0.140,0.890,0.020,194.444,47.222,261.111,655.556,27.778,N
1890,-0.190,0.875,0.035,180.556,47.222,244.444,652.778,2.778,N
1891,-0.175,0.950,0.000,155.556,44.444,222.222,622.222,30.556,N
1892,-0.160,0.945,0.095,177.778,44.444,241.667,622.222,0.000,N
1893,-0.085,0.965,0.145,180.556,44.444,238.889,605.556,16.667,N
1894,-0.055,0.890,0.055,141.667,44.444,227.778,611.111,5.556,N
1895,-0.310,0.640,-0.175,194.444,47.222,250.000,616.667,5.556,N
1896,-0.290,0.860,0.110,116.667,44.444,244.444,586.111,30.556,N
1897,0.010,1.050,0.185,172.222,47.222,252.778,625.000,38.889,N
