id,Pamp,Ramp,Tamp,PR,QRS,QT,RRI,dRRI,label
1,-0.470,1.375,0.925,188.889,116.667,402.778,875.000,50.000,/
2,-0.465,1.315,1.225,55.556,113.889,388.889,894.444,19.444,/
3,-0.530,1.185,0.830,63.889,116.667,372.222,869.444,25.000,/
4,-0.555,1.035,1.035,58.333,105.556,372.222,836.111,33.333,/
5,-0.080,0.980,1.030,102.778,91.667,336.111,827.778,8.333,/
6,-0.315,0.980,0.925,197.222,105.556,375.000,822.222,5.556,/
7,-0.660,1.040,1.255,58.333,113.889,397.222,852.778,30.556,/
8,-0.610,0.995,1.060,55.556,111.111,391.667,866.667,13.889,/
9,-0.560,1.030,0.850,66.667,116.667,402.778,872.222,5.556,/
10,-0.115,1.070,1.040,55.556,97.222,380.556,872.222,0.000,/
11,-0.210,0.870,0.765,183.333,116.667,372.222,861.111,11.111,/
12,-0.835,1.005,1.010,58.333,116.667,369.444,822.222,38.889,/
13,-0.480,1.365,1.270,55.556,111.111,344.444,813.889,8.333,/
14,-0.295,1.655,1.060,119.444,116.667,372.222,833.333,19.444,/
15,-0.450,1.460,1.060,58.333,113.889,391.667,861.111,27.778,/
16,0.005,1.320,1.110,108.333,91.667,377.778,888.889,27.778,/
17,-0.105,1.245,0.985,197.222,108.333,388.889,872.222,16.667,/
18,-0.480,1.275,1.225,58.333,116.667,397.222,847.222,25.000,/
19,-0.425,1.370,1.095,66.667,113.889,369.444,827.778,19.444,/
20,-0.345,1.305,0.995,58.333,113.889,372.222,847.222,19.444,/
21,-0.300,1.535,1.015,58.333,116.667,391.667,836.111,11.111,/
22,0.055,1.330,0.965,155.556,113.889,388.889,847.222,11.111,/
23,-0.460,1.265,1.110,50.000,105.556,388.889,875.000,27.778,/
24,-0.375,1.340,1.385,52.778,108.333,388.889,869.444,5.556,/
25,-0.335,1.445,1.295,69.444,113.889,388.889,855.556,13.889,/
26,-0.155,1.525,1.165,58.333,108.333,377.778,825.000,30.556,/
27,0.170,1.355,1.285,80.556,88.889,355.556,816.667,8.333,/
28,0.140,1.490,0.920,197.222,116.667,405.556,825.000,8.333,/
29,-0.540,1.215,0.955,58.333,116.667,405.556,888.889,63.889,/
30,-0.445,1.250,1.115,58.333,105.556,375.000,886.111,2.778,/
31,-0.450,1.295,0.620,61.111,116.667,391.667,858.333,27.778,/
32,-0.170,1.470,0.960,58.333,116.667,388.889,855.556,2.778,/
33,-0.030,1.175,0.940,172.222,113.889,377.778,822.222,33.333,/
34,-0.515,1.230,0.825,194.444,113.889,394.444,833.333,11.111,/
35,-0.550,1.165,0.880,63.889,113.889,375.000,836.111,2.778,/
36,-0.495,1.250,1.095,69.444,116.667,391.667,858.333,22.222,/
37,-0.450,1.485,0.495,61.111,111.111,397.222,872.222,13.889,/
38,-0.010,1.605,0.690,136.111,116.667,405.556,894.444,22.222,/
39,-0.615,1.845,0.035,188.889,102.778,363.889,850.000,44.444,/
40,-2.045,1.655,0.450,35663.889,116.667,372.222,813.889,36.111,/
41,-0.725,2.225,0.600,58.333,116.667,383.333,822.222,8.333,/
42,-0.400,2.540,0.750,58.333,108.333,397.222,822.222,0.000,/
43,0.050,2.545,0.980,105.556,94.444,383.333,877.778,55.556,/
44,0.015,2.610,1.235,197.222,100.000,386.111,891.667,13.889,/
45,-0.205,2.475,1.225,58.333,113.889,383.333,875.000,16.667,/
46,-0.170,2.350,1.295,61.111,105.556,375.000,847.222,27.778,/
47,-0.335,1.885,0.765,66.667,113.889,388.889,841.667,5.556,/
48,0.085,1.480,1.245,77.778,88.889,358.333,825.000,16.667,/
49,0.075,1.575,0.740,188.889,105.556,386.111,819.444,5.556,/
50,-0.380,1.385,1.155,75.000,116.667,405.556,850.000,30.556,/
51,-0.255,1.440,1.095,69.444,116.667,402.778,877.778,27.778,/
52,-0.380,1.245,0.490,66.667,116.667,405.556,880.556,2.778,/
53,0.010,1.300,1.095,58.333,102.778,369.444,866.667,13.889,/
54,0.075,1.230,0.520,197.222,102.778,361.111,816.667,50.000,/
55,-0.545,1.210,1.270,61.111,113.889,402.778,813.889,2.778,/
56,-0.435,1.320,0.940,55.556,111.111,388.889,850.000,36.111,/
57,-0.360,1.405,0.875,63.889,116.667,405.556,866.667,16.667,/
58,0.065,1.385,1.015,52.778,94.444,375.000,875.000,8.333,/
59,0.080,1.240,0.485,197.222,111.111,391.667,872.222,2.778,/
60,-0.850,0.985,0.795,197.222,116.667,405.556,852.778,19.444,/
61,-0.555,1.305,1.035,63.889,116.667,372.222,836.111,16.667,/
62,-0.350,1.340,0.760,58.333,116.667,386.111,833.333,2.778,/
63,0.105,1.505,1.260,58.333,116.667,386.111,822.222,11.111,/
64,0.090,1.265,0.555,197.222,108.333,397.222,836.111,13.889,/
65,-0.410,1.365,1.285,69.444,116.667,405.556,891.667,55.556,/
66,-0.325,1.365,0.730,52.778,105.556,394.444,886.111,5.556,/
67,-0.325,1.345,0.910,58.333,105.556,372.222,852.778,33.333,/
68,-0.005,1.595,0.820,69.444,113.889,377.778,825.000,27.778,/
69,-0.205,1.475,0.965,194.444,108.333,369.444,827.778,2.778,/
70,-0.520,1.240,1.010,61.111,108.333,383.333,830.556,2.778,/
71,-0.430,1.355,1.090,61.111,113.889,394.444,872.222,41.667,/
72,-0.230,1.620,0.780,52.778,100.000,375.000,875.000,2.778,/
73,0.005,1.510,0.685,88.889,88.889,372.222,869.444,5.556,/
74,-0.185,1.550,0.840,194.444,116.667,405.556,863.889,5.556,/
75,-0.395,1.515,1.585,66.667,116.667,372.222,844.444,19.444,/
76,-0.230,1.595,0.980,55.556,111.111,363.889,822.222,22.222,/
77,-0.345,1.725,1.060,55.556,105.556,372.222,816.667,5.556,/
78,0.020,1.445,1.220,133.333,102.778,372.222,847.222,30.556,/
79,-0.635,1.380,0.770,197.222,108.333,397.222,869.444,22.222,/
80,-0.655,1.380,1.105,63.889,116.667,391.667,894.444,25.000,/
81,-0.375,1.540,1.280,66.667,116.667,397.222,861.111,33.333,/
82,-0.240,1.615,0.975,58.333,116.667,380.556,830.556,30.556,/
83,-0.135,1.340,0.780,166.667,111.111,391.667,819.444,11.111,/
84,-0.695,1.230,1.130,66.667,116.667,402.778,858.333,38.889,/
85,-0.515,1.415,0.860,55.556,105.556,375.000,852.778,5.556,/
86,-0.545,1.415,0.790,63.889,113.889,402.778,858.333,5.556,/
87,-0.185,1.575,1.225,58.333,116.667,402.778,875.000,16.667,/
88,0.015,1.400,0.860,188.889,111.111,388.889,855.556,19.444,/
89,-0.545,1.425,1.325,63.889,116.667,405.556,836.111,19.444,/
90,-0.380,1.440,0.975,52.778,108.333,358.333,827.778,8.333,/
91,-0.630,1.305,0.765,50.000,105.556,361.111,827.778,0.000,/
92,-0.435,1.630,0.830,58.333,116.667,405.556,836.111,8.333,/
93,-0.040,1.515,1.320,172.222,116.667,400.000,900.000,63.889,/
94,-0.505,1.520,0.945,186.111,116.667,405.556,877.778,22.222,/
95,-0.435,1.525,1.395,58.333,116.667,386.111,852.778,25.000,/
96,-0.360,1.505,1.235,61.111,111.111,375.000,838.889,13.889,/
97,-0.395,1.560,0.885,197.222,111.111,388.889,819.444,19.444,/
98,-0.125,1.375,1.035,88.889,86.111,363.889,838.889,19.444,/
99,-0.145,1.405,0.800,197.222,113.889,394.444,861.111,22.222,/
100,-0.590,1.510,1.085,63.889,113.889,402.778,866.667,5.556,/
101,-0.485,1.560,0.935,58.333,111.111,394.444,863.889,2.778,/
102,-0.420,1.590,0.950,58.333,111.111,394.444,883.333,19.444,/
103,2.100,-1.585,-0.535,69.444,5.556,341.667,730.556,152.778,V
104,0.065,1.945,1.330,58.333,116.667,375.000,808.333,77.778,/
105,0.240,1.660,1.205,163.889,116.667,375.000,816.667,8.333,/
106,-0.395,1.550,1.280,194.444,113.889,377.778,844.444,27.778,/
107,-0.435,1.525,1.270,69.444,116.667,386.111,875.000,30.556,/
108,-0.450,1.460,1.005,58.333,113.889,388.889,894.444,19.444,/
109,-0.385,1.715,1.150,66.667,113.889,388.889,866.667,27.778,/
110,0.025,1.425,1.055,116.667,97.222,355.556,833.333,33.333,/
111,-0.370,1.390,0.955,197.222,111.111,391.667,827.778,5.556,/
112,-0.555,1.370,1.290,66.667,116.667,366.667,841.667,13.889,/
113,-0.505,1.345,0.965,55.556,111.111,372.222,844.444,2.778,/
114,-0.405,1.470,0.995,58.333,116.667,402.778,855.556,11.111,/
115,0.080,1.570,1.240,91.667,91.667,369.444,877.778,22.222,/
116,-0.090,1.565,1.115,197.222,116.667,388.889,869.444,8.333,/
117,-0.465,1.540,1.510,63.889,116.667,391.667,852.778,16.667,/
118,-0.465,1.400,1.130,69.444,116.667,372.222,816.667,36.111,/
119,-0.525,1.380,1.100,61.111,116.667,375.000,813.889,2.778,/
120,-0.375,1.570,0.980,58.333,116.667,394.444,844.444,30.556,/
121,-0.135,1.325,0.980,169.444,108.333,388.889,897.222,52.778,/
122,-0.705,1.265,0.980,194.444,113.889,380.556,883.333,13.889,/
123,-0.685,1.260,1.310,58.333,116.667,372.222,861.111,22.222,/
124,-0.640,1.265,0.735,58.333,113.889,361.111,847.222,13.889,/
125,-2.045,1.080,0.720,107883.333,116.667,377.778,813.889,33.333,/
126,-0.330,1.520,1.355,69.444,113.889,388.889,830.556,16.667,/
127,0.220,1.775,1.655,194.444,113.889,394.444,833.333,2.778,/
128,-0.135,1.790,1.485,191.667,116.667,397.222,861.111,27.778,/
129,-0.270,1.690,1.625,58.333,116.667,400.000,880.556,19.444,/
130,-0.305,1.570,1.320,61.111,116.667,377.778,894.444,13.889,/
131,-0.320,1.550,1.185,88.889,105.556,369.444,841.667,52.778,/
132,0.020,1.410,1.250,69.444,100.000,352.778,813.889,27.778,/
133,0.035,1.430,1.195,186.111,105.556,372.222,819.444,5.556,/
134,-0.500,1.385,1.090,197.222,108.333,386.111,836.111,16.667,/
135,-0.490,1.395,1.425,61.111,113.889,400.000,883.333,47.222,/
136,-0.435,1.445,1.175,80.556,116.667,397.222,886.111,2.778,/
137,-0.380,1.515,0.820,83.333,116.667,388.889,869.444,16.667,/
138,-0.495,1.435,0.940,58.333,116.667,380.556,841.667,27.778,/
139,-0.170,1.355,1.010,155.556,116.667,372.222,841.667,0.000,/
140,-0.610,1.240,0.700,194.444,105.556,369.444,822.222,19.444,/
141,-0.885,1.340,1.125,55.556,111.111,391.667,822.222,0.000,/
142,-0.505,1.620,1.310,58.333,111.111,397.222,861.111,38.889,/
143,-0.175,1.835,1.310,63.889,113.889,402.778,875.000,13.889,/
144,-0.440,1.930,0.740,94.444,111.111,394.444,880.556,5.556,/
145,-0.285,1.565,0.995,108.333,100.000,375.000,855.556,25.000,/
146,0.050,1.745,1.445,194.444,111.111,361.111,825.000,30.556,/
147,-0.165,1.790,1.570,58.333,111.111,394.444,816.667,8.333,/
148,-0.185,1.740,1.175,52.778,108.333,363.889,861.111,44.444,/
149,-0.335,1.500,1.080,75.000,113.889,391.667,872.222,11.111,/
150,-0.430,1.480,0.880,55.556,108.333,380.556,863.889,8.333,/
151,-0.915,0.850,-0.420,86.111,88.889,377.778,861.111,2.778,/
152,-2.045,0.970,0.305,130877.778,113.889,388.889,844.444,16.667,/
153,-2.045,1.135,0.790,131711.111,111.111,388.889,833.333,11.111,/
154,-0.515,1.555,1.455,58.333,111.111,361.111,827.778,5.556,/
155,0.090,2.260,1.405,72.222,116.667,386.111,830.556,2.778,/
156,0.030,2.135,0.950,52.778,105.556,394.444,852.778,22.222,/
157,0.200,1.900,1.010,69.444,113.889,402.778,905.556,52.778,/
158,0.200,1.745,1.205,197.222,116.667,391.667,869.444,36.111,/
159,-0.260,1.695,0.795,186.111,116.667,405.556,836.111,33.333,/
160,-0.295,1.655,1.255,61.111,116.667,377.778,830.556,5.556,/
161,-0.295,1.510,0.880,72.222,116.667,388.889,822.222,8.333,/
162,-0.915,1.065,-0.160,180.556,111.111,400.000,841.667,19.444,/
163,-0.615,1.210,0.510,75.000,116.667,405.556,872.222,30.556,/
164,-0.270,1.530,1.055,197.222,113.889,391.667,875.000,2.778,/
165,-0.380,1.640,1.235,61.111,116.667,405.556,863.889,11.111,/
166,-0.245,1.575,1.170,61.111,113.889,375.000,872.222,8.333,/
167,-0.405,1.205,0.465,52.778,102.778,388.889,822.222,50.000,/
168,-0.420,1.520,0.650,58.333,116.667,388.889,813.889,8.333,/
169,-0.035,1.310,0.995,144.444,108.333,391.667,825.000,11.111,/
170,-0.355,1.455,1.005,63.889,116.667,400.000,852.778,27.778,/
171,-0.350,1.435,0.950,55.556,108.333,397.222,891.667,38.889,/
172,-0.430,1.315,1.095,58.333,116.667,391.667,894.444,2.778,/
173,-0.340,1.475,0.535,197.222,105.556,383.333,850.000,44.444,/
174,-0.145,1.330,0.800,94.444,88.889,369.444,813.889,36.111,/
175,-0.115,1.335,0.835,197.222,105.556,375.000,841.667,27.778,/
176,-0.770,1.235,0.685,58.333,108.333,397.222,836.111,5.556,/
177,-0.500,1.425,1.130,58.333,108.333,386.111,855.556,19.444,/
178,-0.200,1.680,0.695,86.111,97.222,386.111,866.667,11.111,/
179,0.090,1.600,1.080,58.333,105.556,391.667,875.000,8.333,/
180,0.085,1.450,0.895,194.444,100.000,366.667,858.333,16.667,/
181,-2.045,0.645,-0.235,155550.000,105.556,388.889,841.667,16.667,/
182,-2.045,0.775,0.465,156363.889,116.667,369.444,813.889,27.778,/
183,-0.520,1.495,0.765,63.889,113.889,391.667,813.889,0.000,/
184,-0.165,1.880,0.805,58.333,116.667,405.556,869.444,55.556,/
185,0.115,1.770,1.385,166.667,113.889,394.444,894.444,25.000,/
186,-0.060,1.755,0.935,197.222,116.667,391.667,877.778,16.667,/
187,-0.080,1.755,1.400,61.111,113.889,366.667,847.222,30.556,/
188,0.000,1.745,1.080,77.778,108.333,355.556,836.111,11.111,/
189,-0.490,1.550,0.500,197.222,111.111,377.778,822.222,13.889,/
190,-0.300,1.325,0.725,136.111,102.778,372.222,838.889,16.667,/
191,-0.480,1.355,1.020,72.222,116.667,397.222,850.000,11.111,/
192,-0.375,1.450,0.945,63.889,116.667,388.889,861.111,11.111,/
193,-0.375,1.335,0.965,80.556,116.667,405.556,886.111,25.000,/
194,-0.335,1.450,0.675,55.556,105.556,377.778,872.222,13.889,/
195,-0.045,1.275,0.620,119.444,91.667,347.222,825.000,47.222,/
196,-0.395,1.260,0.965,194.444,108.333,352.778,811.111,13.889,/
197,-0.385,1.390,1.020,75.000,113.889,363.889,830.556,19.444,/
198,-0.285,1.355,0.670,61.111,111.111,394.444,850.000,19.444,/
199,-0.340,1.505,0.995,61.111,116.667,405.556,891.667,41.667,/
200,-0.140,1.185,0.525,111.111,97.222,380.556,877.778,13.889,/
201,-0.455,1.060,0.755,197.222,116.667,383.333,861.111,16.667,/
202,-0.620,1.165,0.875,52.778,102.778,361.111,830.556,30.556,/
203,-0.525,1.175,0.535,58.333,111.111,355.556,841.667,11.111,/
204,-0.490,1.210,0.800,63.889,116.667,369.444,830.556,11.111,/
205,-0.145,1.225,0.715,83.333,88.889,372.222,833.333,2.778,/
206,-0.180,1.220,0.885,197.222,113.889,397.222,872.222,38.889,/
207,-0.495,1.215,0.880,69.444,116.667,405.556,872.222,0.000,/
208,-0.445,1.310,0.675,58.333,113.889,380.556,869.444,2.778,/
209,-0.395,1.340,0.925,69.444,116.667,377.778,838.889,30.556,/
210,-0.010,1.475,0.945,55.556,102.778,363.889,819.444,19.444,/
211,0.010,1.315,0.815,197.222,108.333,377.778,819.444,0.000,/
212,-0.645,1.120,0.990,172.222,111.111,391.667,875.000,55.556,/
213,-0.510,1.300,1.000,75.000,113.889,391.667,883.333,8.333,/
214,-0.455,1.330,1.005,61.111,116.667,400.000,863.889,19.444,/
215,-0.370,1.750,1.020,58.333,116.667,386.111,861.111,2.778,/
216,-0.020,1.685,1.255,150.000,116.667,372.222,830.556,30.556,/
217,-0.350,1.790,1.120,197.222,113.889,377.778,825.000,5.556,/
218,-0.400,1.740,1.355,66.667,113.889,358.333,838.889,13.889,/
219,-0.410,1.625,1.000,58.333,113.889,375.000,847.222,8.333,/
220,-0.355,1.755,1.030,66.667,116.667,394.444,855.556,8.333,/
221,-0.105,1.600,1.015,100.000,91.667,380.556,894.444,38.889,/
222,-0.185,1.510,0.885,197.222,113.889,375.000,866.667,27.778,/
223,-0.675,1.410,1.115,58.333,113.889,383.333,830.556,36.111,/
224,-0.485,1.590,1.070,58.333,108.333,361.111,813.889,16.667,/
225,-0.515,1.480,0.870,55.556,108.333,372.222,833.333,19.444,/
226,-0.540,1.735,1.025,63.889,116.667,391.667,858.333,25.000,/
227,-0.160,1.495,0.965,127.778,91.667,363.889,891.667,33.333,/
228,-0.515,1.440,0.810,197.222,113.889,391.667,869.444,22.222,/
229,-0.730,1.460,1.140,63.889,116.667,391.667,855.556,13.889,/
230,-0.675,1.035,1.035,75.000,116.667,366.667,841.667,13.889,/
231,-0.430,1.435,1.100,86.111,116.667,380.556,830.556,11.111,/
232,-0.380,1.705,1.310,69.444,116.667,372.222,827.778,2.778,/
233,0.030,1.505,1.190,116.667,94.444,358.333,833.333,5.556,/
234,-0.210,1.365,0.880,197.222,108.333,383.333,877.778,44.444,/
235,-0.535,1.430,1.090,66.667,116.667,405.556,875.000,2.778,/
236,-0.455,1.485,0.915,94.444,116.667,358.333,877.778,2.778,/
237,-0.470,1.435,0.690,55.556,108.333,375.000,836.111,41.667,/
238,-0.490,1.605,0.960,77.778,116.667,375.000,816.667,19.444,/
239,-0.055,1.535,1.020,111.111,97.222,369.444,830.556,13.889,/
240,-0.095,1.530,0.795,197.222,97.222,383.333,869.444,38.889,/
241,-0.545,1.540,0.710,61.111,111.111,391.667,875.000,5.556,/
242,-0.535,1.460,1.380,72.222,116.667,372.222,863.889,11.111,/
243,-0.380,1.605,1.075,58.333,108.333,358.333,872.222,8.333,/
244,-0.410,1.585,0.940,63.889,113.889,377.778,830.556,41.667,/
245,-0.070,1.545,0.825,58.333,108.333,386.111,830.556,0.000,/
246,-0.110,1.420,0.705,172.222,111.111,400.000,819.444,11.111,/
247,-0.520,1.305,1.120,58.333,108.333,383.333,833.333,13.889,/
248,-0.375,1.520,1.485,52.778,102.778,388.889,872.222,38.889,/
249,-0.380,1.380,0.680,80.556,116.667,397.222,908.333,36.111,/
250,-0.365,1.415,0.775,58.333,108.333,391.667,866.667,41.667,/
251,0.045,1.550,1.465,55.556,105.556,352.778,833.333,33.333,/
252,0.130,1.465,0.720,180.556,116.667,380.556,822.222,11.111,/
253,-0.510,1.355,0.575,61.111,113.889,400.000,816.667,5.556,/
254,-0.535,1.285,0.870,63.889,105.556,383.333,855.556,38.889,/
255,-2.045,0.695,-0.255,218486.111,108.333,383.333,866.667,11.111,/
256,-2.045,1.065,0.075,219352.778,102.778,388.889,866.667,0.000,/
257,-0.145,1.765,1.390,58.333,116.667,402.778,872.222,5.556,/
258,0.290,1.790,1.005,177.778,94.444,344.444,863.889,8.333,/
259,-0.650,1.385,0.335,197.222,105.556,372.222,816.667,47.222,/
260,-0.490,1.685,0.835,58.333,116.667,386.111,808.333,8.333,/
261,-0.075,1.860,0.570,52.778,108.333,391.667,838.889,30.556,/
262,-0.630,1.575,0.720,91.667,116.667,405.556,863.889,25.000,/
263,-0.235,1.790,0.620,77.778,116.667,397.222,894.444,30.556,/
264,0.025,1.895,0.745,163.889,111.111,383.333,877.778,16.667,/
265,-0.255,1.785,1.150,52.778,105.556,377.778,847.222,30.556,/
266,-0.185,1.795,1.450,55.556,111.111,355.556,819.444,27.778,/
267,-0.185,1.770,0.495,66.667,116.667,377.778,841.667,22.222,/
268,-0.195,1.890,0.850,58.333,108.333,388.889,838.889,2.778,/
269,-0.155,1.575,0.860,75.000,94.444,380.556,852.778,13.889,/
270,-0.440,1.440,0.195,197.222,116.667,394.444,877.778,25.000,/
271,-0.490,1.655,1.040,55.556,113.889,402.778,861.111,16.667,/
272,-0.150,1.770,1.325,75.000,113.889,383.333,855.556,5.556,/
273,-0.150,1.605,0.560,150.000,116.667,400.000,833.333,22.222,/
274,-0.015,1.640,1.105,55.556,108.333,369.444,819.444,13.889,/
275,0.155,1.490,0.725,169.444,100.000,383.333,825.000,5.556,/
276,-0.605,1.125,0.500,191.667,111.111,394.444,894.444,69.444,/
277,-0.520,1.215,1.115,58.333,116.667,391.667,886.111,8.333,/
278,-0.450,1.170,-0.025,75.000,116.667,405.556,855.556,30.556,/
279,-0.425,1.395,0.535,197.222,116.667,405.556,847.222,8.333,/
280,-0.220,0.940,0.835,113.889,86.111,358.333,816.667,30.556,/
281,-0.330,1.070,0.505,197.222,113.889,402.778,830.556,13.889,/
282,-0.495,1.350,1.010,58.333,111.111,397.222,844.444,13.889,/
283,-0.325,1.475,1.040,58.333,105.556,386.111,861.111,16.667,/
284,-0.405,1.415,0.435,69.444,116.667,405.556,863.889,2.778,/
285,-0.120,1.495,0.870,66.667,113.889,386.111,894.444,30.556,/
286,-0.230,1.270,-0.020,191.667,105.556,375.000,841.667,52.778,/
287,-2.045,1.030,0.330,245711.111,116.667,402.778,813.889,27.778,/
288,-0.720,1.370,0.665,61.111,111.111,372.222,822.222,8.333,/
289,-0.225,1.750,1.435,77.778,111.111,391.667,833.333,11.111,/
290,0.160,2.140,1.085,58.333,116.667,402.778,877.778,44.444,/
291,0.205,1.765,0.850,138.889,116.667,405.556,894.444,16.667,/
292,-0.430,1.450,0.935,191.667,111.111,366.667,872.222,22.222,/
293,-0.630,1.350,0.640,91.667,108.333,352.778,836.111,36.111,/
294,-0.545,1.460,0.440,69.444,111.111,391.667,836.111,0.000,/
295,-0.455,1.625,0.630,66.667,116.667,400.000,825.000,11.111,/
296,-0.225,1.250,0.730,116.667,100.000,375.000,827.778,2.778,/
297,-0.585,1.415,0.615,188.889,113.889,402.778,852.778,25.000,/
298,-0.460,1.505,0.765,63.889,113.889,391.667,877.778,25.000,/
299,-0.540,1.370,0.415,69.444,116.667,397.222,883.333,5.556,/
300,-0.545,1.530,0.755,58.333,111.111,377.778,863.889,19.444,/
301,-0.180,1.360,1.035,116.667,105.556,355.556,825.000,38.889,/
302,-0.545,1.340,0.475,194.444,111.111,380.556,808.333,16.667,/
303,-0.610,1.260,0.770,77.778,105.556,386.111,850.000,41.667,/
304,-0.400,1.470,-0.290,58.333,116.667,402.778,677.778,172.222,V
305,-0.460,1.485,0.605,61.111,113.889,388.889,944.444,266.667,/
306,-0.580,1.435,0.895,94.444,116.667,394.444,858.333,86.111,/
307,-0.150,1.255,1.010,141.667,102.778,372.222,861.111,2.778,/
308,-0.520,1.395,1.060,144.444,116.667,366.667,827.778,33.333,/
309,-0.675,1.055,1.035,55.556,111.111,358.333,830.556,2.778,/
310,-0.560,1.270,0.910,66.667,116.667,375.000,819.444,11.111,/
311,-0.765,1.110,0.640,58.333,116.667,402.778,838.889,19.444,/
312,-0.260,1.300,1.030,116.667,88.889,377.778,883.333,44.444,/
313,-0.305,1.550,1.340,197.222,116.667,397.222,900.000,16.667,/
314,-0.275,1.480,1.630,63.889,116.667,363.889,861.111,38.889,/
315,-0.255,1.530,1.160,50.000,97.222,355.556,819.444,41.667,/
316,-0.305,1.350,1.145,58.333,108.333,372.222,825.000,5.556,/
317,0.065,1.375,1.240,86.111,88.889,361.111,827.778,2.778,/
318,-0.125,1.320,1.005,197.222,116.667,405.556,861.111,33.333,/
319,-0.575,1.255,1.140,58.333,116.667,405.556,875.000,13.889,/
320,-0.445,1.285,1.120,63.889,116.667,391.667,872.222,2.778,/
321,-0.355,1.415,0.950,50.000,102.778,391.667,855.556,16.667,/
322,0.160,1.545,1.260,52.778,100.000,366.667,852.778,2.778,/
323,0.210,1.335,0.965,194.444,108.333,361.111,819.444,33.333,/
324,-0.490,1.300,1.430,55.556,105.556,388.889,813.889,5.556,/
325,-0.500,1.355,0.835,61.111,116.667,394.444,844.444,30.556,/
326,-0.405,1.365,0.960,69.444,113.889,400.000,872.222,27.778,/
327,-0.125,1.565,0.990,58.333,116.667,405.556,894.444,22.222,/
328,-0.035,1.195,1.085,166.667,116.667,388.889,866.667,27.778,/
329,-0.525,1.230,0.930,188.889,105.556,372.222,838.889,27.778,/
330,-0.570,1.240,1.150,63.889,116.667,369.444,813.889,25.000,/
331,-0.500,1.230,0.480,55.556,105.556,375.000,852.778,38.889,/
332,-0.470,1.650,1.005,63.889,116.667,405.556,847.222,5.556,/
333,-0.060,1.140,1.020,150.000,111.111,400.000,863.889,16.667,/
334,-0.565,1.320,0.980,197.222,102.778,391.667,869.444,5.556,/
335,-0.480,1.335,1.270,63.889,113.889,375.000,863.889,5.556,/
336,-0.585,1.240,0.750,55.556,108.333,377.778,838.889,25.000,/
337,-0.680,1.235,0.640,52.778,111.111,377.778,838.889,0.000,/
338,-0.040,1.460,1.355,97.222,94.444,358.333,822.222,16.667,/
339,-0.010,1.610,0.885,197.222,113.889,402.778,830.556,8.333,/
340,-0.350,1.540,1.515,55.556,108.333,397.222,894.444,63.889,/
341,-0.350,1.480,1.325,58.333,111.111,394.444,886.111,8.333,/
342,-0.350,1.500,0.885,52.778,108.333,391.667,863.889,22.222,/
343,-0.165,1.485,0.975,58.333,116.667,402.778,825.000,38.889,/
344,0.000,1.270,1.200,180.556,105.556,369.444,825.000,0.000,/
345,-0.520,1.345,1.050,188.889,116.667,405.556,830.556,5.556,/
346,-0.560,1.670,1.255,66.667,116.667,377.778,861.111,30.556,/
347,-0.430,1.865,0.880,80.556,116.667,405.556,866.667,5.556,/
348,-0.435,2.005,0.625,58.333,116.667,397.222,863.889,2.778,/
349,-0.405,1.530,0.525,169.444,91.667,377.778,875.000,11.111,/
350,-0.745,1.375,1.070,63.889,116.667,375.000,844.444,30.556,/
351,-0.375,1.635,1.255,80.556,116.667,355.556,819.444,25.000,/
352,-0.480,1.425,0.675,72.222,116.667,388.889,816.667,2.778,/
353,-0.465,1.660,1.105,58.333,116.667,386.111,852.778,36.111,/
354,-0.020,1.615,0.820,155.556,113.889,402.778,877.778,25.000,/
355,-0.655,1.375,0.815,63.889,116.667,405.556,891.667,13.889,/
356,-0.595,1.400,1.335,58.333,108.333,377.778,866.667,25.000,/
357,-0.560,1.350,1.055,66.667,105.556,375.000,830.556,36.111,/
358,-0.530,1.555,1.190,63.889,116.667,397.222,825.000,5.556,/
359,-0.065,1.490,0.965,119.444,105.556,380.556,838.889,13.889,/
360,-0.525,1.355,0.870,197.222,102.778,375.000,847.222,8.333,/
361,-0.520,1.430,1.425,58.333,111.111,380.556,858.333,11.111,/
362,-0.400,1.500,0.725,55.556,111.111,386.111,880.556,22.222,/
363,-0.595,1.490,1.005,52.778,105.556,388.889,863.889,16.667,/
364,-0.200,1.510,1.015,102.778,91.667,377.778,847.222,16.667,/
365,-0.275,1.475,1.070,197.222,113.889,377.778,825.000,22.222,/
366,-0.500,1.495,1.640,58.333,113.889,358.333,819.444,5.556,/
367,-0.410,1.810,1.065,58.333,116.667,405.556,838.889,19.444,/
368,-0.385,1.730,1.190,55.556,105.556,388.889,905.556,66.667,/
369,-0.075,1.395,1.220,94.444,91.667,375.000,883.333,22.222,/
370,-0.165,1.500,1.035,197.222,111.111,391.667,852.778,30.556,/
371,-0.465,1.530,1.670,58.333,116.667,372.222,841.667,11.111,/
372,-0.340,1.615,1.090,66.667,116.667,391.667,813.889,27.778,/
373,-0.695,1.280,0.570,183.333,116.667,402.778,836.111,22.222,/
374,-0.465,1.265,1.010,83.333,94.444,375.000,844.444,8.333,/
375,-0.215,1.610,1.110,197.222,111.111,394.444,863.889,19.444,/
376,-0.275,1.760,1.685,58.333,113.889,402.778,872.222,8.333,/
377,-0.195,1.765,1.295,61.111,111.111,383.333,897.222,25.000,/
378,-0.215,1.680,1.120,69.444,113.889,386.111,838.889,58.333,/
379,0.130,1.560,1.250,77.778,88.889,350.000,811.111,27.778,/
380,-0.025,1.550,1.085,197.222,102.778,372.222,825.000,13.889,/
381,-0.465,1.505,1.335,55.556,111.111,400.000,836.111,11.111,/
382,-0.410,1.495,1.205,52.778,108.333,397.222,883.333,47.222,/
383,-0.450,1.495,0.690,191.667,108.333,394.444,883.333,0.000,/
384,-0.310,1.415,0.955,69.444,111.111,377.778,866.667,16.667,/
385,-0.050,1.625,1.345,197.222,116.667,377.778,838.889,27.778,/
386,-0.250,1.720,1.460,61.111,116.667,400.000,844.444,5.556,/
387,-0.315,1.690,0.990,127.778,111.111,377.778,819.444,25.000,/
388,-0.435,1.540,0.960,72.222,116.667,405.556,825.000,5.556,/
389,-0.230,1.655,0.955,58.333,116.667,405.556,863.889,38.889,/
390,-0.135,1.365,0.930,175.000,108.333,391.667,875.000,11.111,/
391,-0.560,1.525,1.130,69.444,113.889,400.000,877.778,2.778,/
392,-0.340,1.595,1.400,63.889,116.667,363.889,858.333,19.444,/
393,-0.290,1.540,1.310,52.778,105.556,355.556,827.778,30.556,/
394,-0.315,1.745,1.160,69.444,116.667,386.111,813.889,13.889,/
395,0.010,1.485,1.150,147.222,108.333,391.667,855.556,41.667,/
396,-0.580,1.470,1.050,194.444,113.889,402.778,872.222,16.667,/
397,-0.465,1.550,1.480,61.111,113.889,388.889,866.667,5.556,/
398,-0.330,1.620,1.310,61.111,116.667,391.667,869.444,2.778,/
399,-0.365,1.695,1.100,55.556,111.111,377.778,844.444,25.000,/
400,-0.100,1.330,1.040,127.778,94.444,363.889,827.778,16.667,/
401,-0.565,1.285,0.870,197.222,111.111,375.000,836.111,8.333,/
402,-0.715,1.275,1.255,55.556,105.556,361.111,830.556,5.556,/
403,-0.540,1.475,1.200,52.778,105.556,388.889,850.000,19.444,/
404,-0.400,1.685,1.085,72.222,105.556,394.444,900.000,50.000,/
405,-0.105,1.435,1.065,113.889,94.444,369.444,875.000,25.000,/
406,-0.330,1.355,0.985,197.222,105.556,372.222,841.667,33.333,/
407,-0.625,1.335,1.435,55.556,111.111,369.444,822.222,19.444,/
408,-0.450,1.515,1.275,66.667,113.889,372.222,819.444,2.778,/
409,-0.380,1.530,1.160,58.333,111.111,394.444,844.444,25.000,/
410,-0.055,1.460,1.165,86.111,88.889,361.111,877.778,33.333,/
411,-0.250,1.410,1.025,197.222,111.111,388.889,875.000,2.778,/
412,-0.610,1.480,1.435,63.889,116.667,405.556,855.556,19.444,/
413,-0.435,1.545,1.280,66.667,116.667,391.667,863.889,8.333,/
414,-0.425,1.500,1.130,58.333,111.111,377.778,827.778,36.111,/
415,-0.110,1.385,1.125,47.222,94.444,347.222,816.667,11.111,/
416,-0.140,1.335,1.055,183.333,113.889,388.889,822.222,5.556,/
417,-0.635,1.385,1.150,58.333,108.333,391.667,861.111,38.889,/
418,-0.475,1.480,1.390,63.889,116.667,386.111,891.667,30.556,/
419,-0.310,1.630,1.230,55.556,105.556,375.000,888.889,2.778,/
420,-0.720,1.480,0.910,188.889,116.667,369.444,850.000,38.889,/
421,-0.415,1.305,1.110,152.778,108.333,372.222,816.667,33.333,/
422,-0.455,1.680,1.455,55.556,108.333,375.000,833.333,16.667,/
423,-0.260,1.745,1.835,63.889,113.889,375.000,838.889,5.556,/
424,-0.235,1.665,1.355,72.222,116.667,383.333,858.333,19.444,/
425,-0.265,1.725,1.280,127.778,111.111,391.667,872.222,13.889,/
426,-0.030,1.435,0.900,113.889,97.222,366.667,872.222,0.000,/
427,-0.515,1.400,0.515,197.222,113.889,369.444,855.556,16.667,/
428,-2.045,1.495,0.985,365591.667,113.889,369.444,841.667,13.889,/
429,-2.045,1.515,0.145,366408.333,113.889,361.111,816.667,25.000,/
430,-2.045,1.465,0.840,367222.222,116.667,397.222,813.889,2.778,/
431,0.065,2.060,1.620,58.333,116.667,402.778,866.667,52.778,/
432,0.310,1.850,0.715,180.556,111.111,391.667,900.000,33.333,/
433,-2.045,1.110,0.390,369869.444,108.333,375.000,880.556,19.444,/
434,-0.820,1.330,1.470,66.667,116.667,363.889,841.667,38.889,/
435,-0.135,1.890,1.385,63.889,116.667,375.000,833.333,8.333,/
436,0.125,2.040,1.620,58.333,113.889,377.778,822.222,11.111,/
437,0.480,1.820,1.400,97.222,91.667,363.889,844.444,22.222,/
438,0.415,1.985,0.795,197.222,113.889,391.667,844.444,0.000,/
439,-2.045,1.200,0.730,374919.444,113.889,402.778,863.889,19.444,/
440,-0.530,1.595,1.355,58.333,113.889,388.889,888.889,25.000,/
441,-0.125,1.780,1.105,63.889,116.667,388.889,872.222,16.667,/
442,-0.025,1.950,1.355,58.333,116.667,372.222,827.778,44.444,/
443,0.270,1.650,1.090,141.667,102.778,358.333,808.333,19.444,/
444,-0.365,1.480,1.115,197.222,116.667,386.111,830.556,22.222,/
445,-0.160,1.825,1.220,52.778,105.556,391.667,852.778,22.222,/
446,-0.395,1.470,0.905,69.444,113.889,402.778,897.222,44.444,/
447,-0.425,1.565,1.140,61.111,111.111,391.667,875.000,22.222,/
448,-0.610,1.390,0.075,194.444,113.889,388.889,850.000,25.000,/
449,-0.875,1.145,0.610,122.222,102.778,386.111,825.000,25.000,/
450,-0.490,1.660,1.095,197.222,113.889,358.333,844.444,19.444,/
451,-0.065,2.015,2.085,61.111,111.111,386.111,830.556,13.889,/
452,0.120,2.150,1.110,58.333,105.556,361.111,836.111,5.556,/
453,-0.030,1.945,1.085,55.556,105.556,386.111,875.000,38.889,/
454,-0.125,1.815,0.750,58.333,116.667,394.444,869.444,5.556,/
455,-0.945,0.900,-0.200,138.889,105.556,391.667,863.889,5.556,/
456,-2.045,1.170,0.150,389402.778,113.889,391.667,836.111,27.778,/
457,-0.765,1.100,0.855,69.444,116.667,386.111,825.000,11.111,/
458,-0.380,1.975,0.895,58.333,102.778,383.333,822.222,2.778,/
459,-0.390,2.085,0.630,55.556,113.889,402.778,880.556,58.333,/
460,0.025,1.900,1.095,69.444,113.889,402.778,880.556,0.000,/
461,0.095,1.905,1.280,194.444,111.111,394.444,861.111,19.444,/
462,-0.120,1.915,2.025,66.667,116.667,402.778,858.333,2.778,/
463,-0.015,1.960,1.780,63.889,116.667,375.000,827.778,30.556,/
464,0.220,2.150,1.705,66.667,116.667,400.000,827.778,0.000,/
465,0.335,2.155,1.265,58.333,116.667,386.111,844.444,16.667,/
466,0.290,1.550,1.205,180.556,116.667,372.222,847.222,2.778,/
467,-0.425,1.410,0.715,188.889,111.111,400.000,858.333,11.111,/
468,-0.495,1.440,0.685,52.778,111.111,397.222,897.222,38.889,/
469,-0.430,1.440,0.785,58.333,116.667,397.222,863.889,33.333,/
470,-0.285,1.350,0.830,58.333,116.667,380.556,830.556,33.333,/
471,-0.275,1.175,0.400,186.111,113.889,391.667,811.111,19.444,/
472,-0.620,1.440,0.805,58.333,113.889,402.778,833.333,22.222,/
473,-0.415,1.375,0.640,55.556,111.111,400.000,858.333,25.000,/
474,-0.380,1.415,0.715,55.556,111.111,394.444,888.889,30.556,/
475,-0.220,1.255,0.785,86.111,88.889,363.889,872.222,16.667,/
476,-0.425,1.235,0.485,197.222,113.889,402.778,847.222,25.000,/
477,-0.495,1.335,0.975,58.333,111.111,391.667,844.444,2.778,/
478,-0.360,1.350,0.760,55.556,108.333,380.556,827.778,16.667,/
479,-0.285,1.585,1.010,63.889,111.111,375.000,825.000,2.778,/
480,0.025,1.340,0.900,130.556,97.222,377.778,833.333,8.333,/
481,-0.560,1.260,0.515,61.111,116.667,402.778,880.556,47.222,/
482,-0.480,1.320,0.745,61.111,116.667,386.111,883.333,2.778,/
483,-0.425,1.330,0.790,66.667,116.667,405.556,875.000,8.333,/
484,0.165,1.610,1.035,55.556,102.778,377.778,833.333,41.667,/
485,0.210,1.315,0.785,197.222,113.889,388.889,816.667,16.667,/
486,-0.580,1.255,1.545,66.667,116.667,388.889,833.333,16.667,/
487,-0.570,1.190,0.940,66.667,113.889,391.667,863.889,30.556,/
488,-0.615,1.355,0.820,61.111,111.111,391.667,877.778,13.889,/
489,-0.095,1.360,1.080,144.444,105.556,391.667,863.889,13.889,/
490,-0.350,1.515,0.875,61.111,108.333,397.222,869.444,5.556,/
491,-0.175,1.750,1.175,58.333,113.889,380.556,830.556,38.889,/
492,-0.035,1.995,1.320,69.444,105.556,377.778,830.556,0.000,/
493,0.140,1.865,0.760,75.000,116.667,405.556,825.000,5.556,/
494,-0.055,1.735,0.775,197.222,116.667,391.667,836.111,11.111,/
495,-0.550,1.520,0.810,58.333,105.556,388.889,875.000,38.889,/
496,-0.880,1.330,0.690,58.333,116.667,391.667,908.333,33.333,/
497,-0.665,1.580,0.485,58.333,116.667,386.111,872.222,36.111,/
498,-0.345,1.405,0.545,175.000,116.667,377.778,825.000,47.222,/
499,-0.645,1.300,1.365,50.000,102.778,372.222,825.000,0.000,/
500,-0.615,1.310,0.510,55.556,108.333,391.667,819.444,5.556,/
501,-0.690,1.345,0.595,63.889,113.889,402.778,858.333,38.889,/
502,-0.250,1.090,1.035,130.556,100.000,388.889,866.667,8.333,/
503,-0.360,1.450,1.095,50.000,105.556,394.444,872.222,5.556,/
504,-0.340,1.470,1.180,52.778,108.333,391.667,863.889,8.333,/
505,-0.240,1.490,1.100,66.667,116.667,388.889,863.889,0.000,/
506,0.005,1.405,0.740,97.222,88.889,361.111,819.444,44.444,/
507,-0.340,1.285,0.610,197.222,113.889,397.222,811.111,8.333,/
508,-0.575,1.160,0.540,55.556,108.333,363.889,841.667,30.556,/
509,-0.525,1.380,0.545,50.000,105.556,391.667,866.667,25.000,/
510,0.145,1.490,0.880,83.333,91.667,380.556,894.444,27.778,/
511,-0.045,1.465,0.940,197.222,108.333,391.667,872.222,22.222,/
512,-0.300,1.440,1.270,80.556,113.889,344.444,838.889,33.333,/
513,-0.145,1.495,0.525,91.667,116.667,405.556,819.444,19.444,/
514,-0.135,1.215,0.520,77.778,116.667,391.667,844.444,25.000,/
515,-0.550,1.315,0.665,188.889,113.889,402.778,838.889,5.556,/
516,-0.400,1.555,0.685,55.556,102.778,375.000,855.556,16.667,/
517,-0.220,1.625,0.750,63.889,116.667,405.556,875.000,19.444,/
518,0.080,1.530,0.715,69.444,113.889,394.444,866.667,8.333,/
519,-0.235,1.355,0.885,194.444,97.222,380.556,850.000,16.667,/
520,-0.650,1.155,1.030,75.000,116.667,369.444,827.778,22.222,/
521,-0.495,1.180,0.925,50.000,105.556,363.889,825.000,2.778,/
522,-0.130,1.180,0.835,69.444,111.111,391.667,830.556,5.556,/
523,-0.540,1.210,1.430,197.222,113.889,397.222,897.222,66.667,/
524,-0.390,1.450,1.175,58.333,113.889,394.444,880.556,16.667,/
525,-0.285,1.550,1.330,66.667,116.667,405.556,858.333,22.222,/
526,0.155,1.465,1.025,66.667,111.111,391.667,844.444,13.889,/
527,-0.060,1.260,1.295,197.222,113.889,386.111,813.889,30.556,/
528,-0.335,1.395,1.050,55.556,111.111,375.000,833.333,19.444,/
529,-0.410,1.455,0.895,63.889,111.111,388.889,852.778,19.444,/
530,0.060,1.555,1.095,80.556,88.889,375.000,858.333,5.556,/
531,-0.275,1.535,0.970,197.222,116.667,402.778,866.667,8.333,/
532,-0.445,1.485,1.135,69.444,116.667,375.000,894.444,27.778,/
533,-0.445,1.360,0.980,61.111,111.111,380.556,844.444,50.000,/
534,-0.050,1.270,1.095,83.333,86.111,350.000,811.111,33.333,/
535,-0.540,1.105,1.115,197.222,105.556,372.222,819.444,8.333,/
536,-0.635,1.375,0.975,58.333,111.111,394.444,836.111,16.667,/
537,-0.675,1.445,0.655,52.778,105.556,394.444,877.778,41.667,/
538,-0.385,1.275,0.895,102.778,94.444,375.000,891.667,13.889,/
539,-0.565,1.575,1.400,61.111,113.889,380.556,866.667,25.000,/
540,-0.370,1.685,1.400,55.556,113.889,380.556,833.333,33.333,/
541,-0.085,1.860,1.120,55.556,108.333,375.000,844.444,11.111,/
542,0.195,1.645,1.140,130.556,97.222,377.778,819.444,25.000,/
543,-0.265,1.690,1.670,55.556,100.000,388.889,822.222,2.778,/
544,-0.175,1.715,0.810,50.000,97.222,383.333,861.111,38.889,/
545,-0.300,1.705,0.700,75.000,113.889,402.778,880.556,19.444,/
546,-0.075,1.410,0.575,169.444,116.667,405.556,877.778,2.778,/
547,-0.625,1.475,0.945,175.000,113.889,391.667,861.111,16.667,/
548,-0.590,1.425,0.545,91.667,116.667,388.889,825.000,36.111,/
549,-0.445,1.685,0.715,58.333,116.667,405.556,813.889,11.111,/
550,-0.185,1.475,1.065,194.444,105.556,388.889,852.778,38.889,/
551,-0.645,1.395,0.920,55.556,108.333,397.222,869.444,16.667,/
552,-0.440,1.565,0.770,66.667,113.889,402.778,872.222,2.778,/
553,-0.005,1.745,1.085,58.333,113.889,402.778,866.667,5.556,/
554,-0.100,1.235,0.815,197.222,97.222,377.778,847.222,19.444,/
555,-0.550,1.235,1.250,58.333,113.889,372.222,833.333,13.889,/
556,-0.410,1.400,0.685,61.111,113.889,386.111,836.111,2.778,/
557,0.035,1.605,0.840,58.333,105.556,388.889,825.000,11.111,/
558,-0.150,1.500,0.855,197.222,116.667,405.556,844.444,19.444,/
559,-0.570,1.370,0.980,61.111,116.667,391.667,897.222,52.778,/
560,-0.570,1.315,0.865,66.667,113.889,402.778,883.333,13.889,/
561,-0.190,1.145,0.950,83.333,83.333,341.667,850.000,33.333,/
562,-0.600,1.110,1.200,197.222,102.778,361.111,819.444,30.556,/
563,-0.635,1.140,1.020,63.889,116.667,361.111,825.000,5.556,/
564,-0.490,1.345,1.130,63.889,113.889,391.667,836.111,11.111,/
565,-0.060,1.295,1.015,130.556,94.444,363.889,877.778,41.667,/
566,-0.910,1.010,1.175,177.778,111.111,397.222,866.667,11.111,/
567,-0.520,1.320,1.325,58.333,116.667,391.667,861.111,5.556,/
568,-0.130,1.815,1.550,88.889,111.111,380.556,869.444,8.333,/
569,0.300,1.480,1.625,163.889,105.556,358.333,833.333,36.111,/
570,-0.080,1.625,1.485,55.556,111.111,350.000,819.444,13.889,/
571,-0.240,1.480,0.965,55.556,105.556,369.444,816.667,2.778,/
572,-0.145,1.615,1.245,58.333,116.667,386.111,861.111,44.444,/
573,0.020,1.405,0.965,194.444,108.333,397.222,886.111,25.000,/
574,-0.425,1.405,1.230,55.556,111.111,363.889,886.111,0.000,/
575,-0.335,1.385,1.175,58.333,111.111,377.778,850.000,36.111,/
576,-0.050,1.220,0.740,80.556,94.444,372.222,819.444,30.556,/
577,-0.555,1.090,0.715,197.222,105.556,391.667,827.778,8.333,/
578,-0.945,0.910,0.545,50.000,102.778,361.111,847.222,19.444,/
579,-2.045,0.945,0.505,494038.889,111.111,391.667,855.556,8.333,/
580,-0.285,1.190,1.175,141.667,108.333,388.889,866.667,11.111,/
581,-0.335,1.570,1.335,58.333,116.667,391.667,880.556,13.889,/
582,-0.555,1.870,0.715,52.778,105.556,375.000,847.222,33.333,/
583,-0.415,1.955,1.045,58.333,116.667,383.333,838.889,8.333,/
584,0.135,1.670,1.460,188.889,113.889,391.667,819.444,19.444,/
585,-0.170,1.625,1.420,191.667,116.667,366.667,827.778,8.333,/
586,-0.315,1.600,1.245,75.000,116.667,405.556,852.778,25.000,/
587,-0.035,1.570,0.620,61.111,94.444,372.222,905.556,52.778,/
588,-0.885,1.055,0.805,197.222,116.667,397.222,880.556,25.000,/
589,-0.705,1.495,1.250,55.556,113.889,366.667,844.444,36.111,/
590,-0.300,1.685,0.940,58.333,116.667,386.111,830.556,13.889,/
591,0.025,1.595,1.030,102.778,91.667,377.778,813.889,16.667,/
592,-0.525,1.485,1.000,183.333,113.889,402.778,844.444,30.556,/
593,-0.515,1.700,-0.425,58.333,116.667,402.778,727.778,116.667,V
594,-0.400,1.820,1.020,52.778,100.000,380.556,925.000,197.222,/
595,0.235,1.960,1.520,75.000,116.667,402.778,872.222,52.778,/
596,0.055,1.845,1.065,197.222,116.667,391.667,877.778,5.556,/
597,-0.360,1.470,1.045,61.111,116.667,372.222,830.556,47.222,/
598,-0.370,1.495,1.120,61.111,113.889,383.333,808.333,22.222,/
599,-0.165,1.335,0.675,127.778,97.222,375.000,822.222,13.889,/
600,-0.615,1.385,1.335,63.889,113.889,402.778,850.000,27.778,/
601,-0.530,1.530,0.850,61.111,105.556,388.889,888.889,38.889,/
602,-0.485,1.790,0.810,55.556,111.111,397.222,888.889,0.000,/
603,0.020,1.610,1.195,186.111,102.778,372.222,863.889,25.000,/
604,-0.250,1.715,1.315,58.333,111.111,363.889,822.222,41.667,/
605,-0.605,1.375,0.585,61.111,113.889,391.667,836.111,13.889,/
606,-0.195,1.375,1.045,61.111,108.333,375.000,827.778,8.333,/
607,-0.330,1.325,0.620,197.222,100.000,377.778,841.667,13.889,/
608,-0.700,1.310,0.920,97.222,116.667,397.222,863.889,22.222,/
609,-0.630,1.455,0.780,100.000,113.889,391.667,883.333,19.444,/
610,-0.335,1.425,0.610,133.333,100.000,377.778,869.444,13.889,/
611,-0.505,1.685,1.565,66.667,116.667,380.556,850.000,19.444,/
612,-0.180,1.825,1.075,50.000,100.000,358.333,816.667,33.333,/
613,-0.035,2.015,1.160,58.333,116.667,394.444,813.889,2.778,/
614,0.155,1.570,1.115,194.444,116.667,394.444,863.889,50.000,/
615,-0.475,1.635,1.110,52.778,102.778,375.000,888.889,25.000,/
616,-0.405,1.655,1.085,61.111,111.111,386.111,877.778,11.111,/
617,0.075,1.635,0.915,77.778,86.111,358.333,855.556,22.222,/
618,-0.415,1.450,0.465,197.222,105.556,391.667,838.889,16.667,/
619,-0.830,1.425,0.515,63.889,116.667,377.778,819.444,19.444,/
620,-0.800,1.485,0.750,66.667,113.889,372.222,838.889,19.444,/
621,-0.335,1.455,0.680,138.889,102.778,377.778,838.889,0.000,/
622,-0.475,1.500,1.290,61.111,116.667,405.556,858.333,19.444,/
623,-0.120,1.775,1.180,66.667,116.667,405.556,886.111,27.778,/
624,-0.120,1.855,1.000,58.333,116.667,391.667,883.333,2.778,/
625,-0.030,1.370,0.890,191.667,116.667,369.444,838.889,44.444,/
626,-0.495,1.390,1.385,58.333,113.889,358.333,811.111,27.778,/
627,-0.255,1.445,1.060,44.444,94.444,347.222,833.333,22.222,/
628,0.130,1.625,1.110,75.000,97.222,363.889,847.222,13.889,/
629,-0.390,1.540,1.000,197.222,116.667,394.444,886.111,38.889,/
630,-0.545,1.515,0.690,69.444,116.667,402.778,869.444,16.667,/
631,-0.575,1.345,0.945,61.111,111.111,377.778,858.333,11.111,/
632,-0.060,1.400,0.870,125.000,91.667,375.000,847.222,11.111,/
633,-0.625,1.210,0.950,197.222,113.889,391.667,838.889,8.333,/
634,-0.590,1.300,1.025,58.333,116.667,369.444,825.000,13.889,/
635,-0.620,1.370,0.855,66.667,116.667,391.667,827.778,2.778,/
636,-0.050,1.210,1.295,186.111,111.111,394.444,872.222,44.444,/
637,-0.420,1.580,1.290,61.111,113.889,380.556,875.000,2.778,/
638,-0.800,0.995,0.580,75.000,113.889,397.222,875.000,0.000,/
639,-0.660,1.325,0.805,58.333,116.667,394.444,838.889,36.111,/
640,-0.060,1.325,0.940,183.333,116.667,402.778,822.222,16.667,/
641,-0.200,1.660,1.370,80.556,116.667,380.556,827.778,5.556,/
642,-0.095,1.660,1.415,83.333,111.111,388.889,866.667,38.889,/
643,0.280,1.825,1.095,47.222,97.222,369.444,869.444,2.778,/
644,0.095,1.405,0.830,197.222,111.111,388.889,863.889,5.556,/
645,-0.435,1.290,1.155,66.667,116.667,358.333,872.222,8.333,/
646,-0.435,1.355,0.690,66.667,111.111,383.333,833.333,38.889,/
647,-0.185,1.410,0.580,63.889,113.889,380.556,827.778,5.556,/
648,-0.250,1.200,0.700,194.444,97.222,363.889,825.000,2.778,/
649,-0.550,1.110,1.190,52.778,102.778,352.778,836.111,11.111,/
650,-0.410,1.265,1.320,55.556,105.556,391.667,863.889,27.778,/
651,0.005,1.870,0.860,58.333,116.667,397.222,908.333,44.444,/
652,-0.155,1.660,0.875,197.222,116.667,386.111,869.444,38.889,/
653,-0.500,1.485,1.565,66.667,116.667,363.889,838.889,30.556,/
654,-0.440,1.130,1.020,63.889,111.111,361.111,822.222,16.667,/
655,-0.305,1.470,1.400,58.333,116.667,383.333,816.667,5.556,/
656,0.370,1.915,1.405,188.889,111.111,388.889,852.778,36.111,/
657,-0.600,1.320,1.505,194.444,113.889,388.889,866.667,13.889,/
658,-0.590,1.285,0.990,58.333,116.667,391.667,872.222,5.556,/
659,-0.280,1.830,1.375,58.333,116.667,400.000,869.444,2.778,/
660,0.270,1.570,1.360,166.667,105.556,363.889,863.889,5.556,/
661,-0.390,1.285,1.460,197.222,113.889,380.556,825.000,38.889,/
662,-0.380,1.365,0.925,63.889,116.667,372.222,805.556,19.444,/
663,-0.365,1.470,1.020,50.000,102.778,391.667,830.556,25.000,/
664,-0.030,1.275,0.925,147.222,113.889,400.000,866.667,36.111,/
665,-0.595,1.270,0.720,61.111,111.111,397.222,894.444,27.778,/
666,-0.930,1.085,0.490,66.667,113.889,388.889,872.222,22.222,/
667,-0.690,1.270,0.930,63.889,116.667,380.556,850.000,22.222,/
668,-0.005,1.420,1.005,69.444,97.222,383.333,819.444,30.556,/
669,-0.155,1.500,1.425,197.222,111.111,372.222,844.444,25.000,/
670,-0.205,1.605,1.140,77.778,116.667,361.111,833.333,11.111,/
671,-0.245,1.475,1.150,61.111,113.889,394.444,850.000,16.667,/
672,0.090,1.415,1.050,55.556,102.778,391.667,875.000,25.000,/
673,0.005,1.390,1.255,191.667,116.667,402.778,866.667,8.333,/
674,-0.400,1.200,1.300,150.000,111.111,361.111,858.333,8.333,/
675,-0.510,1.205,0.780,55.556,108.333,369.444,827.778,30.556,/
676,-0.930,1.030,0.480,197.222,113.889,375.000,819.444,8.333,/
677,-0.510,1.105,0.725,172.222,102.778,391.667,825.000,5.556,/
678,-0.645,1.245,1.195,58.333,116.667,405.556,894.444,69.444,/
679,-0.290,1.575,1.345,58.333,116.667,402.778,886.111,8.333,/
680,-0.215,1.510,0.820,177.778,111.111,400.000,858.333,27.778,/
681,0.065,1.325,1.195,111.111,94.444,361.111,852.778,5.556,/
682,-0.285,1.230,1.270,197.222,97.222,375.000,816.667,36.111,/
683,-0.380,1.250,0.950,163.889,116.667,380.556,833.333,16.667,/
684,-0.675,0.920,0.805,147.222,116.667,391.667,838.889,5.556,/
685,-0.155,1.240,1.185,55.556,102.778,386.111,855.556,16.667,/
686,-0.005,1.505,1.030,197.222,108.333,391.667,869.444,13.889,/
687,-0.335,1.795,1.335,61.111,111.111,377.778,900.000,30.556,/
688,-0.385,1.745,1.075,75.000,108.333,375.000,850.000,50.000,/
689,-0.115,1.785,1.095,58.333,113.889,375.000,819.444,30.556,/
690,-0.075,1.620,1.145,180.556,116.667,388.889,819.444,0.000,/
691,-0.555,1.595,0.855,47.222,100.000,386.111,827.778,8.333,/
692,-0.640,1.660,0.575,61.111,113.889,402.778,875.000,47.222,/
693,-0.460,1.835,0.925,58.333,116.667,391.667,894.444,19.444,/
694,-0.295,1.655,0.580,175.000,116.667,394.444,866.667,27.778,/
695,-0.370,1.350,-0.820,158.333,116.667,394.444,619.444,247.222,V
696,-0.485,1.970,1.305,58.333,111.111,372.222,911.111,291.667,/
697,-0.405,1.860,1.130,69.444,116.667,386.111,827.778,83.333,/
698,-0.165,1.875,0.730,58.333,116.667,397.222,825.000,2.778,/
699,-0.245,1.775,0.630,188.889,105.556,394.444,838.889,13.889,/
700,-0.495,1.860,1.360,63.889,111.111,375.000,877.778,38.889,/
701,-0.380,1.970,0.855,63.889,113.889,388.889,883.333,5.556,/
702,-0.100,2.080,1.095,63.889,111.111,355.556,869.444,13.889,/
703,-0.225,1.870,0.775,197.222,105.556,377.778,825.000,44.444,/
704,-0.665,1.775,1.165,58.333,116.667,372.222,813.889,11.111,/
705,-0.545,1.955,1.065,58.333,116.667,397.222,841.667,27.778,/
706,-0.165,2.100,0.855,58.333,116.667,397.222,866.667,25.000,/
707,-0.130,1.705,1.095,197.222,116.667,388.889,872.222,5.556,/
708,-0.330,1.730,1.635,75.000,116.667,383.333,866.667,5.556,/
709,-0.115,1.890,1.020,58.333,116.667,380.556,866.667,0.000,/
710,-0.065,1.915,1.090,55.556,113.889,377.778,827.778,38.889,/
711,-0.020,1.700,1.205,180.556,111.111,388.889,827.778,0.000,/
712,-0.420,1.660,1.015,55.556,108.333,372.222,825.000,2.778,/
713,-0.635,1.455,0.615,58.333,108.333,394.444,838.889,13.889,/
714,-0.430,1.665,0.855,58.333,116.667,405.556,880.556,41.667,/
715,-0.365,1.375,0.580,194.444,116.667,386.111,900.000,19.444,/
716,-0.800,1.390,1.115,69.444,116.667,375.000,863.889,36.111,/
717,-0.775,1.375,0.510,75.000,116.667,375.000,825.000,38.889,/
718,-0.680,1.615,0.645,58.333,116.667,377.778,822.222,2.778,/
719,-0.295,1.680,1.105,183.333,116.667,402.778,822.222,0.000,/
720,-0.285,1.965,1.595,66.667,116.667,391.667,863.889,41.667,/
721,-0.305,1.800,0.970,66.667,113.889,394.444,877.778,13.889,/
722,-0.095,1.980,-0.665,58.333,116.667,405.556,650.000,227.778,V
723,0.245,1.995,1.245,61.111,102.778,383.333,919.444,269.444,/
724,-0.060,1.505,1.030,197.222,108.333,375.000,858.333,61.111,/
725,-0.610,1.180,1.355,55.556,108.333,344.444,816.667,41.667,/
726,-0.405,1.375,1.155,69.444,116.667,386.111,813.889,2.778,/
727,0.085,1.555,1.295,80.556,86.111,375.000,830.556,16.667,/
728,-0.235,1.515,1.205,197.222,105.556,394.444,869.444,38.889,/
729,-0.305,1.570,1.345,58.333,113.889,377.778,891.667,22.222,/
730,-0.200,1.675,1.195,61.111,113.889,377.778,883.333,8.333,/
731,0.210,1.515,1.300,105.556,94.444,344.444,844.444,38.889,/
732,-0.390,1.405,1.240,197.222,113.889,402.778,811.111,33.333,/
733,-0.355,1.540,1.260,55.556,108.333,377.778,838.889,27.778,/
734,-0.340,1.540,1.215,47.222,102.778,388.889,844.444,5.556,/
735,0.150,1.525,1.220,133.333,100.000,375.000,861.111,16.667,/
736,-0.480,1.430,1.555,186.111,116.667,405.556,872.222,11.111,/
737,-0.520,1.325,1.060,55.556,111.111,380.556,869.444,2.778,/
738,-0.385,1.715,1.275,52.778,108.333,375.000,850.000,19.444,/
739,0.045,1.335,0.700,161.111,105.556,375.000,833.333,16.667,/
740,-0.475,1.435,1.185,52.778,102.778,358.333,813.889,19.444,/
741,-0.465,1.390,0.660,83.333,116.667,394.444,827.778,13.889,/
742,-0.425,1.755,0.785,58.333,116.667,405.556,883.333,55.556,/
743,-0.630,1.535,0.165,194.444,108.333,388.889,894.444,11.111,/
744,-2.045,1.040,-2.045,634111.111,116.667,-634052.778,875.000,19.444,/
745,-2.045,0.960,-0.460,634944.444,116.667,380.556,833.333,41.667,/
746,-0.735,2.400,0.705,58.333,116.667,361.111,830.556,2.778,/
747,0.040,2.670,1.605,177.778,105.556,375.000,825.000,5.556,/
748,0.380,2.885,2.210,58.333,105.556,377.778,850.000,25.000,/
749,0.540,2.765,1.950,116.667,111.111,400.000,861.111,11.111,/
750,0.760,2.405,1.760,58.333,116.667,405.556,866.667,5.556,/
751,0.460,1.915,1.295,194.444,94.444,375.000,875.000,8.333,/
752,-0.045,1.665,1.375,91.667,108.333,347.222,863.889,11.111,/
753,-0.100,1.505,1.140,55.556,105.556,352.778,827.778,36.111,/
754,0.130,1.445,0.915,66.667,113.889,377.778,811.111,16.667,/
755,-0.200,1.300,0.820,197.222,116.667,391.667,836.111,25.000,/
756,-0.560,1.230,1.025,86.111,116.667,366.667,872.222,36.111,/
757,-0.445,1.260,0.720,100.000,108.333,397.222,897.222,25.000,/
758,-0.135,1.255,0.740,69.444,116.667,383.333,866.667,30.556,/
759,-0.315,1.080,0.725,194.444,113.889,375.000,838.889,27.778,/
760,-0.605,1.205,1.020,58.333,116.667,366.667,833.333,5.556,/
761,-0.540,1.265,0.655,88.889,116.667,372.222,838.889,5.556,/
762,-0.180,1.175,0.740,69.444,113.889,372.222,836.111,2.778,/
763,-0.470,1.205,0.720,197.222,111.111,400.000,847.222,11.111,/
764,-0.625,1.245,0.920,58.333,108.333,372.222,880.556,33.333,/
765,-0.570,1.295,0.765,80.556,94.444,375.000,866.667,13.889,/
766,-0.185,1.325,0.770,72.222,100.000,386.111,858.333,8.333,/
767,-0.305,1.305,0.845,197.222,113.889,369.444,822.222,36.111,/
768,-0.575,1.285,1.210,52.778,100.000,330.556,816.667,5.556,/
769,-0.510,1.540,0.765,63.889,116.667,397.222,836.111,19.444,/
770,-0.580,1.605,0.360,66.667,116.667,388.889,891.667,55.556,/
771,-0.925,1.645,0.495,197.222,111.111,380.556,883.333,8.333,/
772,-0.685,2.055,0.895,80.556,116.667,372.222,861.111,22.222,/
773,-0.560,2.250,0.750,130.556,113.889,372.222,850.000,11.111,/
774,-0.170,2.405,1.035,69.444,116.667,386.111,819.444,30.556,/
775,-0.015,2.320,1.150,194.444,111.111,377.778,827.778,8.333,/
776,-0.285,2.300,1.440,63.889,113.889,388.889,833.333,5.556,/
777,-0.100,2.270,1.295,52.778,102.778,386.111,855.556,22.222,/
778,-0.130,2.330,1.070,63.889,116.667,402.778,877.778,22.222,/
779,0.075,2.285,1.210,197.222,116.667,397.222,900.000,22.222,/
780,-0.110,2.430,1.665,58.333,116.667,377.778,850.000,50.000,/
781,-0.060,2.280,1.155,52.778,102.778,363.889,819.444,30.556,/
782,-0.445,1.965,0.755,133.333,116.667,386.111,822.222,2.778,/
783,-0.325,1.565,0.585,158.333,102.778,391.667,827.778,5.556,/
784,-0.825,1.410,0.515,58.333,113.889,400.000,875.000,47.222,/
785,-0.805,1.315,0.565,58.333,108.333,391.667,886.111,11.111,/
786,-0.745,1.395,0.405,94.444,111.111,397.222,866.667,19.444,/
787,-0.360,1.300,0.510,102.778,91.667,372.222,847.222,19.444,/
788,-0.740,1.350,0.740,197.222,116.667,375.000,847.222,0.000,/
789,-0.665,1.510,0.865,61.111,108.333,352.778,822.222,25.000,/
790,-0.585,1.670,0.650,55.556,102.778,369.444,813.889,8.333,/
791,-0.350,1.990,0.930,58.333,116.667,397.222,852.778,38.889,/
792,-0.330,1.925,0.930,186.111,116.667,405.556,875.000,22.222,/
793,-0.505,2.015,1.540,55.556,113.889,386.111,888.889,13.889,/
794,-0.360,2.150,1.230,52.778,102.778,361.111,858.333,30.556,/
795,-0.340,2.280,1.290,55.556,111.111,352.778,830.556,27.778,/
796,-0.135,1.720,0.970,150.000,111.111,375.000,816.667,13.889,/
797,-0.525,1.240,1.280,63.889,116.667,405.556,852.778,36.111,/
798,-0.285,1.815,1.380,69.444,108.333,375.000,858.333,5.556,/
799,-0.165,1.995,1.415,58.333,116.667,388.889,861.111,2.778,/
800,0.190,1.540,1.380,80.556,86.111,372.222,872.222,11.111,/
801,-0.015,1.900,1.085,197.222,111.111,383.333,852.778,19.444,/
802,-0.475,1.880,0.980,188.889,116.667,380.556,838.889,13.889,/
803,-0.520,1.900,0.755,69.444,116.667,383.333,827.778,11.111,/
804,-0.360,2.185,0.885,58.333,116.667,388.889,825.000,2.778,/
805,-0.055,2.195,0.615,150.000,113.889,391.667,844.444,19.444,/
806,-0.435,2.310,0.940,166.667,105.556,383.333,902.778,58.333,/
807,-0.585,2.045,1.015,58.333,102.778,380.556,880.556,22.222,/
808,-0.465,1.935,0.915,63.889,111.111,383.333,850.000,30.556,/
809,-0.225,1.780,0.770,58.333,116.667,397.222,830.556,19.444,/
810,-0.260,1.520,0.665,194.444,116.667,397.222,816.667,13.889,/
811,-0.700,1.600,0.965,58.333,116.667,405.556,841.667,25.000,/
812,-0.550,1.600,0.645,94.444,111.111,394.444,858.333,16.667,/
813,-0.495,1.615,0.735,72.222,116.667,397.222,875.000,16.667,/
814,-0.165,1.640,0.425,102.778,97.222,386.111,863.889,11.111,/
815,-0.695,1.495,0.475,197.222,116.667,402.778,880.556,16.667,/
816,-0.640,1.620,1.025,61.111,102.778,369.444,830.556,50.000,/
817,-0.465,1.625,0.830,72.222,108.333,372.222,813.889,16.667,/
818,-0.650,1.745,0.585,61.111,116.667,394.444,819.444,5.556,/
819,-0.225,1.375,0.645,161.111,105.556,386.111,847.222,27.778,/
820,-0.720,1.715,0.845,72.222,116.667,405.556,891.667,44.444,/
821,-0.615,1.720,0.385,188.889,113.889,380.556,894.444,2.778,/
822,-0.490,1.645,0.645,61.111,113.889,391.667,855.556,38.889,/
823,0.005,1.775,0.950,47.222,94.444,366.667,822.222,33.333,/
824,-0.095,1.710,0.625,197.222,111.111,391.667,838.889,16.667,/
825,-0.490,1.685,1.045,58.333,108.333,372.222,833.333,5.556,/
826,-0.320,1.755,0.715,50.000,102.778,377.778,841.667,8.333,/
827,-0.445,1.840,0.510,91.667,116.667,405.556,866.667,25.000,/
828,-0.220,1.590,0.680,161.111,111.111,388.889,875.000,8.333,/
829,-0.590,1.600,0.625,63.889,113.889,402.778,869.444,5.556,/
830,-0.695,1.485,0.375,55.556,108.333,358.333,841.667,27.778,/
831,-0.690,1.590,0.680,58.333,116.667,383.333,816.667,25.000,/
832,-0.480,1.495,0.245,97.222,94.444,383.333,813.889,2.778,/
833,-0.740,1.650,0.320,197.222,116.667,405.556,863.889,50.000,/
834,-0.600,1.725,0.810,75.000,113.889,388.889,888.889,25.000,/
835,-0.660,1.720,0.390,75.000,102.778,391.667,875.000,13.889,/
836,-0.500,1.670,0.690,58.333,111.111,380.556,858.333,16.667,/
837,-0.175,1.895,1.140,188.889,116.667,366.667,838.889,19.444,/
838,-0.590,1.940,0.770,177.778,94.444,361.111,819.444,19.444,/
839,-2.045,1.305,0.665,714891.667,108.333,369.444,838.889,19.444,/
840,-0.475,1.855,0.575,58.333,105.556,388.889,844.444,5.556,/
841,-0.375,1.505,0.560,130.556,102.778,391.667,858.333,13.889,/
842,-0.340,1.940,1.170,58.333,113.889,400.000,886.111,27.778,/
843,-0.160,1.820,1.600,58.333,116.667,377.778,877.778,8.333,/
844,0.070,1.975,1.500,52.778,105.556,358.333,836.111,41.667,/
845,0.515,1.900,1.600,66.667,88.889,347.222,813.889,22.222,/
846,0.355,1.850,1.150,197.222,116.667,375.000,830.556,16.667,/
847,-0.220,1.875,1.420,58.333,111.111,388.889,844.444,13.889,/
848,-0.325,1.600,1.140,47.222,102.778,388.889,891.667,47.222,/
849,-0.230,1.760,1.045,61.111,116.667,405.556,877.778,13.889,/
850,0.025,1.400,1.195,186.111,108.333,377.778,861.111,16.667,/
851,-0.245,1.750,1.330,47.222,97.222,363.889,836.111,25.000,/
852,-0.320,1.635,0.820,136.111,116.667,372.222,838.889,2.778,/
853,-0.430,1.750,1.015,58.333,113.889,361.111,827.778,11.111,/
854,-0.310,1.285,0.670,158.333,116.667,391.667,822.222,5.556,/
855,-0.770,1.315,1.155,116.667,116.667,405.556,869.444,47.222,/
856,-0.700,1.315,0.570,61.111,111.111,400.000,875.000,5.556,/
857,-0.695,1.400,0.865,63.889,116.667,391.667,880.556,5.556,/
858,-0.335,1.405,0.390,127.778,97.222,369.444,838.889,41.667,/
859,-0.895,1.105,0.620,55.556,105.556,391.667,822.222,16.667,/
860,-0.800,1.070,0.845,58.333,116.667,397.222,819.444,2.778,/
861,-0.595,1.245,0.610,61.111,108.333,394.444,869.444,50.000,/
862,-0.175,1.280,1.030,113.889,97.222,386.111,872.222,2.778,/
863,-0.460,1.680,0.875,66.667,113.889,394.444,863.889,8.333,/
864,-0.450,2.110,0.785,55.556,111.111,386.111,872.222,8.333,/
865,-0.470,1.835,1.115,66.667,116.667,386.111,836.111,36.111,/
866,0.175,1.930,1.030,86.111,88.889,352.778,827.778,8.333,/
867,-0.125,1.695,1.080,197.222,97.222,355.556,833.333,5.556,/
868,-0.300,1.885,1.245,58.333,116.667,350.000,841.667,8.333,/
869,-0.465,1.835,0.440,194.444,113.889,397.222,858.333,16.667,/
870,-0.305,1.885,0.825,61.111,111.111,397.222,894.444,36.111,/
871,-0.200,1.965,1.125,197.222,102.778,377.778,877.778,16.667,/
872,-0.355,1.970,1.145,75.000,111.111,363.889,836.111,41.667,/
873,-0.285,1.945,1.045,61.111,111.111,375.000,822.222,13.889,/
874,-0.045,2.215,1.225,63.889,116.667,388.889,822.222,0.000,/
875,0.080,1.965,0.805,197.222,100.000,388.889,852.778,30.556,/
876,-0.495,1.770,1.140,63.889,108.333,369.444,888.889,36.111,/
877,-0.570,1.725,0.680,75.000,113.889,397.222,872.222,16.667,/
878,-0.650,1.805,0.560,75.000,116.667,391.667,855.556,16.667,/
879,-0.375,1.600,0.635,166.667,105.556,377.778,852.778,2.778,/
880,-0.770,1.540,0.895,55.556,105.556,383.333,830.556,22.222,/
881,-0.700,1.590,0.565,66.667,116.667,372.222,819.444,11.111,/
882,-0.565,1.760,0.790,69.444,116.667,397.222,827.778,8.333,/
883,-0.230,1.700,0.605,133.333,97.222,386.111,869.444,41.667,/
884,-0.625,1.720,0.725,69.444,116.667,405.556,888.889,19.444,/
885,-0.615,1.460,0.535,80.556,116.667,391.667,888.889,0.000,/
886,-2.045,1.385,-0.490,754958.333,100.000,372.222,838.889,50.000,/
887,-2.045,-2.340,-0.640,755580.556,50.000,222.222,622.222,216.667,V
888,-0.965,2.295,0.375,75.000,111.111,400.000,766.667,144.444,/
889,-0.435,2.460,0.560,116.667,111.111,375.000,852.778,86.111,/
890,-0.295,2.825,1.235,58.333,105.556,394.444,861.111,8.333,/
891,-0.055,3.185,1.410,58.333,116.667,377.778,863.889,2.778,/
892,0.095,3.155,1.430,58.333,108.333,383.333,875.000,11.111,/
893,0.315,2.995,1.655,91.667,108.333,369.444,850.000,25.000,/
894,0.265,3.005,1.695,63.889,113.889,388.889,836.111,13.889,/
895,0.330,2.855,1.515,77.778,116.667,347.222,819.444,16.667,/
896,0.235,2.520,1.190,88.889,113.889,372.222,822.222,2.778,/
897,0.335,2.310,0.945,75.000,97.222,386.111,858.333,36.111,/
898,-0.170,2.010,0.690,197.222,102.778,386.111,908.333,50.000,/
899,-0.520,1.885,0.845,61.111,113.889,372.222,877.778,30.556,/
900,-0.530,1.765,0.415,52.778,100.000,375.000,847.222,30.556,/
901,-0.600,1.815,0.430,63.889,113.889,380.556,830.556,16.667,/
902,-0.400,1.730,0.630,183.333,111.111,380.556,816.667,13.889,/
903,-0.710,1.860,0.755,111.111,116.667,405.556,838.889,22.222,/
904,-0.590,1.975,0.740,58.333,116.667,402.778,855.556,16.667,/
905,-0.455,2.160,0.885,58.333,111.111,391.667,872.222,16.667,/
906,-0.175,2.055,0.810,108.333,102.778,391.667,875.000,2.778,/
907,-0.495,2.020,0.725,197.222,113.889,388.889,877.778,2.778,/
908,-0.555,2.080,1.060,55.556,111.111,358.333,827.778,50.000,/
909,-0.495,2.090,0.795,63.889,116.667,372.222,811.111,16.667,/
910,-0.450,2.180,0.895,58.333,116.667,388.889,827.778,16.667,/
911,-0.115,2.135,0.865,172.222,111.111,391.667,844.444,16.667,/
912,-0.540,2.160,0.805,58.333,111.111,400.000,897.222,52.778,/
913,-0.435,2.220,0.915,58.333,108.333,394.444,880.556,16.667,/
914,-0.415,2.280,0.885,63.889,116.667,380.556,858.333,22.222,/
915,-0.050,2.275,0.960,66.667,105.556,372.222,827.778,30.556,/
916,-0.150,2.250,0.960,183.333,113.889,361.111,841.667,13.889,/
917,-0.550,2.205,1.460,75.000,116.667,377.778,830.556,11.111,/
918,-0.425,2.205,1.035,63.889,111.111,391.667,833.333,2.778,/
919,-0.340,2.290,0.920,50.000,100.000,388.889,869.444,36.111,/
920,-0.030,2.305,0.995,100.000,102.778,388.889,875.000,5.556,/
921,-0.165,2.405,1.150,194.444,105.556,386.111,869.444,5.556,/
922,-0.215,-1.865,0.745,197.222,5.556,186.111,725.000,144.444,V
923,-0.105,2.620,1.510,69.444,116.667,391.667,752.778,27.778,/
924,-0.265,2.425,1.115,55.556,111.111,369.444,813.889,61.111,/
925,-0.340,2.300,0.735,55.556,105.556,380.556,869.444,55.556,/
926,-0.175,2.210,0.710,63.889,108.333,397.222,877.778,8.333,/
927,-0.355,2.020,0.535,197.222,113.889,400.000,866.667,11.111,/
928,-0.850,1.950,0.680,75.000,116.667,402.778,866.667,0.000,/
929,-0.860,1.920,0.480,69.444,116.667,375.000,836.111,30.556,/
930,-0.880,1.840,0.420,63.889,116.667,394.444,827.778,8.333,/
931,-0.530,1.925,0.585,61.111,116.667,375.000,836.111,8.333,/
932,-0.460,1.590,0.330,194.444,116.667,372.222,838.889,2.778,/
933,-2.045,1.095,0.570,794444.444,108.333,397.222,852.778,13.889,/
934,-0.600,1.850,1.325,66.667,116.667,394.444,894.444,41.667,/
935,-0.205,1.860,1.040,77.778,116.667,400.000,875.000,19.444,/
936,0.010,2.015,1.350,58.333,113.889,375.000,836.111,38.889,/
937,0.200,1.810,1.320,169.444,111.111,372.222,816.667,19.444,/
938,-0.325,1.745,1.035,72.222,113.889,402.778,825.000,8.333,/
939,-0.290,2.035,0.875,75.000,116.667,386.111,852.778,27.778,/
940,-0.430,-2.050,0.690,175.000,2.778,172.222,836.111,16.667,V
941,-0.185,2.240,1.135,127.778,108.333,394.444,802.778,33.333,/
942,-0.080,2.185,0.770,58.333,116.667,405.556,852.778,50.000,/
943,-0.035,2.080,0.685,175.000,100.000,383.333,858.333,5.556,/
944,-0.545,1.960,0.930,55.556,105.556,388.889,833.333,25.000,/
945,-0.500,1.890,0.785,66.667,116.667,358.333,825.000,8.333,/
946,-0.545,1.930,0.525,61.111,108.333,397.222,819.444,5.556,/
947,-0.400,2.050,0.905,58.333,116.667,388.889,869.444,50.000,/
948,-0.230,1.965,0.900,172.222,108.333,386.111,877.778,8.333,/
949,-0.575,1.900,0.760,172.222,108.333,377.778,888.889,11.111,/
950,-0.585,1.990,0.700,97.222,116.667,344.444,841.667,47.222,/
951,-0.500,2.000,0.650,55.556,102.778,380.556,819.444,22.222,/
952,-0.535,2.100,0.545,63.889,116.667,391.667,833.333,13.889,/
953,-0.220,2.100,0.555,130.556,94.444,383.333,850.000,16.667,/
954,-0.625,2.105,0.705,183.333,116.667,397.222,869.444,19.444,/
955,-0.600,2.135,1.140,75.000,116.667,391.667,866.667,2.778,/
956,-0.445,2.220,0.970,55.556,105.556,372.222,872.222,5.556,/
957,-0.380,2.300,0.835,83.333,116.667,380.556,844.444,27.778,/
958,-0.070,2.190,0.685,55.556,94.444,366.667,833.333,11.111,/
959,-0.165,2.155,0.780,197.222,116.667,377.778,816.667,16.667,/
960,-0.555,2.060,1.095,52.778,105.556,388.889,822.222,5.556,/
961,-0.470,2.195,0.725,52.778,108.333,394.444,863.889,41.667,/
962,-0.420,2.240,0.870,94.444,113.889,397.222,905.556,41.667,/
963,-0.210,2.280,0.925,66.667,116.667,386.111,875.000,30.556,/
964,-0.180,2.120,0.590,161.111,113.889,377.778,841.667,33.333,/
965,-0.590,2.175,0.815,66.667,116.667,405.556,825.000,16.667,/
966,-0.475,2.155,0.985,55.556,102.778,358.333,819.444,5.556,/
967,-0.595,-2.160,0.180,197.222,5.556,175.000,663.889,155.556,V
968,-0.245,2.425,1.030,69.444,116.667,388.889,800.000,136.111,/
969,-0.460,2.095,-0.045,175.000,113.889,397.222,872.222,72.222,/
970,-2.045,1.940,-0.360,825605.556,116.667,405.556,861.111,11.111,/
971,-0.735,2.300,0.535,113.889,116.667,400.000,877.778,16.667,/
972,-0.365,2.610,1.140,58.333,116.667,375.000,833.333,44.444,/
973,-0.525,2.320,0.660,55.556,108.333,377.778,816.667,16.667,/
974,-0.525,2.420,0.705,69.444,116.667,394.444,822.222,5.556,/
975,-0.150,2.780,1.345,61.111,113.889,402.778,847.222,25.000,/
976,0.270,2.625,0.945,116.667,100.000,388.889,886.111,38.889,/
977,-0.220,2.325,0.910,188.889,105.556,380.556,902.778,16.667,/
978,-0.435,2.175,1.095,88.889,116.667,366.667,858.333,44.444,/
979,-0.595,2.080,0.610,69.444,116.667,386.111,822.222,36.111,/
980,-0.325,2.245,1.065,69.444,108.333,394.444,833.333,11.111,/
981,0.185,2.215,0.810,52.778,100.000,372.222,836.111,2.778,/
982,0.015,2.090,0.730,197.222,116.667,388.889,847.222,11.111,/
983,-0.470,2.000,1.160,75.000,111.111,400.000,858.333,11.111,/
984,-0.425,1.985,0.445,55.556,105.556,372.222,880.556,22.222,/
985,-0.550,1.955,0.565,88.889,116.667,400.000,869.444,11.111,/
986,-0.110,2.095,0.945,66.667,111.111,366.667,838.889,30.556,/
987,-0.015,2.105,0.645,197.222,113.889,388.889,816.667,22.222,/
988,-0.480,1.995,0.990,55.556,113.889,400.000,819.444,2.778,/
989,-0.425,2.000,0.810,69.444,116.667,405.556,852.778,33.333,/
990,-0.390,1.990,0.795,52.778,102.778,388.889,897.222,44.444,/
991,-0.085,2.065,0.680,50.000,102.778,380.556,880.556,16.667,/
992,-0.155,1.955,0.565,197.222,116.667,388.889,855.556,25.000,/
993,-0.640,1.860,0.935,55.556,111.111,380.556,841.667,13.889,/
994,-0.395,-2.300,0.115,27.778,5.556,175.000,647.222,194.444,V
995,-0.485,2.030,0.950,69.444,108.333,377.778,766.667,119.444,/
996,-0.455,2.000,0.940,58.333,116.667,383.333,847.222,80.556,/
997,-0.450,2.025,0.600,66.667,116.667,405.556,861.111,13.889,/
998,-0.105,2.025,0.660,58.333,102.778,388.889,872.222,11.111,/
999,-0.310,2.020,0.825,197.222,94.444,372.222,891.667,19.444,/
1000,-0.520,2.015,0.940,55.556,108.333,375.000,844.444,47.222,/
1001,-0.460,1.965,0.705,52.778,105.556,372.222,816.667,27.778,/
1002,-0.460,2.070,0.730,83.333,113.889,394.444,822.222,5.556,/
1003,-0.090,2.095,0.900,83.333,94.444,383.333,833.333,11.111,/
1004,-0.250,2.105,0.705,197.222,116.667,402.778,886.111,52.778,/
1005,-0.330,2.285,1.255,77.778,113.889,388.889,894.444,8.333,/
1006,-0.235,2.280,1.055,55.556,108.333,372.222,869.444,25.000,/
1007,-0.350,2.155,0.640,80.556,113.889,388.889,833.333,36.111,/
1008,-0.180,1.950,0.600,88.889,91.667,361.111,838.889,5.556,/
1009,-0.305,1.870,0.545,197.222,102.778,369.444,827.778,11.111,/
1010,-0.665,1.835,0.775,55.556,108.333,375.000,827.778,0.000,/
1011,-0.660,1.795,0.400,66.667,113.889,391.667,855.556,27.778,/
1012,-0.675,1.865,0.390,55.556,102.778,383.333,877.778,22.222,/
1013,-0.380,1.840,0.535,100.000,94.444,383.333,883.333,5.556,/
1014,-0.520,1.895,0.455,197.222,108.333,372.222,866.667,16.667,/
1015,-0.690,1.985,0.790,58.333,116.667,361.111,816.667,50.000,/
1016,-0.655,1.975,0.515,55.556,105.556,372.222,811.111,5.556,/
1017,-0.570,2.120,0.745,61.111,113.889,402.778,858.333,47.222,/
1018,-0.235,2.060,0.475,111.111,94.444,383.333,877.778,19.444,/
1019,-0.465,2.025,0.570,197.222,111.111,400.000,872.222,5.556,/
1020,-0.565,2.105,1.055,58.333,116.667,400.000,863.889,8.333,/
1021,-0.500,2.135,0.610,58.333,116.667,386.111,847.222,16.667,/
1022,-0.465,2.250,0.690,69.444,116.667,386.111,830.556,16.667,/
1023,-0.125,2.130,0.690,122.222,102.778,355.556,833.333,2.778,/
1024,-0.530,2.155,0.795,197.222,111.111,377.778,825.000,8.333,/
1025,-0.455,2.255,1.035,52.778,108.333,397.222,844.444,19.444,/
1026,-0.385,2.280,0.770,58.333,116.667,402.778,900.000,55.556,/
1027,-0.285,2.475,0.980,55.556,111.111,394.444,880.556,19.444,/
1028,0.030,2.300,0.885,127.778,100.000,355.556,847.222,33.333,/
1029,-0.460,2.135,0.660,197.222,108.333,391.667,825.000,22.222,/
1030,-0.610,2.085,0.960,66.667,116.667,355.556,825.000,0.000,/
1031,-0.565,2.060,0.785,55.556,108.333,388.889,838.889,13.889,/
1032,-0.545,2.225,0.715,58.333,116.667,402.778,877.778,38.889,/
1033,-0.210,2.135,0.595,130.556,113.889,397.222,872.222,5.556,/
1034,-0.510,2.200,0.765,197.222,116.667,405.556,858.333,13.889,/
1035,-0.520,2.125,1.325,63.889,102.778,377.778,866.667,8.333,/
1036,-0.470,-2.375,0.380,191.667,5.556,172.222,641.667,225.000,V
1037,-0.390,2.350,1.460,83.333,116.667,369.444,758.333,116.667,/
1038,-0.355,2.340,0.655,136.111,116.667,386.111,819.444,61.111,/
1039,-0.460,2.385,0.695,75.000,113.889,391.667,844.444,25.000,/
1040,-0.185,2.270,0.545,111.111,97.222,386.111,872.222,27.778,/
1041,-0.515,2.180,0.590,197.222,108.333,391.667,894.444,22.222,/
1042,-0.745,2.065,1.060,63.889,113.889,380.556,866.667,27.778,/
1043,-0.745,2.010,0.770,58.333,108.333,363.889,833.333,33.333,/
1044,-0.575,2.245,0.980,86.111,116.667,377.778,822.222,11.111,/
1045,-0.110,2.280,1.020,72.222,116.667,375.000,850.000,27.778,/
1046,-0.265,2.105,0.800,197.222,116.667,388.889,850.000,0.000,/
1047,-0.765,2.115,1.265,58.333,108.333,394.444,858.333,8.333,/
1048,-0.505,2.385,1.280,63.889,113.889,391.667,872.222,13.889,/
1049,-0.295,2.470,1.260,72.222,116.667,394.444,861.111,11.111,/
1050,-0.095,2.520,0.985,58.333,116.667,391.667,841.667,19.444,/
1051,-0.050,2.210,0.730,155.556,116.667,391.667,819.444,22.222,/
1052,-0.625,2.075,0.655,75.000,111.111,375.000,822.222,2.778,/
1053,-0.625,2.050,1.165,69.444,105.556,391.667,844.444,22.222,/
1054,-0.525,2.165,0.640,58.333,116.667,405.556,897.222,52.778,/
1055,-0.490,2.125,0.685,63.889,116.667,402.778,883.333,13.889,/
1056,-0.245,2.060,0.860,66.667,113.889,386.111,850.000,33.333,/
1057,-0.230,1.985,0.520,191.667,116.667,377.778,841.667,8.333,/
1058,-0.610,2.055,0.555,58.333,116.667,405.556,813.889,27.778,/
1059,-0.535,2.025,0.645,61.111,113.889,375.000,838.889,25.000,/
1060,-0.480,2.055,0.740,58.333,111.111,388.889,847.222,8.333,/
1061,-0.400,2.320,1.005,63.889,116.667,397.222,869.444,22.222,/
1062,-0.320,1.925,-0.530,130.556,97.222,97.222,866.667,2.778,/
1063,-2.045,1.505,-0.450,904308.333,113.889,386.111,891.667,25.000,/
1064,-0.870,2.220,0.840,58.333,116.667,372.222,833.333,58.333,/
1065,-0.145,2.680,1.315,66.667,116.667,369.444,811.111,22.222,/
1066,-0.140,-1.480,0.740,161.111,8.333,252.778,658.333,152.778,V
1067,0.085,2.700,1.000,52.778,108.333,388.889,766.667,108.333,/
1068,-0.080,2.385,1.070,58.333,116.667,405.556,883.333,116.667,/
1069,0.050,2.205,0.645,63.889,116.667,402.778,897.222,13.889,/
1070,-0.120,2.085,0.535,194.444,105.556,394.444,869.444,27.778,/
1071,-0.620,1.895,0.330,197.222,116.667,405.556,836.111,33.333,/
1072,-0.810,2.000,0.840,66.667,116.667,372.222,838.889,2.778,/
1073,-0.700,1.860,-0.365,194.444,108.333,391.667,827.778,11.111,/
1074,-2.045,2.010,0.135,913361.111,113.889,397.222,830.556,2.778,/
1075,-0.385,2.300,0.450,94.444,111.111,394.444,850.000,19.444,/
1076,-0.375,2.445,0.830,197.222,111.111,400.000,877.778,27.778,/
1077,-0.120,2.690,1.635,77.778,116.667,405.556,880.556,2.778,/
1078,0.120,2.590,1.015,75.000,113.889,380.556,863.889,16.667,/
1079,0.015,2.425,0.945,94.444,113.889,388.889,816.667,47.222,/
1080,0.250,2.215,0.905,77.778,116.667,388.889,811.111,5.556,/
1081,0.005,2.100,0.965,191.667,116.667,402.778,852.778,41.667,/
1082,-0.415,2.025,0.760,161.111,113.889,402.778,877.778,25.000,/
1083,-0.465,-2.205,0.045,27.778,2.778,180.556,786.111,91.667,V
1084,-0.685,1.795,0.140,191.667,100.000,355.556,794.444,8.333,/
1085,-2.045,1.620,-0.130,922630.556,108.333,386.111,858.333,63.889,/
1086,-0.670,2.330,0.650,61.111,113.889,375.000,822.222,36.111,/
1087,0.130,2.425,1.235,163.889,113.889,377.778,830.556,8.333,/
1088,-0.095,2.355,0.915,55.556,108.333,388.889,825.000,5.556,/
1089,-0.170,2.215,1.000,80.556,113.889,372.222,841.667,16.667,/
1090,-0.220,2.090,0.955,61.111,105.556,394.444,883.333,41.667,/
1091,-0.330,2.045,0.585,161.111,116.667,405.556,897.222,13.889,/
1092,-0.130,1.900,0.545,133.333,102.778,377.778,855.556,41.667,/
1093,-0.480,1.865,0.865,52.778,102.778,361.111,819.444,36.111,/
1094,-0.445,1.880,0.800,58.333,111.111,372.222,825.000,5.556,/
1095,-0.450,-2.145,0.120,25.000,5.556,202.778,641.667,183.333,V
1096,-0.400,2.040,0.840,69.444,116.667,386.111,791.667,150.000,/
1097,-0.825,1.835,0.190,66.667,116.667,405.556,891.667,100.000,/
1098,-0.375,2.510,1.105,66.667,113.889,386.111,877.778,13.889,/
1099,0.380,2.575,0.915,136.111,100.000,377.778,855.556,22.222,/
1100,-0.715,2.015,0.115,194.444,116.667,402.778,852.778,2.778,/
1101,-0.750,2.050,1.035,52.778,108.333,377.778,819.444,33.333,/
1102,-0.270,2.290,0.670,58.333,116.667,394.444,819.444,0.000,/
1103,-0.370,2.270,0.665,58.333,116.667,405.556,836.111,16.667,/
1104,-0.010,2.200,0.895,100.000,100.000,388.889,869.444,33.333,/
1105,-0.135,2.095,0.700,197.222,108.333,397.222,888.889,19.444,/
1106,-0.355,2.050,1.060,58.333,111.111,372.222,888.889,0.000,/
1107,-0.280,2.060,1.010,58.333,113.889,372.222,836.111,52.778,/
1108,-0.545,1.920,0.225,194.444,111.111,394.444,808.333,27.778,/
1109,-0.260,2.150,0.675,69.444,111.111,394.444,838.889,30.556,/
1110,0.005,2.370,1.160,186.111,116.667,405.556,855.556,16.667,/
1111,-0.400,2.135,0.715,197.222,105.556,394.444,869.444,13.889,/
1112,-0.640,1.990,0.590,61.111,116.667,405.556,863.889,5.556,/
1113,-0.465,1.935,0.885,58.333,108.333,375.000,875.000,11.111,/
1114,-0.285,1.975,0.510,61.111,116.667,361.111,841.667,33.333,/
1115,-0.280,1.795,0.470,177.778,113.889,363.889,827.778,13.889,/
1116,-2.045,1.460,0.195,948700.000,113.889,375.000,819.444,8.333,/
1117,-2.045,1.880,0.430,949527.778,113.889,377.778,827.778,8.333,/
1118,-0.400,2.330,0.935,61.111,111.111,400.000,877.778,50.000,/
1119,-0.005,2.530,1.185,55.556,113.889,402.778,894.444,16.667,/
1120,0.305,2.375,1.110,158.333,100.000,355.556,869.444,25.000,/
1121,-0.275,2.095,1.185,191.667,116.667,366.667,836.111,33.333,/
1122,-0.380,1.925,0.905,72.222,116.667,352.778,833.333,2.778,/
1123,-0.565,1.795,0.585,58.333,111.111,394.444,819.444,13.889,/
1124,-0.505,1.995,0.890,58.333,116.667,397.222,855.556,36.111,/
1125,-0.190,1.860,0.300,147.222,100.000,388.889,863.889,8.333,/
1126,-0.645,1.770,0.240,197.222,116.667,394.444,866.667,2.778,/
1127,-0.680,1.890,0.750,58.333,116.667,388.889,872.222,5.556,/
1128,-0.580,1.855,0.520,80.556,113.889,369.444,863.889,8.333,/
1129,-0.625,1.820,0.370,52.778,105.556,372.222,825.000,38.889,/
1130,-0.260,1.795,0.355,97.222,94.444,369.444,808.333,16.667,/
1131,-0.395,1.815,0.640,188.889,105.556,394.444,838.889,30.556,/
1132,-0.555,1.690,1.055,55.556,113.889,402.778,861.111,22.222,/
1133,-0.445,1.645,0.680,63.889,113.889,402.778,900.000,38.889,/
1134,-0.345,1.870,0.705,58.333,116.667,402.778,872.222,27.778,/
1135,0.030,1.855,1.375,58.333,116.667,375.000,847.222,25.000,/
1136,0.215,1.930,0.875,186.111,102.778,372.222,819.444,27.778,/
1137,-0.515,1.755,1.080,186.111,116.667,369.444,850.000,30.556,/
1138,-0.655,2.020,0.965,61.111,111.111,358.333,838.889,11.111,/
1139,-0.415,2.220,0.935,58.333,108.333,388.889,850.000,11.111,/
1140,-0.310,2.375,0.980,55.556,111.111,397.222,877.778,27.778,/
1141,-0.140,1.580,0.810,138.889,116.667,405.556,863.889,13.889,/
1142,-0.530,1.560,1.045,197.222,111.111,388.889,861.111,2.778,/
1143,-0.380,1.730,1.670,52.778,105.556,361.111,825.000,36.111,/
1144,-0.360,-2.075,0.660,144.444,0.000,175.000,705.556,119.444,V
1145,-0.275,1.860,1.340,69.444,116.667,377.778,758.333,52.778,/
1146,-0.300,1.865,1.040,52.778,105.556,391.667,886.111,127.778,/
1147,-0.210,1.910,1.260,58.333,116.667,394.444,891.667,5.556,/
1148,-0.025,1.615,0.875,155.556,108.333,394.444,861.111,30.556,/
1149,-0.635,1.540,1.035,175.000,116.667,394.444,852.778,8.333,/
1150,-0.380,1.595,1.470,58.333,102.778,352.778,830.556,22.222,/
1151,-0.360,1.940,1.100,50.000,97.222,372.222,825.000,5.556,/
1152,-0.170,2.040,1.000,111.111,116.667,380.556,844.444,19.444,/
1153,-0.120,1.885,0.565,75.000,91.667,375.000,847.222,2.778,/
1154,-0.505,1.525,0.920,197.222,116.667,402.778,863.889,16.667,/
1155,-0.625,1.580,1.085,72.222,116.667,405.556,897.222,33.333,/
1156,-0.440,1.590,1.120,52.778,105.556,358.333,855.556,41.667,/
1157,-0.450,1.565,1.060,58.333,111.111,366.667,819.444,36.111,/
1158,0.015,1.695,1.155,55.556,97.222,375.000,819.444,0.000,/
1159,-0.040,1.630,0.465,180.556,113.889,366.667,827.778,8.333,/
1160,-0.985,1.370,0.295,122.222,111.111,394.444,866.667,38.889,/
1161,-0.655,1.865,0.955,55.556,108.333,386.111,900.000,33.333,/
1162,-0.245,2.100,1.190,80.556,116.667,394.444,877.778,22.222,/
1163,0.010,2.255,1.290,58.333,116.667,394.444,844.444,33.333,/
1164,0.195,2.005,1.160,166.667,105.556,380.556,841.667,2.778,/
1165,0.125,-2.105,0.655,158.333,5.556,197.222,686.111,155.556,V
1166,0.060,1.940,1.240,186.111,116.667,372.222,761.111,75.000,/
1167,-0.330,1.885,1.535,55.556,111.111,394.444,838.889,77.778,/
1168,-0.280,1.870,1.375,61.111,113.889,375.000,872.222,33.333,/
1169,-0.330,1.810,0.980,91.667,116.667,397.222,877.778,5.556,/
1170,-0.210,1.755,1.140,58.333,111.111,366.667,883.333,5.556,/
1171,-0.045,1.570,0.625,161.111,105.556,363.889,825.000,58.333,/
1172,-0.670,1.465,0.730,147.222,113.889,386.111,813.889,11.111,/
1173,-0.570,1.655,1.095,55.556,113.889,375.000,836.111,22.222,/
1174,-0.430,1.700,0.945,58.333,108.333,388.889,861.111,25.000,/
1175,-0.390,1.990,1.190,58.333,116.667,394.444,883.333,22.222,/
1176,-0.645,1.635,0.460,97.222,100.000,372.222,858.333,25.000,/
1177,-0.510,1.220,0.970,197.222,116.667,375.000,869.444,11.111,/
1178,-0.610,1.225,1.335,58.333,108.333,388.889,836.111,33.333,/
1179,-0.395,1.570,0.825,63.889,116.667,377.778,827.778,8.333,/
1180,-0.310,1.665,0.950,55.556,108.333,397.222,819.444,8.333,/
1181,-0.110,1.975,1.305,58.333,116.667,388.889,833.333,13.889,/
1182,0.140,1.660,0.740,163.889,116.667,405.556,877.778,44.444,/
1183,-0.290,1.810,1.025,183.333,116.667,400.000,897.222,19.444,/
1184,-0.410,1.510,1.435,61.111,116.667,363.889,869.444,27.778,/
1185,-0.240,-2.095,0.445,197.222,8.333,186.111,622.222,247.222,V
1186,-0.390,1.480,1.365,61.111,116.667,375.000,761.111,138.889,/
1187,-0.380,1.345,0.605,63.889,108.333,363.889,822.222,61.111,/
1188,-0.195,1.620,-0.300,58.333,116.667,380.556,627.778,194.444,V
1189,-0.450,1.325,0.895,61.111,111.111,391.667,930.556,302.778,/
1190,-0.410,1.470,1.035,58.333,116.667,402.778,875.000,55.556,/
1191,-0.090,1.280,0.590,166.667,116.667,405.556,861.111,13.889,/
1192,-0.650,1.180,0.660,50.000,105.556,388.889,872.222,11.111,/
1193,-0.560,1.340,1.290,66.667,116.667,363.889,827.778,44.444,/
1194,-0.465,1.375,0.545,61.111,111.111,388.889,811.111,16.667,/
1195,-0.305,1.835,1.040,52.778,102.778,386.111,830.556,19.444,/
1196,-0.180,1.880,0.750,127.778,111.111,397.222,850.000,19.444,/
1197,-0.490,1.945,0.140,194.444,116.667,400.000,888.889,38.889,/
1198,-0.890,1.870,0.945,172.222,108.333,372.222,894.444,5.556,/
1199,-0.560,2.000,0.975,58.333,116.667,377.778,852.778,41.667,/
1200,-0.290,1.955,0.905,58.333,113.889,391.667,819.444,33.333,/
1201,0.140,1.690,0.855,116.667,102.778,388.889,838.889,19.444,/
1202,-0.445,1.230,0.925,197.222,108.333,388.889,838.889,0.000,/
1203,-0.365,-2.340,0.500,197.222,8.333,194.444,680.556,158.333,V
1204,-0.520,1.405,0.565,63.889,116.667,405.556,791.667,111.111,/
1205,-0.340,1.685,1.040,58.333,111.111,358.333,880.556,88.889,/
1206,-0.235,1.685,0.800,55.556,108.333,388.889,863.889,16.667,/
1207,-0.440,1.480,0.685,58.333,116.667,380.556,847.222,16.667,/
1208,-0.095,1.230,1.015,155.556,100.000,372.222,811.111,36.111,/
1209,-0.385,1.420,1.195,63.889,113.889,397.222,813.889,2.778,/
1210,-0.370,1.435,0.925,69.444,113.889,402.778,852.778,38.889,/
1211,-0.165,1.765,1.375,63.889,111.111,400.000,897.222,44.444,/
1212,-0.215,1.860,0.600,197.222,116.667,394.444,883.333,13.889,/
1213,-0.300,1.190,0.470,172.222,108.333,394.444,855.556,27.778,/
1214,-0.455,1.425,1.460,61.111,116.667,397.222,844.444,11.111,/
1215,-0.125,1.700,0.990,61.111,108.333,363.889,819.444,25.000,/
1216,-0.255,1.390,0.820,69.444,116.667,391.667,833.333,13.889,/
1217,-0.880,0.990,-0.020,58.333,116.667,402.778,838.889,5.556,/
1218,-2.045,0.725,0.280,1034461.111,116.667,405.556,858.333,19.444,/
1219,-0.610,1.395,1.250,61.111,113.889,402.778,880.556,22.222,/
1220,-0.125,1.715,1.225,55.556,105.556,372.222,891.667,11.111,/
1221,-0.730,1.105,0.480,136.111,113.889,377.778,836.111,55.556,/
1222,-0.325,1.325,1.150,66.667,116.667,386.111,808.333,27.778,/
1223,0.040,1.670,1.140,197.222,105.556,375.000,825.000,16.667,/
1224,-0.020,1.850,1.905,58.333,111.111,386.111,836.111,11.111,/
1225,-0.020,1.700,1.265,66.667,113.889,402.778,886.111,50.000,/
1226,-0.170,1.645,1.005,66.667,116.667,405.556,886.111,0.000,/
1227,0.125,1.385,0.985,122.222,88.889,361.111,869.444,16.667,/
1228,-0.340,1.385,1.140,197.222,113.889,394.444,838.889,30.556,/
1229,-0.315,1.355,1.260,52.778,102.778,338.889,844.444,5.556,/
1230,-0.365,1.315,0.735,58.333,113.889,380.556,819.444,25.000,/
1231,-0.945,1.040,0.505,186.111,116.667,394.444,827.778,8.333,/
1232,-0.520,1.245,0.835,163.889,116.667,402.778,861.111,33.333,/
1233,-0.300,1.870,1.280,58.333,116.667,405.556,875.000,13.889,/
1234,0.020,2.325,1.120,58.333,111.111,363.889,883.333,8.333,/
1235,-0.715,1.950,0.630,191.667,111.111,377.778,855.556,27.778,/
1236,-0.970,-2.535,0.095,177.778,0.000,155.556,666.667,188.889,V
1237,-0.510,2.255,1.015,55.556,108.333,386.111,747.222,80.556,/
1238,-0.005,2.305,0.915,102.778,100.000,388.889,847.222,100.000,/
1239,-0.240,2.325,1.055,197.222,113.889,402.778,875.000,27.778,/
1240,-0.380,2.180,1.445,66.667,111.111,383.333,883.333,8.333,/
1241,-0.335,2.100,0.820,63.889,111.111,397.222,861.111,22.222,/
1242,-0.400,2.055,0.985,91.667,111.111,372.222,855.556,5.556,/
1243,-0.075,1.910,0.825,136.111,102.778,369.444,827.778,27.778,/
1244,-0.545,1.880,1.120,197.222,116.667,375.000,830.556,2.778,/
1245,-0.585,1.875,1.145,63.889,113.889,383.333,827.778,2.778,/
1246,-0.495,1.930,1.125,75.000,116.667,400.000,841.667,13.889,/
1247,-0.475,2.040,0.895,66.667,116.667,405.556,891.667,50.000,/
1248,-0.150,1.965,0.935,155.556,116.667,397.222,888.889,2.778,/
1249,-0.660,1.940,0.930,58.333,116.667,402.778,850.000,38.889,/
1250,-0.665,1.945,0.845,83.333,116.667,372.222,816.667,33.333,/
1251,-0.645,1.905,0.705,58.333,111.111,372.222,833.333,16.667,/
1252,-0.230,2.210,1.075,58.333,116.667,391.667,830.556,2.778,/
1253,-0.060,2.220,0.800,172.222,116.667,402.778,875.000,44.444,/
1254,-0.555,2.100,1.145,55.556,113.889,402.778,877.778,2.778,/
1255,-0.735,-2.365,0.320,188.889,2.778,188.889,702.778,175.000,V
1256,-0.460,2.160,0.965,66.667,113.889,372.222,791.667,88.889,/
1257,-0.405,2.140,0.875,66.667,116.667,391.667,852.778,61.111,/
1258,-0.270,2.165,1.090,58.333,113.889,383.333,819.444,33.333,/
1259,-0.110,1.965,0.840,163.889,116.667,388.889,813.889,5.556,/
1260,-0.760,1.875,0.700,58.333,111.111,394.444,844.444,30.556,/
1261,-0.705,1.950,0.470,61.111,113.889,391.667,869.444,25.000,/
1262,-0.610,2.065,0.485,58.333,116.667,405.556,894.444,25.000,/
1263,-0.290,1.965,0.500,113.889,100.000,386.111,875.000,19.444,/
1264,-0.685,1.955,0.610,197.222,116.667,383.333,830.556,44.444,/
1265,-0.700,2.030,0.890,80.556,113.889,358.333,816.667,13.889,/
1266,-0.520,2.255,0.905,58.333,116.667,400.000,847.222,30.556,/
1267,0.000,2.480,1.070,58.333,116.667,402.778,858.333,11.111,/
1268,-0.080,2.320,0.910,186.111,116.667,405.556,861.111,2.778,/
1269,-0.605,2.165,1.160,58.333,116.667,388.889,875.000,13.889,/
1270,-0.560,2.205,0.870,69.444,116.667,386.111,861.111,13.889,/
1271,-0.505,2.385,0.945,58.333,113.889,391.667,844.444,16.667,/
1272,-0.130,2.215,0.900,144.444,111.111,372.222,830.556,13.889,/
1273,-0.645,2.145,0.975,197.222,111.111,394.444,819.444,11.111,/
1274,-0.605,2.115,0.810,61.111,108.333,388.889,833.333,13.889,/
1275,-0.615,2.070,0.650,80.556,113.889,402.778,900.000,66.667,/
1276,-0.710,-2.345,0.065,188.889,2.778,183.333,711.111,188.889,V
1277,-0.360,2.380,0.880,58.333,116.667,394.444,808.333,97.222,/
1278,-0.105,2.140,0.825,175.000,116.667,375.000,836.111,27.778,/
1279,-0.540,2.060,1.205,66.667,116.667,386.111,830.556,5.556,/
1280,-0.510,2.125,1.020,77.778,116.667,380.556,827.778,2.778,/
1281,-0.360,2.310,0.905,52.778,108.333,388.889,847.222,19.444,/
1282,-0.035,2.250,0.915,119.444,97.222,372.222,861.111,13.889,/
1283,-0.550,2.220,0.850,100.000,113.889,400.000,861.111,0.000,/
1284,-0.475,2.275,1.165,63.889,116.667,391.667,883.333,22.222,/
1285,-0.430,2.225,0.970,83.333,116.667,386.111,858.333,25.000,/
1286,-0.210,2.360,0.960,58.333,116.667,366.667,822.222,36.111,/
1287,-0.060,2.210,0.865,188.889,105.556,372.222,811.111,11.111,/
1288,-0.550,2.130,1.215,63.889,116.667,394.444,838.889,27.778,/
1289,-0.455,2.220,0.870,63.889,113.889,394.444,866.667,27.778,/
1290,-0.400,2.340,0.915,58.333,111.111,394.444,894.444,27.778,/
1291,-0.055,2.290,0.795,108.333,100.000,386.111,869.444,25.000,/
1292,-0.380,2.160,0.860,197.222,116.667,380.556,841.667,27.778,/
1293,-0.535,2.145,1.250,52.778,102.778,366.667,836.111,5.556,/
1294,-0.490,2.140,0.695,55.556,105.556,361.111,836.111,0.000,/
1295,-0.490,2.220,0.830,58.333,116.667,394.444,836.111,0.000,/
1296,-0.125,2.190,1.025,172.222,113.889,388.889,852.778,16.667,/
1297,-0.845,1.640,0.255,186.111,105.556,394.444,875.000,22.222,/
1298,-0.845,1.270,0.575,50.000,108.333,391.667,872.222,2.778,/
1299,-0.340,1.685,1.270,55.556,108.333,377.778,863.889,8.333,/
1300,0.245,1.925,1.080,63.889,111.111,377.778,819.444,44.444,/
1301,0.160,1.705,1.295,188.889,105.556,377.778,811.111,8.333,/
1302,-0.250,1.725,1.565,63.889,113.889,391.667,841.667,30.556,/
1303,-0.270,1.665,1.200,58.333,111.111,394.444,880.556,38.889,/
1304,-0.215,1.810,1.245,63.889,116.667,386.111,891.667,11.111,/
1305,-0.270,-1.910,0.500,194.444,0.000,180.556,697.222,194.444,V
1306,0.125,1.675,1.315,52.778,100.000,366.667,788.889,91.667,/
1307,0.220,1.740,0.955,175.000,116.667,388.889,827.778,38.889,/
1308,-0.555,1.305,1.065,61.111,113.889,388.889,827.778,0.000,/
1309,-0.440,1.415,1.130,55.556,111.111,388.889,830.556,2.778,/
1310,-0.400,1.445,0.960,75.000,116.667,386.111,847.222,16.667,/
1311,0.005,1.420,0.830,122.222,91.667,380.556,869.444,22.222,/
1312,-0.470,1.290,0.670,197.222,116.667,391.667,905.556,36.111,/
1313,-0.540,1.280,1.290,55.556,105.556,341.667,855.556,50.000,/
1314,-0.470,1.330,0.590,83.333,116.667,375.000,813.889,41.667,/
1315,-0.425,1.485,1.040,58.333,116.667,383.333,822.222,8.333,/
1316,-0.050,1.415,0.810,177.778,116.667,391.667,825.000,2.778,/
1317,-0.615,1.315,0.825,63.889,111.111,400.000,863.889,38.889,/
1318,-0.470,1.385,0.935,58.333,116.667,397.222,886.111,22.222,/
1319,-0.395,1.410,1.130,55.556,111.111,391.667,875.000,11.111,/
1320,0.010,1.375,0.850,86.111,86.111,363.889,858.333,16.667,/
1321,-0.230,1.235,0.955,197.222,116.667,380.556,852.778,5.556,/
1322,-0.365,1.430,1.315,58.333,108.333,361.111,822.222,30.556,/
1323,-0.445,1.325,0.655,58.333,116.667,388.889,813.889,8.333,/
1324,-0.385,1.625,1.115,61.111,116.667,405.556,847.222,33.333,/
1325,0.030,1.355,0.620,161.111,105.556,394.444,866.667,19.444,/
1326,-0.115,-2.035,0.295,186.111,0.000,213.889,752.778,113.889,V
1327,-0.365,1.310,1.110,197.222,113.889,372.222,811.111,58.333,/
1328,-0.440,1.330,1.295,66.667,116.667,355.556,836.111,25.000,/
1329,-0.445,1.365,0.800,58.333,108.333,377.778,805.556,30.556,/
1330,-0.385,1.565,1.160,58.333,116.667,405.556,847.222,41.667,/
1331,0.050,1.480,0.710,163.889,116.667,405.556,847.222,0.000,/
1332,-0.485,1.275,0.820,191.667,116.667,405.556,872.222,25.000,/
1333,-0.330,1.535,1.230,58.333,116.667,402.778,866.667,5.556,/
1334,-0.350,1.465,0.780,58.333,108.333,391.667,866.667,0.000,/
1335,-0.030,1.400,1.105,75.000,88.889,358.333,850.000,16.667,/
1336,-0.070,1.350,0.695,197.222,108.333,375.000,833.333,16.667,/
1337,-0.575,1.255,1.335,50.000,105.556,361.111,816.667,16.667,/
1338,-0.400,1.440,0.700,63.889,116.667,397.222,825.000,8.333,/
1339,-0.050,-2.035,0.490,197.222,5.556,241.667,627.778,197.222,V
1340,-0.415,1.410,1.065,55.556,111.111,388.889,836.111,208.333,/
1341,-0.300,1.795,1.110,58.333,116.667,383.333,877.778,41.667,/
1342,-0.065,1.305,0.650,158.333,111.111,380.556,836.111,41.667,/
1343,-0.795,1.100,1.230,61.111,111.111,388.889,833.333,2.778,/
1344,-0.590,1.355,0.565,63.889,113.889,391.667,819.444,13.889,/
1345,-0.555,1.335,1.025,52.778,108.333,394.444,841.667,22.222,/
1346,-0.085,1.345,0.755,102.778,97.222,377.778,861.111,19.444,/
1347,-0.515,1.315,0.895,197.222,111.111,400.000,866.667,5.556,/
1348,-0.505,1.380,1.250,61.111,111.111,375.000,877.778,11.111,/
1349,-0.545,-2.210,0.445,197.222,5.556,202.778,702.778,175.000,V
1350,-0.390,1.410,1.210,55.556,111.111,369.444,761.111,58.333,/
1351,-0.360,1.480,0.795,83.333,113.889,388.889,805.556,44.444,/
1352,-0.055,1.295,1.085,125.000,91.667,377.778,825.000,19.444,/
1353,-0.515,1.345,1.190,61.111,111.111,400.000,841.667,16.667,/
1354,-0.405,1.450,1.035,58.333,113.889,394.444,880.556,38.889,/
1355,-0.400,1.375,1.100,58.333,108.333,388.889,897.222,16.667,/
1356,-0.075,1.245,0.975,91.667,88.889,355.556,866.667,30.556,/
1357,-0.385,1.280,1.165,197.222,116.667,391.667,825.000,41.667,/
1358,-0.475,1.415,1.070,58.333,108.333,363.889,841.667,16.667,/
1359,-0.455,1.440,1.150,58.333,113.889,383.333,830.556,11.111,/
1360,0.010,1.450,0.730,66.667,116.667,402.778,844.444,13.889,/
1361,-0.235,1.380,0.940,197.222,113.889,402.778,863.889,19.444,/
1362,-0.520,1.345,1.375,58.333,113.889,366.667,877.778,13.889,/
1363,-0.450,-2.310,0.595,197.222,5.556,202.778,672.222,205.556,V
1364,-0.380,1.520,1.170,72.222,116.667,383.333,791.667,119.444,/
1365,-0.345,1.525,1.025,58.333,111.111,372.222,822.222,30.556,/
1366,0.010,1.390,1.125,127.778,97.222,363.889,813.889,8.333,/
1367,-0.560,1.305,1.190,194.444,116.667,405.556,833.333,19.444,/
1368,-0.485,1.415,1.040,63.889,116.667,391.667,891.667,58.333,/
1369,-0.410,1.470,1.165,83.333,116.667,388.889,883.333,8.333,/
1370,0.015,1.395,1.050,138.889,105.556,388.889,855.556,27.778,/
1371,-0.560,1.175,1.320,191.667,105.556,386.111,850.000,5.556,/
1372,-0.495,1.365,0.890,55.556,111.111,380.556,822.222,27.778,/
1373,-0.605,-2.335,1.050,183.333,2.778,188.889,669.444,152.778,V
1374,-0.370,1.435,1.055,72.222,108.333,386.111,775.000,105.556,/
1375,0.085,1.415,1.100,83.333,88.889,369.444,852.778,77.778,/
1376,-0.495,1.340,0.725,197.222,116.667,402.778,861.111,8.333,/
1377,-2.045,0.745,-0.060,1167700.000,113.889,391.667,894.444,33.333,/
1378,-2.045,1.045,0.630,1168558.333,116.667,400.000,858.333,36.111,/
1379,-0.030,1.505,1.375,100.000,97.222,358.333,822.222,36.111,/
1380,-0.085,1.860,1.690,66.667,116.667,405.556,819.444,2.778,/
1381,0.030,1.800,1.590,63.889,113.889,375.000,830.556,11.111,/
1382,-0.095,1.700,1.180,58.333,116.667,402.778,861.111,30.556,/
1383,-0.190,-1.785,0.895,163.889,5.556,208.333,738.889,122.222,V
1384,0.285,1.605,1.195,86.111,86.111,375.000,805.556,66.667,/
1385,-0.215,1.375,1.235,197.222,111.111,377.778,858.333,52.778,/
1386,-0.430,1.285,1.035,55.556,108.333,377.778,847.222,11.111,/
1387,-0.485,1.240,0.945,72.222,111.111,380.556,833.333,13.889,/
1388,-0.055,1.165,0.915,111.111,100.000,358.333,827.778,5.556,/
1389,-0.630,1.155,1.325,197.222,108.333,397.222,833.333,5.556,/
1390,-0.520,1.225,0.805,58.333,111.111,377.778,875.000,41.667,/
1391,-0.550,1.410,1.100,69.444,116.667,405.556,872.222,2.778,/
1392,0.060,1.345,0.985,163.889,116.667,391.667,883.333,11.111,/
1393,-0.590,1.195,1.515,63.889,116.667,377.778,836.111,47.222,/
1394,-0.430,1.295,0.880,58.333,116.667,372.222,813.889,22.222,/
1395,-0.545,-2.440,0.995,197.222,5.556,180.556,641.667,172.222,V
1396,-0.305,1.505,1.325,52.778,105.556,388.889,797.222,155.556,/
1397,0.035,1.340,1.100,119.444,97.222,386.111,877.778,80.556,/
1398,-0.485,1.350,1.430,61.111,116.667,405.556,866.667,11.111,/
1399,-0.370,1.390,1.075,55.556,108.333,394.444,872.222,5.556,/
1400,-0.375,1.540,1.200,69.444,116.667,386.111,847.222,25.000,/
1401,-0.010,1.210,1.030,155.556,116.667,377.778,833.333,13.889,/
1402,-0.580,1.240,1.570,61.111,113.889,363.889,827.778,5.556,/
1403,-0.470,1.260,0.995,55.556,105.556,369.444,827.778,0.000,/
1404,-0.190,1.630,1.265,58.333,116.667,400.000,852.778,25.000,/
1405,-0.030,1.420,1.230,197.222,116.667,405.556,905.556,52.778,/
1406,-0.505,1.365,1.430,55.556,108.333,369.444,875.000,30.556,/
1407,-0.430,1.355,1.135,55.556,111.111,372.222,836.111,38.889,/
1408,0.010,1.390,1.255,83.333,88.889,366.667,822.222,13.889,/
1409,-0.350,1.365,1.330,197.222,111.111,394.444,825.000,2.778,/
1410,-0.525,1.380,1.065,61.111,116.667,394.444,841.667,16.667,/
1411,-0.475,1.445,1.265,61.111,113.889,394.444,877.778,36.111,/
1412,0.060,1.455,1.240,150.000,102.778,377.778,875.000,2.778,/
1413,-0.320,1.575,1.900,66.667,116.667,397.222,863.889,11.111,/
1414,2.365,-1.525,0.105,69.444,2.778,319.444,711.111,152.778,V
1415,-0.275,1.550,1.195,61.111,113.889,375.000,816.667,105.556,/
1416,-0.155,1.545,1.175,58.333,116.667,375.000,819.444,2.778,/
1417,-0.145,1.295,0.940,197.222,111.111,386.111,816.667,2.778,/
1418,-0.655,1.190,0.975,52.778,102.778,361.111,852.778,36.111,/
1419,-0.870,1.045,0.715,72.222,116.667,402.778,886.111,33.333,/
1420,-0.430,1.100,1.095,100.000,94.444,372.222,891.667,5.556,/
1421,-0.620,1.385,1.565,63.889,113.889,402.778,852.778,38.889,/
1422,-0.380,1.575,1.425,66.667,116.667,375.000,819.444,33.333,/
1423,-0.325,1.760,1.270,66.667,116.667,394.444,844.444,25.000,/
1424,0.185,1.950,-0.400,197.222,116.667,116.667,611.111,233.333,V
1425,0.205,1.555,1.375,188.889,116.667,388.889,927.778,316.667,/
1426,-0.515,1.455,1.675,58.333,116.667,388.889,866.667,61.111,/
1427,-0.470,1.450,0.995,61.111,113.889,391.667,877.778,11.111,/
1428,-0.095,1.530,1.350,63.889,111.111,383.333,866.667,11.111,/
1429,-0.195,1.530,1.330,197.222,108.333,358.333,844.444,22.222,/
1430,-0.370,1.650,1.390,58.333,113.889,366.667,813.889,30.556,/
1431,-0.330,1.700,1.480,69.444,116.667,386.111,813.889,0.000,/
1432,0.090,1.585,1.170,125.000,94.444,377.778,855.556,41.667,/
1433,-0.490,1.575,1.600,147.222,108.333,397.222,888.889,33.333,/
1434,-0.320,1.580,1.220,77.778,108.333,369.444,880.556,8.333,/
1435,-0.350,1.745,1.330,55.556,113.889,377.778,852.778,27.778,/
1436,0.105,1.450,0.985,172.222,105.556,363.889,838.889,13.889,/
1437,-0.440,1.545,1.405,63.889,113.889,375.000,827.778,11.111,/
1438,-0.345,1.585,1.120,66.667,102.778,363.889,836.111,8.333,/
1439,0.150,1.785,1.345,58.333,108.333,388.889,841.667,5.556,/
1440,-0.485,1.205,0.525,197.222,113.889,402.778,858.333,16.667,/
1441,-0.965,1.415,1.105,66.667,116.667,397.222,883.333,25.000,/
1442,-0.540,1.665,1.180,58.333,116.667,388.889,883.333,0.000,/
1443,0.075,1.555,1.465,111.111,97.222,352.778,836.111,47.222,/
1444,-0.275,1.535,1.410,197.222,116.667,380.556,811.111,25.000,/
1445,-0.355,1.465,1.300,61.111,105.556,352.778,827.778,16.667,/
1446,-0.250,1.680,0.910,52.778,102.778,388.889,844.444,16.667,/
1447,-0.020,1.415,0.820,180.556,116.667,405.556,877.778,33.333,/
1448,-0.545,1.365,1.540,63.889,111.111,375.000,880.556,2.778,/
1449,-0.410,1.350,0.780,58.333,113.889,394.444,863.889,16.667,/
1450,-0.305,1.395,0.940,55.556,113.889,400.000,847.222,16.667,/
1451,-0.270,1.025,0.995,197.222,116.667,377.778,838.889,8.333,/
1452,-0.530,1.450,1.160,58.333,116.667,350.000,827.778,11.111,/
1453,-0.475,1.520,1.310,58.333,116.667,388.889,830.556,2.778,/
1454,0.130,1.670,1.235,105.556,91.667,372.222,872.222,41.667,/
1455,-0.365,1.450,1.590,83.333,116.667,405.556,875.000,2.778,/
1456,-0.210,1.855,1.015,122.222,116.667,377.778,883.333,8.333,/
1457,-0.480,1.850,0.850,52.778,100.000,366.667,836.111,47.222,/
1458,-0.290,1.105,0.755,158.333,111.111,377.778,808.333,27.778,/
1459,-0.800,1.060,1.450,50.000,108.333,388.889,827.778,19.444,/
1460,-0.520,1.270,0.635,183.333,113.889,400.000,858.333,30.556,/
1461,-0.210,1.435,0.805,58.333,116.667,394.444,880.556,22.222,/
1462,-0.380,1.055,1.090,197.222,116.667,388.889,869.444,11.111,/
1463,-0.560,1.215,0.895,72.222,113.889,352.778,872.222,2.778,/
1464,-0.615,1.145,0.750,58.333,113.889,388.889,841.667,30.556,/
1465,-0.135,1.300,1.385,100.000,88.889,361.111,833.333,8.333,/
1466,0.020,1.545,1.280,197.222,105.556,383.333,819.444,13.889,/
1467,-0.630,1.165,0.765,75.000,116.667,386.111,825.000,5.556,/
1468,-0.535,1.500,1.095,61.111,113.889,391.667,875.000,50.000,/
1469,-0.330,1.210,0.340,172.222,116.667,397.222,897.222,22.222,/
1470,-0.875,1.160,1.170,58.333,116.667,375.000,875.000,22.222,/
1471,-0.520,1.530,1.135,58.333,116.667,375.000,827.778,47.222,/
1472,-0.190,1.580,0.855,58.333,116.667,388.889,822.222,5.556,/
1473,-0.490,1.685,0.465,194.444,111.111,375.000,819.444,2.778,/
1474,-2.045,1.045,-0.805,1249416.667,102.778,386.111,847.222,27.778,/
1475,-2.045,1.325,0.220,1250288.889,116.667,400.000,872.222,25.000,/
1476,-0.015,2.315,1.415,102.778,105.556,388.889,877.778,5.556,/
1477,0.325,2.690,1.950,55.556,111.111,400.000,872.222,5.556,/
1478,0.385,2.665,1.755,58.333,116.667,377.778,872.222,0.000,/
1479,0.265,2.515,1.300,180.556,116.667,386.111,819.444,52.778,/
1480,0.305,1.960,1.275,191.667,116.667,380.556,805.556,13.889,/
1481,-0.185,1.865,1.205,72.222,113.889,377.778,836.111,30.556,/
1482,-0.265,1.740,0.820,58.333,111.111,400.000,858.333,22.222,/
1483,0.045,1.635,1.075,77.778,91.667,375.000,888.889,30.556,/
1484,-0.330,1.565,0.840,197.222,108.333,397.222,880.556,8.333,/
1485,-0.410,1.605,0.825,63.889,116.667,386.111,844.444,36.111,/
1486,-0.335,1.690,1.100,69.444,116.667,377.778,819.444,25.000,/
1487,-0.035,1.585,0.770,138.889,102.778,372.222,847.222,27.778,/
1488,-0.625,1.425,1.340,58.333,116.667,397.222,838.889,8.333,/
1489,-0.480,1.470,0.650,77.778,116.667,400.000,855.556,16.667,/
1490,-0.400,1.660,0.505,55.556,102.778,391.667,877.778,22.222,/
1491,1.910,-2.110,-0.720,72.222,5.556,327.778,747.222,130.556,V
1492,-0.535,1.680,0.825,194.444,116.667,372.222,847.222,100.000,/
1493,-0.710,1.850,0.935,77.778,113.889,358.333,844.444,2.778,/
1494,-0.340,1.710,1.245,52.778,100.000,363.889,813.889,30.556,/
1495,0.280,1.700,1.250,127.778,108.333,375.000,819.444,5.556,/
1496,-0.285,1.705,1.200,66.667,116.667,405.556,869.444,50.000,/
1497,-0.205,1.685,1.090,63.889,116.667,405.556,888.889,19.444,/
1498,-0.270,1.850,1.160,61.111,111.111,391.667,869.444,19.444,/
1499,0.070,1.560,1.135,175.000,113.889,383.333,841.667,27.778,/
1500,-0.470,1.465,1.345,66.667,116.667,372.222,836.111,5.556,/
1501,-0.325,1.545,1.280,55.556,102.778,358.333,833.333,2.778,/
1502,-0.080,1.645,0.935,58.333,113.889,375.000,844.444,11.111,/
1503,-0.145,1.455,0.810,197.222,113.889,394.444,850.000,5.556,/
1504,-0.665,1.355,1.245,72.222,113.889,377.778,866.667,16.667,/
1505,-0.420,1.470,0.880,50.000,102.778,388.889,888.889,22.222,/
1506,-0.055,1.485,1.015,66.667,113.889,380.556,861.111,27.778,/
1507,-0.185,1.515,1.235,197.222,105.556,344.444,825.000,36.111,/
1508,-0.280,1.715,1.365,63.889,116.667,341.667,811.111,13.889,/
1509,-0.095,1.930,1.610,58.333,116.667,369.444,836.111,25.000,/
1510,0.340,1.895,1.310,94.444,94.444,380.556,850.000,13.889,/
1511,-0.400,1.630,1.105,197.222,105.556,383.333,894.444,44.444,/
1512,-0.670,1.350,0.725,55.556,111.111,377.778,875.000,19.444,/
1513,-0.855,1.095,0.540,52.778,102.778,369.444,847.222,27.778,/
1514,-0.510,1.030,0.640,113.889,97.222,361.111,841.667,5.556,/
1515,-0.950,1.080,0.825,197.222,113.889,402.778,838.889,2.778,/
1516,-0.810,1.250,0.830,58.333,116.667,372.222,833.333,5.556,/
1517,-0.650,1.375,0.885,63.889,116.667,383.333,844.444,11.111,/
1518,-0.155,1.450,1.025,127.778,94.444,361.111,880.556,36.111,/
1519,-0.570,1.570,1.230,63.889,116.667,405.556,872.222,8.333,/
1520,-0.405,1.670,1.165,55.556,105.556,375.000,869.444,2.778,/
1521,-0.305,1.745,1.260,58.333,108.333,372.222,825.000,44.444,/
1522,0.070,1.665,1.210,111.111,97.222,350.000,811.111,13.889,/
1523,-0.445,1.650,1.360,58.333,108.333,391.667,833.333,22.222,/
1524,-0.280,1.795,1.340,61.111,113.889,372.222,875.000,41.667,/
1525,-0.160,1.915,1.345,66.667,113.889,391.667,883.333,8.333,/
1526,0.265,1.815,1.435,91.667,97.222,358.333,866.667,16.667,/
1527,-0.150,1.710,1.210,197.222,111.111,366.667,863.889,2.778,/
1528,-0.415,1.665,1.420,61.111,108.333,355.556,830.556,33.333,/
1529,-0.395,1.605,1.150,55.556,111.111,372.222,836.111,5.556,/
1530,-0.215,1.635,1.045,58.333,116.667,386.111,825.000,11.111,/
1531,-0.135,1.440,1.145,197.222,111.111,372.222,841.667,16.667,/
1532,-0.600,1.465,1.365,55.556,105.556,394.444,877.778,36.111,/
1533,-0.520,1.475,1.140,75.000,116.667,380.556,902.778,25.000,/
1534,-0.475,1.715,0.985,72.222,116.667,372.222,861.111,41.667,/
1535,-0.110,1.435,1.100,147.222,116.667,372.222,813.889,47.222,/
1536,-0.570,1.385,0.650,177.778,111.111,394.444,825.000,11.111,/
1537,-2.045,1.095,0.110,1302922.222,116.667,405.556,825.000,0.000,/
1538,-0.750,1.505,0.600,58.333,108.333,397.222,855.556,30.556,/
1539,-0.035,1.670,1.425,105.556,88.889,375.000,880.556,25.000,/
1540,-0.245,1.825,1.070,197.222,113.889,391.667,875.000,5.556,/
1541,-0.350,1.730,1.230,58.333,111.111,361.111,866.667,8.333,/
1542,-0.405,1.490,0.210,105.556,116.667,372.222,858.333,8.333,/
1543,-2.045,0.880,-0.160,1308075.000,116.667,372.222,816.667,41.667,/
1544,-0.825,1.220,0.735,186.111,116.667,372.222,813.889,2.778,/
1545,-0.355,1.950,1.880,55.556,113.889,380.556,844.444,30.556,/
1546,-0.110,2.120,1.305,58.333,116.667,397.222,866.667,22.222,/
1547,-0.320,2.405,1.270,52.778,102.778,372.222,891.667,25.000,/
1548,0.120,2.275,1.780,125.000,116.667,386.111,866.667,25.000,/
1549,-0.020,1.945,1.785,58.333,116.667,372.222,833.333,33.333,/
1550,-0.170,1.990,1.000,50.000,102.778,358.333,816.667,16.667,/
1551,-0.280,1.810,1.295,55.556,108.333,377.778,852.778,36.111,/
1552,0.400,2.100,1.405,58.333,108.333,372.222,850.000,2.778,/
1553,0.105,1.715,0.785,194.444,116.667,402.778,866.667,16.667,/
1554,-0.410,1.650,1.100,58.333,113.889,383.333,877.778,11.111,/
1555,-0.435,1.500,0.850,66.667,113.889,383.333,863.889,13.889,/
1556,-0.920,1.475,0.325,69.444,116.667,388.889,852.778,11.111,/
1557,-0.650,1.300,0.880,127.778,102.778,375.000,816.667,36.111,/
1558,-0.570,1.940,0.760,88.889,116.667,402.778,819.444,2.778,/
1559,-0.280,1.735,1.005,69.444,116.667,375.000,844.444,25.000,/
1560,-2.045,0.935,0.035,1322544.444,108.333,397.222,891.667,47.222,/
1561,-2.045,1.420,0.540,1323425.000,116.667,391.667,880.556,11.111,/
1562,-0.455,1.790,0.875,177.778,116.667,386.111,850.000,30.556,/
1563,-0.305,2.140,1.345,66.667,111.111,375.000,833.333,16.667,/
1564,-0.155,2.020,1.420,58.333,113.889,383.333,819.444,13.889,/
1565,0.060,2.295,1.560,97.222,116.667,386.111,841.667,22.222,/
1566,0.380,2.040,1.105,130.556,97.222,386.111,847.222,5.556,/
1567,-0.130,1.850,1.285,172.222,116.667,391.667,872.222,25.000,/
1568,-0.520,1.595,0.735,69.444,113.889,391.667,877.778,5.556,/
1569,-0.515,1.635,0.780,58.333,116.667,391.667,888.889,11.111,/
1570,0.020,1.765,1.125,69.444,97.222,350.000,833.333,55.556,/
1571,-0.105,1.745,1.090,194.444,105.556,369.444,802.778,30.556,/
1572,-0.175,1.915,1.500,52.778,100.000,361.111,827.778,25.000,/
1573,-0.075,1.890,1.240,105.556,116.667,405.556,836.111,8.333,/
1574,-0.360,1.815,0.900,58.333,116.667,405.556,883.333,47.222,/
1575,-0.250,1.520,0.310,172.222,116.667,405.556,880.556,2.778,/
1576,-0.570,1.685,0.990,61.111,111.111,397.222,861.111,19.444,/
1577,-0.270,1.655,1.400,58.333,116.667,369.444,841.667,19.444,/
1578,0.050,1.965,1.395,63.889,116.667,386.111,847.222,5.556,/
1579,0.160,1.720,0.635,111.111,94.444,358.333,827.778,19.444,/
1580,-0.455,1.485,0.695,194.444,108.333,391.667,830.556,2.778,/
1581,-0.615,1.480,1.050,63.889,116.667,372.222,875.000,44.444,/
1582,-0.545,1.420,0.425,91.667,116.667,405.556,869.444,5.556,/
1583,-0.320,1.440,0.525,58.333,116.667,405.556,880.556,11.111,/
1584,-0.365,1.185,0.850,197.222,111.111,369.444,847.222,33.333,/
1585,-0.705,1.350,0.725,63.889,113.889,344.444,813.889,33.333,/
1586,-0.725,1.310,0.730,58.333,113.889,391.667,813.889,0.000,/
1587,-0.660,1.490,0.435,58.333,111.111,388.889,866.667,52.778,/
1588,-0.345,1.285,0.765,180.556,113.889,388.889,872.222,5.556,/
1589,-0.745,1.360,0.790,63.889,113.889,400.000,863.889,8.333,/
1590,-0.495,1.545,0.725,63.889,116.667,394.444,869.444,5.556,/
1591,-0.345,1.705,1.180,55.556,108.333,375.000,844.444,25.000,/
1592,0.110,1.680,0.655,141.667,97.222,377.778,836.111,8.333,/
1593,-0.560,1.435,1.040,58.333,108.333,394.444,827.778,8.333,/
1594,-0.475,1.580,1.010,58.333,113.889,380.556,833.333,5.556,/
1595,-0.350,1.735,0.785,55.556,111.111,397.222,863.889,30.556,/
1596,0.035,1.695,1.315,113.889,88.889,358.333,902.778,38.889,/
1597,-0.415,1.675,0.860,194.444,116.667,397.222,869.444,33.333,/
1598,-0.515,1.335,0.885,55.556,111.111,372.222,830.556,38.889,/
1599,-0.525,1.340,1.015,91.667,116.667,377.778,819.444,11.111,/
1600,-0.250,1.190,0.520,97.222,94.444,375.000,816.667,2.778,/
1601,-0.775,1.195,0.995,197.222,111.111,394.444,844.444,27.778,/
1602,-0.650,1.350,0.530,63.889,113.889,391.667,875.000,30.556,/
1603,-0.545,1.390,0.260,58.333,108.333,397.222,877.778,2.778,/
1604,-0.430,0.940,0.725,94.444,88.889,372.222,863.889,13.889,/
1605,-0.715,1.015,0.690,197.222,108.333,397.222,869.444,5.556,/
1606,-0.600,1.250,1.285,63.889,116.667,369.444,825.000,44.444,/
1607,-0.450,1.355,0.925,61.111,113.889,391.667,811.111,13.889,/
1608,0.025,1.350,1.305,97.222,91.667,372.222,833.333,22.222,/
1609,-0.385,1.445,1.125,194.444,105.556,386.111,861.111,27.778,/
1610,-0.390,1.365,1.215,55.556,111.111,394.444,886.111,25.000,/
1611,-0.375,1.335,1.320,63.889,111.111,372.222,886.111,0.000,/
1612,-0.035,1.060,0.960,97.222,91.667,355.556,847.222,38.889,/
1613,-0.585,1.085,1.185,197.222,116.667,372.222,808.333,38.889,/
1614,-0.575,1.215,0.990,58.333,111.111,380.556,838.889,30.556,/
1615,-0.485,1.250,1.030,58.333,111.111,391.667,838.889,0.000,/
1616,-0.035,1.215,1.340,100.000,91.667,372.222,863.889,25.000,/
1617,-0.470,1.245,1.085,197.222,116.667,402.778,875.000,11.111,/
1618,-0.460,1.185,1.325,58.333,108.333,377.778,872.222,2.778,/
1619,-0.440,1.285,1.010,66.667,116.667,391.667,861.111,11.111,/
1620,-0.075,1.100,1.040,105.556,97.222,355.556,847.222,13.889,/
1621,-0.565,1.130,1.325,197.222,102.778,347.222,813.889,33.333,/
1622,-0.505,1.250,1.030,66.667,116.667,391.667,819.444,5.556,/
1623,-0.485,1.295,1.025,55.556,111.111,400.000,872.222,52.778,/
1624,-0.030,1.190,1.240,113.889,94.444,369.444,891.667,19.444,/
1625,-0.540,1.140,1.055,197.222,113.889,391.667,869.444,22.222,/
1626,-0.530,1.155,1.225,61.111,116.667,369.444,836.111,33.333,/
1627,-0.475,1.275,1.085,63.889,113.889,372.222,827.778,8.333,/
1628,-0.015,1.175,1.150,111.111,91.667,355.556,827.778,0.000,/
1629,-0.520,1.205,1.380,50.000,105.556,361.111,844.444,16.667,/
1630,-0.400,1.365,1.225,63.889,116.667,397.222,858.333,13.889,/
1631,-0.375,-2.315,0.800,197.222,2.778,186.111,655.556,202.778,V
1632,-0.325,1.395,1.330,58.333,113.889,394.444,811.111,155.556,/
1633,-0.365,1.515,1.175,186.111,116.667,375.000,888.889,77.778,/
1634,-0.010,1.145,1.155,152.778,113.889,377.778,825.000,63.889,/
1635,-0.600,1.150,1.505,55.556,113.889,388.889,805.556,19.444,/
1636,-0.420,1.240,1.315,61.111,113.889,375.000,830.556,25.000,/
1637,-0.385,1.400,1.175,58.333,111.111,394.444,844.444,13.889,/
1638,0.040,1.205,1.190,141.667,105.556,394.444,883.333,38.889,/
1639,-0.465,1.250,1.305,61.111,111.111,397.222,886.111,2.778,/
1640,-0.375,1.295,1.290,58.333,116.667,372.222,858.333,27.778,/
1641,-0.285,1.340,1.230,61.111,111.111,375.000,827.778,30.556,/
1642,0.050,1.130,1.175,105.556,88.889,355.556,844.444,16.667,/
1643,-0.570,1.010,1.145,197.222,105.556,372.222,833.333,11.111,/
1644,-0.540,1.105,1.385,58.333,116.667,375.000,838.889,5.556,/
1645,-0.420,1.215,1.260,55.556,108.333,394.444,877.778,38.889,/
1646,0.010,1.360,1.240,58.333,100.000,380.556,872.222,5.556,/
1647,-0.135,1.050,1.140,194.444,108.333,377.778,877.778,5.556,/
1648,-0.535,1.100,1.530,69.444,116.667,352.778,844.444,33.333,/
1649,-0.605,-2.385,0.735,130.556,44.444,225.000,683.333,161.111,V
1650,-0.370,1.195,1.235,58.333,113.889,377.778,744.444,61.111,/
1651,-0.425,1.260,1.255,52.778,108.333,394.444,855.556,111.111,/
1652,-0.115,1.020,1.175,119.444,97.222,375.000,880.556,25.000,/
1653,-0.680,0.945,1.235,194.444,111.111,372.222,877.778,2.778,/
1654,-0.605,1.120,1.480,58.333,116.667,361.111,858.333,19.444,/
1655,-0.490,1.095,1.235,72.222,116.667,358.333,847.222,11.111,/
1656,-0.105,1.370,1.435,58.333,116.667,377.778,830.556,16.667,/
1657,0.070,1.120,1.405,197.222,113.889,363.889,841.667,11.111,/
1658,-0.485,1.190,1.765,58.333,113.889,380.556,833.333,8.333,/
1659,-0.620,-2.865,1.180,158.333,11.111,255.556,769.444,63.889,V
1660,-0.480,1.170,1.405,61.111,116.667,397.222,872.222,102.778,/
1661,-0.455,1.360,1.325,58.333,116.667,375.000,886.111,13.889,/
1662,-0.050,1.080,1.285,163.889,111.111,355.556,844.444,41.667,/
1663,-0.625,0.990,1.425,55.556,108.333,375.000,811.111,33.333,/
1664,-0.540,1.065,0.875,63.889,111.111,358.333,822.222,11.111,/
1665,-0.495,1.450,1.175,58.333,116.667,391.667,836.111,13.889,/
1666,-0.125,1.560,1.345,94.444,91.667,355.556,877.778,41.667,/
1667,-0.305,1.175,1.135,197.222,116.667,391.667,872.222,5.556,/
1668,-0.590,1.275,1.725,55.556,111.111,361.111,861.111,11.111,/
1669,0.435,-2.980,1.055,197.222,2.778,227.778,594.444,266.667,V
1670,-0.595,1.225,0.985,55.556,102.778,344.444,847.222,252.778,/
1671,-0.580,1.285,1.115,47.222,100.000,352.778,822.222,25.000,/
1672,-0.240,1.780,1.290,58.333,116.667,377.778,819.444,2.778,/
1673,-0.135,1.310,0.600,194.444,116.667,394.444,852.778,33.333,/
1674,-0.510,1.425,1.090,69.444,116.667,405.556,869.444,16.667,/
1675,-0.455,-2.075,0.475,83.333,0.000,205.556,758.333,111.111,V
1676,-0.080,1.655,1.600,63.889,102.778,344.444,805.556,47.222,/
1677,0.035,1.735,1.375,75.000,116.667,363.889,830.556,25.000,/
1678,0.030,-1.940,0.725,161.111,5.556,169.444,683.333,147.222,V
1679,-0.120,1.790,1.065,180.556,116.667,394.444,769.444,86.111,/
1680,-0.065,1.095,1.005,158.333,105.556,383.333,844.444,75.000,/
1681,-2.045,0.810,0.075,1424263.889,105.556,394.444,863.889,19.444,/
1682,-2.045,-2.585,-0.045,1424927.778,5.556,200.000,663.889,200.000,V
1683,-0.500,1.630,2.045,58.333,116.667,397.222,805.556,141.667,/
1684,0.185,2.030,1.415,58.333,113.889,372.222,855.556,50.000,/
1685,0.005,1.890,1.185,55.556,111.111,388.889,847.222,8.333,/
1686,0.135,-2.250,0.405,197.222,2.778,125.000,613.889,233.333,V
1687,-2.045,1.165,0.350,1428811.111,116.667,383.333,761.111,147.222,/
1688,-0.915,-2.235,0.620,150.000,5.556,205.556,727.778,33.333,V
1689,0.275,2.080,1.650,166.667,116.667,397.222,816.667,88.889,/
1690,-0.355,1.710,1.045,191.667,108.333,397.222,877.778,61.111,/
1691,-0.315,2.285,1.115,55.556,105.556,375.000,861.111,16.667,/
1692,-0.255,2.510,1.295,80.556,116.667,377.778,836.111,25.000,/
1693,-0.335,2.250,0.345,113.889,102.778,375.000,816.667,19.444,/
1694,-2.045,2.070,0.200,1434577.778,116.667,400.000,830.556,13.889,/
1695,-2.045,2.145,0.530,1435430.556,116.667,377.778,852.778,22.222,/
1696,-0.230,2.990,1.165,58.333,116.667,386.111,866.667,13.889,/
1697,0.510,3.135,1.660,86.111,111.111,394.444,869.444,2.778,/
1698,0.005,2.880,1.150,191.667,116.667,388.889,891.667,22.222,/
1699,-0.165,2.705,1.305,72.222,116.667,366.667,850.000,41.667,/
1700,0.175,2.845,1.615,58.333,108.333,363.889,816.667,33.333,/
1701,0.390,2.485,1.535,105.556,91.667,355.556,816.667,0.000,/
1702,-0.075,2.335,1.080,130.556,105.556,394.444,833.333,16.667,/
1703,-0.035,2.280,1.215,72.222,105.556,394.444,875.000,41.667,/
1704,0.055,2.155,1.310,69.444,111.111,377.778,891.667,16.667,/
1705,0.115,1.920,0.700,100.000,113.889,386.111,863.889,27.778,/
1706,-0.375,1.770,0.985,44.444,94.444,375.000,836.111,27.778,/
1707,-0.240,1.890,1.060,91.667,116.667,386.111,838.889,2.778,/
1708,-0.215,1.840,1.100,116.667,116.667,369.444,827.778,11.111,/
1709,0.055,1.775,0.970,91.667,116.667,400.000,827.778,0.000,/
1710,-0.445,1.605,0.665,136.111,108.333,397.222,866.667,38.889,/
1711,-0.555,1.590,0.775,63.889,111.111,391.667,883.333,16.667,/
1712,-0.465,1.735,0.560,97.222,113.889,402.778,880.556,2.778,/
1713,-0.350,1.485,0.365,155.556,108.333,358.333,863.889,16.667,/
1714,-0.890,1.355,0.685,83.333,113.889,369.444,822.222,41.667,/
1715,-2.045,1.115,-0.240,1452450.000,113.889,394.444,797.222,25.000,/
1716,-0.705,1.480,0.490,61.111,113.889,402.778,850.000,52.778,/
1717,0.130,1.615,0.935,183.333,113.889,402.778,872.222,22.222,/
1718,-0.170,1.590,1.365,61.111,108.333,375.000,875.000,2.778,/
1719,-0.645,1.130,0.680,197.222,102.778,386.111,858.333,16.667,/
1720,-0.720,1.520,0.625,58.333,116.667,388.889,850.000,8.333,/
1721,-0.150,1.520,1.135,191.667,116.667,391.667,830.556,19.444,/
1722,-0.030,1.825,1.790,58.333,116.667,366.667,844.444,13.889,/
1723,0.085,1.835,1.295,50.000,102.778,372.222,825.000,19.444,/
1724,0.170,1.425,1.135,52.778,91.667,377.778,852.778,27.778,/
1725,-0.130,1.310,1.450,197.222,108.333,391.667,902.778,50.000,/
1726,-0.205,1.450,1.130,61.111,108.333,361.111,880.556,22.222,/
1727,-0.355,1.305,0.910,63.889,116.667,380.556,844.444,36.111,/
1728,-0.055,1.065,1.030,86.111,88.889,347.222,816.667,27.778,/
1729,-0.345,1.120,1.105,197.222,116.667,369.444,819.444,2.778,/
1730,-0.425,1.215,1.195,66.667,116.667,383.333,836.111,16.667,/
1731,-0.545,1.125,0.695,63.889,116.667,397.222,872.222,36.111,/
1732,-0.185,0.930,0.925,136.111,100.000,388.889,872.222,0.000,/
1733,-0.675,1.055,1.060,52.778,111.111,400.000,861.111,11.111,/
1734,-0.585,1.055,0.650,58.333,113.889,394.444,863.889,2.778,/
1735,-0.460,1.490,0.880,58.333,116.667,386.111,841.667,22.222,/
1736,0.005,1.440,1.255,172.222,111.111,358.333,825.000,16.667,/
1737,-0.510,1.510,1.050,183.333,116.667,388.889,822.222,2.778,/
1738,-0.630,1.180,1.015,63.889,113.889,380.556,866.667,44.444,/
1739,-0.360,1.270,0.395,58.333,116.667,405.556,880.556,13.889,/
1740,-0.575,1.155,0.480,197.222,100.000,372.222,886.111,5.556,/
1741,-0.780,1.525,0.960,100.000,116.667,358.333,850.000,36.111,/
1742,-0.710,1.535,0.735,80.556,113.889,375.000,813.889,36.111,/
1743,-0.630,1.295,0.780,61.111,105.556,358.333,825.000,11.111,/
1744,-2.045,1.190,0.545,1477130.556,111.111,400.000,841.667,16.667,/
1745,-0.700,1.515,1.070,55.556,100.000,366.667,861.111,19.444,/
1746,-0.155,1.955,1.650,61.111,116.667,391.667,872.222,11.111,/
1747,0.485,2.035,1.090,150.000,108.333,369.444,877.778,5.556,/
1748,-0.380,2.030,1.800,63.889,113.889,394.444,852.778,25.000,/
1749,-0.165,2.140,1.060,125.000,111.111,377.778,844.444,8.333,/
1750,-0.235,2.195,1.125,66.667,116.667,372.222,825.000,19.444,/
1751,0.170,1.820,1.570,183.333,102.778,372.222,822.222,2.778,/
1752,-0.230,1.675,1.325,66.667,113.889,388.889,861.111,38.889,/
1753,-0.380,1.535,1.220,63.889,111.111,386.111,900.000,38.889,/
1754,0.145,1.590,1.065,55.556,105.556,358.333,875.000,25.000,/
1755,-0.350,1.385,0.980,197.222,116.667,380.556,838.889,36.111,/
1756,-0.795,1.455,0.705,72.222,105.556,350.000,822.222,16.667,/
1757,-0.730,1.630,0.820,69.444,116.667,388.889,813.889,8.333,/
1758,-0.130,1.625,1.010,113.889,94.444,372.222,844.444,30.556,/
1759,-0.565,1.700,1.225,58.333,113.889,402.778,852.778,8.333,/
1760,-0.340,1.730,1.075,63.889,111.111,377.778,880.556,27.778,/
1761,-0.495,1.565,0.750,191.667,108.333,391.667,877.778,2.778,/
1762,-0.610,1.215,0.900,158.333,102.778,350.000,883.333,5.556,/
1763,-0.685,1.830,1.355,75.000,116.667,372.222,827.778,55.556,/
1764,-0.345,1.980,1.030,61.111,108.333,366.667,811.111,16.667,/
1765,-0.135,1.995,1.425,58.333,116.667,394.444,833.333,22.222,/
1766,0.160,1.595,1.620,180.556,105.556,380.556,847.222,13.889,/
1767,-0.065,1.725,1.890,80.556,116.667,391.667,888.889,41.667,/
1768,-0.225,1.695,1.250,61.111,113.889,394.444,880.556,8.333,/
1769,-0.210,1.695,1.040,58.333,116.667,369.444,855.556,25.000,/
1770,-0.220,1.585,1.085,197.222,105.556,375.000,819.444,36.111,/
1771,-2.045,1.480,-0.130,1500144.444,116.667,366.667,844.444,25.000,/
1772,-2.045,1.215,-0.260,1500975.000,116.667,397.222,830.556,13.889,/
1773,-0.755,2.220,1.115,63.889,116.667,402.778,838.889,8.333,/
1774,-0.180,-1.675,0.765,197.222,50.000,252.778,636.111,202.778,V
1775,0.620,2.845,1.975,77.778,102.778,377.778,825.000,188.889,/
1776,0.165,2.790,1.865,197.222,116.667,388.889,875.000,50.000,/
1777,-0.020,2.635,1.825,183.333,116.667,363.889,861.111,13.889,/
1778,0.040,2.515,1.155,66.667,116.667,372.222,816.667,44.444,/
1779,0.120,2.050,1.375,58.333,116.667,388.889,805.556,11.111,/
1780,0.375,2.105,1.415,194.444,111.111,391.667,852.778,47.222,/
1781,2.125,-1.690,-0.240,72.222,2.778,344.444,777.778,75.000,V
1782,-0.135,1.800,1.245,66.667,116.667,372.222,863.889,86.111,/
1783,-0.275,1.570,1.030,58.333,105.556,372.222,855.556,8.333,/
1784,-0.075,1.470,0.805,55.556,108.333,366.667,852.778,2.778,/
1785,-0.280,1.415,0.785,197.222,111.111,372.222,819.444,33.333,/
1786,-0.670,1.375,1.065,66.667,116.667,375.000,836.111,16.667,/
1787,-0.565,1.490,0.825,63.889,113.889,397.222,830.556,5.556,/
1788,-0.425,1.695,0.835,58.333,116.667,405.556,861.111,30.556,/
1789,-0.170,1.540,0.910,197.222,116.667,405.556,894.444,33.333,/
1790,-0.605,1.560,1.300,58.333,111.111,394.444,891.667,2.778,/
1791,-0.480,1.595,0.905,66.667,116.667,372.222,855.556,36.111,/
1792,-0.440,1.650,0.875,61.111,111.111,358.333,811.111,44.444,/
1793,-0.140,1.525,0.940,125.000,97.222,358.333,819.444,8.333,/
1794,-0.625,1.510,1.080,63.889,113.889,383.333,833.333,13.889,/
1795,-2.045,1.690,0.695,1520161.111,111.111,386.111,872.222,38.889,/
1796,-0.970,1.955,1.175,55.556,108.333,383.333,872.222,0.000,/
1797,-0.670,1.980,0.485,44.444,91.667,380.556,866.667,5.556,/
1798,-2.045,1.950,0.460,1522752.778,116.667,397.222,852.778,13.889,/
1799,-0.425,2.385,1.955,72.222,116.667,369.444,844.444,8.333,/
1800,0.125,2.665,1.590,61.111,113.889,372.222,825.000,19.444,/
1801,0.195,2.485,1.580,52.778,102.778,369.444,825.000,0.000,/
1802,0.275,1.985,1.335,141.667,108.333,391.667,869.444,44.444,/
1803,-0.450,1.720,1.320,55.556,108.333,386.111,883.333,13.889,/
1804,-0.330,1.785,1.050,58.333,111.111,375.000,883.333,0.000,/
1805,-0.440,1.675,1.040,52.778,105.556,375.000,844.444,38.889,/
1806,-0.180,1.800,1.260,58.333,116.667,372.222,816.667,27.778,/
1807,0.215,1.845,1.505,197.222,108.333,377.778,822.222,5.556,/
1808,-0.080,2.005,1.715,175.000,113.889,391.667,850.000,27.778,/
1809,-0.255,1.740,1.200,58.333,113.889,380.556,863.889,13.889,/
1810,-0.505,1.560,0.800,191.667,105.556,375.000,866.667,2.778,/
1811,-0.660,1.420,0.250,105.556,94.444,372.222,872.222,5.556,/
1812,-2.045,1.530,0.555,1534666.667,111.111,388.889,847.222,25.000,/
1813,-0.855,1.535,1.005,58.333,116.667,369.444,847.222,0.000,/
1814,-0.695,1.635,0.840,63.889,116.667,375.000,825.000,22.222,/
1815,-0.585,1.840,0.765,72.222,116.667,386.111,822.222,2.778,/
1816,-0.350,1.705,0.820,152.778,105.556,391.667,866.667,44.444,/
1817,-0.770,1.485,0.790,125.000,116.667,400.000,900.000,33.333,/
1818,-0.090,-2.560,-0.140,197.222,5.556,188.889,625.000,275.000,V
1819,-0.710,1.645,1.050,197.222,116.667,394.444,780.556,155.556,/
1820,-0.555,1.635,1.290,58.333,113.889,366.667,827.778,47.222,/
1821,-0.440,1.770,1.025,58.333,116.667,397.222,813.889,13.889,/
1822,-0.330,1.895,1.025,61.111,113.889,397.222,836.111,22.222,/
1823,-0.110,1.635,1.085,172.222,108.333,394.444,850.000,13.889,/
1824,-0.665,1.415,0.760,194.444,116.667,405.556,872.222,22.222,/
1825,-2.045,1.390,0.650,1545405.556,116.667,405.556,872.222,0.000,/
1826,-0.515,1.920,1.110,63.889,111.111,377.778,891.667,19.444,/
1827,0.215,2.110,1.465,86.111,100.000,372.222,838.889,52.778,/
1828,0.175,2.065,1.555,197.222,116.667,383.333,805.556,33.333,/
1829,-0.120,2.090,1.520,58.333,113.889,388.889,825.000,19.444,/
1830,-0.170,1.895,1.260,61.111,113.889,391.667,847.222,22.222,/
1831,-0.175,2.045,1.275,61.111,116.667,405.556,888.889,41.667,/
1832,-0.195,-2.005,0.500,155.556,2.778,211.111,772.222,116.667,V
1833,0.310,1.980,1.345,127.778,102.778,372.222,797.222,25.000,/
1834,-0.200,1.780,1.210,197.222,116.667,375.000,830.556,33.333,/
1835,-0.470,1.545,1.005,58.333,116.667,369.444,836.111,5.556,/
1836,-0.585,1.415,0.665,61.111,113.889,391.667,825.000,11.111,/
1837,-0.650,1.435,0.780,58.333,116.667,394.444,830.556,5.556,/
1838,-0.285,1.365,0.780,175.000,108.333,394.444,863.889,33.333,/
1839,1.685,-2.220,-0.705,72.222,2.778,338.889,741.667,122.222,V
1840,-0.505,1.540,1.235,55.556,113.889,402.778,869.444,127.778,/
1841,-0.385,1.660,0.965,69.444,111.111,366.667,866.667,2.778,/
1842,-0.405,1.615,0.955,63.889,116.667,377.778,825.000,41.667,/
1843,-0.090,1.560,0.980,52.778,100.000,369.444,808.333,16.667,/
1844,-0.295,1.360,0.440,194.444,111.111,391.667,841.667,33.333,/
1845,-2.045,1.255,0.965,1562086.111,116.667,405.556,875.000,33.333,/
1846,-0.620,1.765,1.185,63.889,116.667,391.667,877.778,2.778,/
1847,-0.105,2.150,1.435,69.444,116.667,400.000,858.333,19.444,/
1848,0.345,2.020,1.370,94.444,91.667,355.556,852.778,5.556,/
1849,-0.045,1.835,1.335,197.222,116.667,375.000,827.778,25.000,/
1850,-0.250,1.805,1.430,55.556,111.111,361.111,838.889,11.111,/
1851,-0.295,1.680,1.085,69.444,116.667,388.889,825.000,13.889,/
1852,-0.330,1.820,1.145,61.111,116.667,400.000,844.444,19.444,/
1853,0.095,1.690,1.085,144.444,97.222,386.111,900.000,55.556,/
1854,-0.395,1.590,1.110,197.222,102.778,375.000,891.667,8.333,/
1855,-0.435,1.570,1.285,55.556,108.333,341.667,852.778,38.889,/
1856,-0.345,1.585,1.025,130.556,116.667,369.444,819.444,33.333,/
1857,-0.415,1.695,0.990,63.889,116.667,375.000,822.222,2.778,/
1858,-0.065,1.600,0.960,155.556,111.111,388.889,827.778,5.556,/
1859,-0.505,1.675,1.160,63.889,116.667,394.444,869.444,41.667,/
1860,-0.240,1.940,1.300,66.667,116.667,375.000,869.444,0.000,/
1861,-0.095,-2.015,0.415,197.222,5.556,186.111,650.000,219.444,V
1862,-0.365,1.795,0.950,66.667,116.667,386.111,800.000,150.000,/
1863,-0.590,1.515,0.830,55.556,108.333,358.333,855.556,55.556,/
1864,-0.420,1.570,0.690,55.556,113.889,375.000,822.222,33.333,/
1865,-0.335,1.305,0.720,191.667,113.889,375.000,816.667,5.556,/
1866,-0.805,1.385,0.975,58.333,113.889,402.778,847.222,30.556,/
1867,-0.685,-2.535,0.090,197.222,5.556,197.222,669.444,177.778,V
1868,-0.545,1.645,1.285,63.889,113.889,402.778,822.222,152.778,/
1869,-0.530,1.575,0.925,55.556,105.556,372.222,888.889,66.667,/
1870,-0.510,1.660,0.850,66.667,116.667,375.000,844.444,44.444,/
1871,-0.140,1.550,0.925,69.444,111.111,375.000,811.111,33.333,/
1872,-0.235,1.600,1.030,197.222,108.333,388.889,830.556,19.444,/
1873,0.020,-2.350,0.100,197.222,5.556,191.667,616.667,213.889,V
1874,-0.025,1.785,1.060,197.222,116.667,383.333,797.222,180.556,/
1875,-0.425,1.815,1.305,58.333,116.667,402.778,866.667,69.444,/
1876,-0.355,1.855,1.005,66.667,113.889,386.111,875.000,8.333,/
1877,-0.635,1.565,0.675,66.667,116.667,386.111,852.778,22.222,/
1878,-0.645,1.735,0.860,58.333,113.889,383.333,841.667,11.111,/
1879,-0.490,-2.050,0.070,197.222,5.556,194.444,655.556,186.111,V
1880,-0.020,2.135,1.330,58.333,116.667,372.222,769.444,113.889,/
1881,0.330,1.985,1.225,172.222,108.333,391.667,838.889,69.444,/
1882,-0.415,1.850,1.040,61.111,111.111,394.444,900.000,61.111,/
1883,-0.385,1.800,1.295,58.333,108.333,375.000,880.556,19.444,/
1884,-0.350,1.745,0.990,58.333,111.111,386.111,852.778,27.778,/
1885,-0.340,1.730,0.920,58.333,108.333,375.000,830.556,22.222,/
1886,-0.090,1.550,0.900,97.222,100.000,372.222,811.111,19.444,/
1887,-0.275,1.550,0.970,197.222,113.889,386.111,833.333,22.222,/
1888,-0.510,1.570,1.210,58.333,111.111,388.889,858.333,25.000,/
1889,-0.530,1.515,0.840,61.111,116.667,391.667,872.222,13.889,/
1890,-0.540,1.550,0.855,58.333,111.111,391.667,863.889,8.333,/
1891,-0.325,1.670,0.640,58.333,116.667,391.667,886.111,22.222,/
