id,Pamp,Ramp,Tamp,PR,QRS,QT,RRI,dRRI,label
1,-0.145,-0.425,0.060,27.778,30.556,302.778,1138.889,19.444,N
2,-0.080,-0.385,0.115,30.556,33.333,305.556,1144.444,5.556,N
3,-0.075,-0.455,0.090,25.000,27.778,277.778,1091.667,52.778,N
4,-0.165,-0.570,0.015,30.556,33.333,330.556,1066.667,25.000,N
5,-0.085,-0.415,0.155,33.333,36.111,322.222,1177.778,111.111,N
6,-0.045,-0.455,0.165,25.000,30.556,283.333,1116.667,61.111,N
7,-0.075,-0.555,0.045,27.778,30.556,291.667,1091.667,25.000,N
8,-0.110,-0.570,0.105,30.556,30.556,288.889,1086.111,5.556,N
9,-0.085,-0.420,0.160,27.778,33.333,311.111,1044.444,41.667,N
10,-0.090,-0.430,0.055,33.333,36.111,319.444,1144.444,100.000,N
11,-0.180,-0.660,0.090,30.556,33.333,302.778,1130.556,13.889,N
12,-0.145,-0.445,0.140,33.333,33.333,319.444,1086.111,44.444,N
13,-0.170,-0.595,0.020,27.778,33.333,302.778,1080.556,5.556,N
14,-0.145,-0.615,0.115,27.778,33.333,286.111,1063.889,16.667,N
15,-0.125,-0.590,0.085,30.556,36.111,313.889,1058.333,5.556,N
16,-0.175,-0.635,-0.015,27.778,33.333,308.333,1152.778,94.444,N
17,-0.210,-0.610,0.030,27.778,30.556,283.333,1108.333,44.444,N
18,-0.245,-0.655,-0.035,30.556,30.556,280.556,1086.111,22.222,N
19,-0.200,-0.680,0.040,27.778,33.333,305.556,1058.333,27.778,N
20,-0.155,-0.545,0.075,30.556,33.333,308.333,1066.667,8.333,N
21,-0.125,-0.585,0.085,30.556,33.333,325.000,1147.222,80.556,N
22,-0.115,-0.505,0.105,33.333,36.111,322.222,1175.000,27.778,N
23,-0.070,-0.435,0.140,30.556,33.333,308.333,1108.333,66.667,N
24,-0.100,-0.535,0.070,25.000,30.556,288.889,1113.889,5.556,N
25,-0.150,-0.530,0.020,27.778,27.778,261.111,1144.444,30.556,N
26,-0.185,-0.610,0.000,27.778,30.556,319.444,1127.778,16.667,N
27,-0.155,-0.490,0.060,30.556,33.333,341.667,1197.222,69.444,N
28,-0.110,-0.525,0.055,30.556,30.556,286.111,1155.556,41.667,N
29,-0.080,-0.530,0.095,27.778,30.556,305.556,1091.667,63.889,N
30,-0.070,-0.485,0.085,27.778,30.556,294.444,1113.889,22.222,N
31,-0.125,-0.540,0.020,30.556,33.333,305.556,1091.667,22.222,N
32,-0.140,-0.585,0.015,30.556,33.333,322.222,1130.556,38.889,N
33,-0.135,-0.520,0.055,25.000,27.778,283.333,1172.222,41.667,N
34,-0.150,-0.590,0.025,27.778,30.556,313.889,1080.556,91.667,N
35,-0.175,-0.645,0.000,27.778,27.778,266.667,1080.556,0.000,N
36,-0.115,-0.490,0.075,30.556,33.333,341.667,1063.889,16.667,N
37,-0.145,-0.595,-0.005,27.778,30.556,297.222,1161.111,97.222,N
38,-0.145,-0.615,0.100,33.333,33.333,319.444,1125.000,36.111,N
39,-0.090,-0.450,0.135,30.556,33.333,311.111,1125.000,0.000,N
40,-0.115,-0.600,0.035,27.778,30.556,294.444,1063.889,61.111,N
41,-0.115,-0.600,0.175,30.556,5.556,286.111,1061.111,2.778,N
42,-0.080,-0.550,0.145,27.778,30.556,313.889,1102.778,41.667,N
43,-0.080,-0.545,0.110,27.778,30.556,300.000,1097.222,5.556,N
44,-0.045,-0.515,0.200,30.556,33.333,288.889,1111.111,13.889,N
45,-0.040,-0.490,0.200,30.556,33.333,286.111,1086.111,25.000,N
46,-0.060,-0.570,0.130,27.778,33.333,311.111,1008.333,77.778,N
47,-0.060,-0.590,0.225,27.778,2.778,311.111,1013.889,5.556,N
48,-0.040,-0.510,0.195,27.778,33.333,313.889,1113.889,100.000,N
49,-0.070,-0.500,0.085,30.556,33.333,322.222,1077.778,36.111,N
50,-0.080,-0.550,0.265,30.556,33.333,294.444,1088.889,11.111,N
51,-0.015,-0.560,0.185,197.222,30.556,305.556,1041.667,47.222,N
52,-0.065,-0.555,0.120,30.556,30.556,291.667,1030.556,11.111,N
53,-0.080,-0.525,0.150,27.778,33.333,313.889,1027.778,2.778,N
54,-0.055,-0.595,0.145,30.556,33.333,319.444,1125.000,97.222,N
55,-0.100,-0.620,0.125,33.333,5.556,300.000,1088.889,36.111,N
56,-0.050,-0.495,0.180,30.556,33.333,308.333,1094.444,5.556,N
57,-0.060,-0.525,0.120,27.778,30.556,286.111,1036.111,58.333,N
58,-0.040,-0.560,0.260,19.444,25.000,266.667,1033.333,2.778,N
59,0.035,-0.410,0.280,30.556,36.111,325.000,1094.444,61.111,N
60,-0.010,-0.545,0.145,27.778,0.000,305.556,1111.111,16.667,N
61,-0.015,-0.495,0.245,197.222,30.556,302.778,1075.000,36.111,N
62,-0.010,-0.525,0.175,27.778,33.333,302.778,1083.333,8.333,N
63,-0.005,-0.515,0.275,27.778,2.778,286.111,1033.333,50.000,N
64,0.035,-0.460,0.180,25.000,30.556,325.000,994.444,38.889,N
65,0.025,-0.505,0.240,33.333,5.556,302.778,1122.222,127.778,N
66,0.035,-0.495,0.285,30.556,30.556,308.333,1077.778,44.444,N
67,0.005,-0.430,0.280,30.556,36.111,319.444,1058.333,19.444,N
68,-0.020,-0.465,0.200,197.222,33.333,286.111,1063.889,5.556,N
69,-0.030,-0.590,0.170,27.778,30.556,275.000,1008.333,55.556,N
70,-0.065,-0.520,0.180,30.556,30.556,313.889,1027.778,19.444,N
71,-0.035,-0.550,0.110,30.556,33.333,305.556,1108.333,80.556,N
72,-0.055,-0.565,0.160,30.556,30.556,288.889,1083.333,25.000,N
73,-0.060,-0.470,0.185,33.333,33.333,316.667,1055.556,27.778,N
74,-0.030,-0.470,0.140,27.778,30.556,272.222,1044.444,11.111,N
75,-0.065,-0.440,0.165,22.222,27.778,311.111,994.444,50.000,N
76,0.425,-1.105,0.425,25.000,5.556,277.778,544.444,450.000,V
77,0.050,-0.160,0.055,27.778,30.556,344.444,1622.222,1077.778,N
78,-0.020,-0.285,0.150,186.111,30.556,283.333,1061.111,561.111,N
79,0.000,-0.345,0.150,30.556,33.333,297.222,1088.889,27.778,N
80,-0.095,-0.505,0.145,27.778,30.556,280.556,1030.556,58.333,N
81,-0.005,-0.325,0.230,27.778,36.111,316.667,1000.000,30.556,N
82,-0.015,-0.370,0.115,33.333,36.111,305.556,1094.444,94.444,N
83,-0.065,-0.485,0.170,30.556,33.333,305.556,1113.889,19.444,N
84,-0.070,-0.520,0.115,30.556,30.556,300.000,1033.333,80.556,N
85,-0.175,-0.645,0.035,30.556,30.556,302.778,1063.889,30.556,N
86,-0.145,-0.480,0.070,27.778,30.556,258.333,1050.000,13.889,N
87,-0.145,-0.575,0.010,30.556,33.333,322.222,1016.667,33.333,N
88,-0.225,-0.655,0.000,33.333,33.333,302.778,1119.444,102.778,N
89,-0.205,-0.575,0.020,30.556,33.333,277.778,1111.111,8.333,N
90,-0.190,-0.630,-0.015,27.778,33.333,294.444,1063.889,47.222,N
91,-0.230,-0.635,0.020,33.333,33.333,302.778,1075.000,11.111,N
92,-0.160,-0.565,0.065,27.778,33.333,294.444,1025.000,50.000,N
93,-0.175,-0.645,0.015,30.556,30.556,313.889,1111.111,86.111,N
94,-0.140,-0.645,0.045,27.778,33.333,311.111,1119.444,8.333,N
95,-0.165,-0.515,0.070,30.556,36.111,316.667,1094.444,25.000,N
96,-0.195,-0.670,-0.005,27.778,30.556,300.000,1080.556,13.889,N
97,-0.210,-0.600,0.035,30.556,30.556,283.333,1083.333,2.778,N
98,-0.140,-0.560,0.065,30.556,36.111,305.556,1047.222,36.111,N
99,-0.105,-0.510,0.070,30.556,30.556,302.778,1133.333,86.111,N
100,-0.190,-0.675,0.035,27.778,30.556,297.222,1119.444,13.889,N
101,-0.185,-0.530,0.060,30.556,33.333,286.111,1097.222,22.222,N
102,-0.215,-0.595,-0.035,30.556,33.333,316.667,1050.000,47.222,N
103,-0.200,-0.605,0.055,30.556,33.333,327.778,1075.000,25.000,N
104,-0.125,-0.480,0.040,30.556,33.333,305.556,1136.111,61.111,N
105,-0.180,-0.520,0.055,27.778,33.333,313.889,1125.000,11.111,N
106,-0.160,-0.605,0.055,30.556,33.333,313.889,1113.889,11.111,N
107,-0.170,-0.675,0.065,27.778,33.333,283.333,1083.333,30.556,N
108,-0.145,-0.575,0.110,33.333,33.333,305.556,1097.222,13.889,N
109,-0.205,-0.705,0.085,36.111,5.556,297.222,1108.333,11.111,N
110,-0.120,-0.655,0.135,30.556,2.778,322.222,1133.333,25.000,N
111,-0.135,-0.665,0.085,30.556,5.556,291.667,1136.111,2.778,N
112,-0.145,-0.670,0.175,27.778,2.778,294.444,1111.111,25.000,N
113,-0.090,-0.640,0.100,30.556,5.556,302.778,1058.333,52.778,N
114,0.390,-1.055,0.315,25.000,8.333,255.556,541.667,516.667,V
115,-0.035,-0.360,0.105,30.556,33.333,325.000,1652.778,1111.111,N
116,0.005,-0.580,0.195,30.556,2.778,305.556,1150.000,502.778,N
117,0.025,-0.515,0.265,27.778,2.778,291.667,1097.222,52.778,N
118,-0.010,-0.535,0.165,188.889,2.778,300.000,1094.444,2.778,N
119,-0.020,-0.555,0.210,30.556,30.556,272.222,1061.111,33.333,N
120,0.015,-0.460,0.245,33.333,36.111,325.000,1116.667,55.556,N
121,-0.040,-0.640,0.120,30.556,5.556,291.667,1113.889,2.778,N
122,-0.100,-0.615,0.185,25.000,27.778,302.778,1100.000,13.889,N
123,-0.085,-0.560,0.115,27.778,33.333,291.667,1094.444,5.556,N
124,-0.180,-0.690,-0.005,27.778,30.556,280.556,1058.333,36.111,N
125,-0.160,-0.615,0.085,30.556,36.111,336.111,1036.111,22.222,N
126,-0.125,-0.630,0.095,30.556,36.111,308.333,1141.667,105.556,N
127,-0.040,-0.575,0.175,27.778,33.333,294.444,1097.222,44.444,N
128,-0.070,-0.610,0.120,33.333,5.556,316.667,1077.778,19.444,N
129,-0.095,-0.625,0.145,25.000,2.778,280.556,1100.000,22.222,N
130,-0.065,-0.605,0.125,27.778,2.778,258.333,1038.889,61.111,N
131,-0.080,-0.545,0.185,33.333,5.556,316.667,1111.111,72.222,N
132,-0.060,-0.660,0.110,25.000,2.778,277.778,1119.444,8.333,N
133,-0.060,-0.590,0.195,25.000,2.778,283.333,1125.000,5.556,N
134,-0.065,-0.610,0.080,27.778,2.778,313.889,1088.889,36.111,N
135,-0.100,-0.690,0.160,27.778,2.778,297.222,1086.111,2.778,N
136,-0.075,-0.620,0.130,27.778,2.778,327.778,1030.556,55.556,N
137,-0.085,-0.685,0.160,27.778,2.778,313.889,1147.222,116.667,N
138,-0.025,-0.550,0.235,30.556,2.778,305.556,1127.778,19.444,N
139,-0.050,-0.645,0.095,27.778,2.778,305.556,1063.889,63.889,N
140,-0.085,-0.645,0.210,27.778,2.778,297.222,1094.444,30.556,N
141,0.260,-0.365,0.450,25.000,2.778,263.889,1050.000,44.444,N
142,0.010,-0.600,0.185,30.556,2.778,327.778,1050.000,0.000,N
143,-0.080,-0.595,0.185,30.556,2.778,300.000,1144.444,94.444,N
144,-0.105,-0.665,0.095,197.222,30.556,288.889,1077.778,66.667,N
145,-0.235,-0.820,-0.045,30.556,5.556,305.556,1052.778,25.000,N
146,-0.170,-0.745,0.090,27.778,2.778,294.444,1075.000,22.222,N
147,-0.140,-0.765,0.105,25.000,0.000,311.111,997.222,77.778,N
148,-0.145,-0.720,0.110,33.333,5.556,316.667,1130.556,133.333,N
149,-0.110,-0.635,0.170,27.778,2.778,300.000,1116.667,13.889,N
150,-0.090,-0.655,0.120,30.556,2.778,302.778,1061.111,55.556,N
151,-0.100,-0.700,0.140,27.778,0.000,300.000,1066.667,5.556,N
152,-0.095,-0.640,0.135,25.000,2.778,272.222,1066.667,0.000,N
153,-0.095,-0.645,0.085,30.556,2.778,325.000,1061.111,5.556,N
154,-0.205,-0.770,0.020,27.778,0.000,297.222,1141.667,80.556,N
155,-0.225,-0.725,0.020,197.222,30.556,283.333,1113.889,27.778,N
156,-0.240,-0.920,-0.095,194.444,0.000,288.889,1077.778,36.111,N
157,-0.310,-0.845,-0.025,27.778,2.778,308.333,1083.333,5.556,N
158,-0.250,-0.760,-0.030,27.778,33.333,302.778,1052.778,30.556,N
159,-0.285,-0.855,-0.040,27.778,2.778,316.667,1122.222,69.444,N
160,-0.250,-0.740,-0.010,30.556,36.111,311.111,1152.778,30.556,N
161,-0.230,-0.815,-0.035,27.778,2.778,288.889,1088.889,63.889,N
162,-0.250,-0.775,0.010,30.556,2.778,305.556,1069.444,19.444,N
163,-0.210,-0.735,0.015,27.778,33.333,258.333,1113.889,44.444,N
164,-0.225,-0.770,-0.010,30.556,2.778,300.000,1069.444,44.444,N
165,-0.240,-0.730,0.025,33.333,38.889,336.111,1152.778,83.333,N
166,-0.220,-0.785,-0.010,22.222,0.000,277.778,1136.111,16.667,N
167,-0.270,-0.850,-0.025,27.778,2.778,305.556,1058.333,77.778,N
168,-0.235,-0.800,0.015,27.778,2.778,294.444,1094.444,36.111,N
169,-0.270,-0.810,-0.040,25.000,0.000,316.667,1041.667,52.778,N
170,-0.175,-0.700,0.090,30.556,36.111,325.000,1130.556,88.889,N
171,-0.125,-0.660,0.105,30.556,2.778,305.556,1150.000,19.444,N
172,-0.130,-0.700,0.175,25.000,2.778,302.778,1066.667,83.333,N
173,-0.050,-0.580,0.250,25.000,0.000,291.667,1075.000,8.333,N
174,-0.010,-0.635,0.180,25.000,0.000,275.000,1066.667,8.333,N
175,0.575,-0.850,0.445,25.000,11.111,266.667,611.111,455.556,V
176,-0.015,-0.440,0.130,30.556,33.333,316.667,1550.000,938.889,N
177,-0.040,-0.655,0.135,25.000,2.778,291.667,1108.333,441.667,N
178,-0.060,-0.605,0.170,25.000,30.556,300.000,1055.556,52.778,N
179,-0.040,-0.665,0.120,27.778,2.778,291.667,1044.444,11.111,N
180,-0.105,-0.695,0.175,25.000,0.000,316.667,986.111,58.333,N
181,-0.005,-0.550,0.240,27.778,33.333,322.222,1127.778,141.667,N
182,-0.030,-0.665,0.155,27.778,0.000,322.222,1069.444,58.333,N
183,-0.055,-0.635,0.200,30.556,5.556,294.444,1100.000,30.556,N
184,-0.010,-0.590,0.225,25.000,0.000,291.667,1044.444,55.556,N
185,-0.040,-0.635,0.185,27.778,2.778,286.111,1055.556,11.111,N
186,0.015,-0.530,0.265,30.556,33.333,325.000,1047.222,8.333,N
187,-0.040,-0.635,0.130,30.556,2.778,302.778,1136.111,88.889,N
188,-0.105,-0.725,0.140,27.778,2.778,308.333,1111.111,25.000,N
189,-0.085,-0.620,0.150,27.778,33.333,302.778,1122.222,11.111,N
190,-0.125,-0.695,0.070,27.778,2.778,288.889,1083.333,38.889,N
191,-0.125,-0.680,0.125,27.778,2.778,297.222,1038.889,44.444,N
192,-0.085,-0.570,0.200,33.333,36.111,313.889,1183.333,144.444,N
193,-0.060,-0.620,0.090,30.556,2.778,302.778,1127.778,55.556,N
194,-0.130,-0.650,0.120,30.556,5.556,319.444,1116.667,11.111,N
195,-0.095,-0.635,0.085,27.778,33.333,288.889,1111.111,5.556,N
196,-0.170,-0.715,0.025,27.778,2.778,266.667,1055.556,55.556,N
197,-0.185,-0.660,0.065,33.333,36.111,302.778,1083.333,27.778,N
198,-0.200,-0.790,-0.025,27.778,2.778,325.000,1144.444,61.111,N
199,-0.235,-0.820,0.010,197.222,2.778,286.111,1102.778,41.667,N
200,-0.230,-0.785,-0.005,27.778,2.778,308.333,1111.111,8.333,N
201,-0.215,-0.765,-0.030,27.778,2.778,286.111,1038.889,72.222,N
202,-0.210,-0.735,0.050,30.556,30.556,302.778,1033.333,5.556,N
203,0.260,-1.145,0.160,25.000,8.333,291.667,522.222,511.111,V
204,-0.215,-0.605,-0.020,27.778,36.111,338.889,1675.000,1152.778,N
205,-0.170,-0.770,0.005,25.000,0.000,291.667,1058.333,616.667,N
206,-0.140,-0.650,0.105,27.778,2.778,294.444,1066.667,8.333,N
207,-0.200,-0.625,-0.065,25.000,33.333,297.222,1013.889,52.778,N
208,-0.250,-0.615,-0.035,22.222,30.556,313.889,1013.889,0.000,N
209,-0.120,-0.680,0.120,27.778,2.778,308.333,1091.667,77.778,N
210,-0.120,-0.720,0.090,25.000,0.000,225.000,1077.778,13.889,N
211,-0.135,-0.845,0.130,27.778,0.000,308.333,1019.444,58.333,N
212,-0.065,-0.805,0.120,197.222,2.778,300.000,1041.667,22.222,N
213,-0.235,-0.945,0.055,27.778,2.778,258.333,1008.333,33.333,N
214,-0.200,-0.860,0.005,197.222,2.778,311.111,1033.333,25.000,N
215,-0.215,-0.775,0.075,27.778,0.000,313.889,1111.111,77.778,N
216,-0.145,-0.810,0.150,197.222,0.000,250.000,1077.778,33.333,N
217,-0.045,-0.740,0.215,27.778,2.778,286.111,1050.000,27.778,N
218,-0.050,-0.745,0.130,197.222,0.000,300.000,1066.667,16.667,N
219,-0.045,-0.745,0.190,183.333,2.778,302.778,1016.667,50.000,N
220,0.545,-0.765,0.060,22.222,11.111,347.222,969.444,47.222,V
221,-0.115,-0.635,0.040,27.778,2.778,286.111,1297.222,327.778,N
222,-0.125,-0.740,0.120,27.778,0.000,294.444,1088.889,208.333,N
223,-0.160,-0.755,0.055,27.778,2.778,308.333,1105.556,16.667,N
224,-0.175,-0.845,0.115,197.222,0.000,263.889,1055.556,50.000,N
225,0.385,-0.990,0.295,22.222,8.333,258.333,508.333,547.222,V
226,-0.120,-0.760,0.040,27.778,2.778,327.778,1100.000,591.667,J
227,-0.070,-0.605,0.110,22.222,0.000,294.444,1561.111,461.111,N
228,-0.060,-0.650,0.070,25.000,0.000,294.444,1083.333,477.778,N
229,-0.115,-0.740,0.100,27.778,2.778,291.667,1108.333,25.000,N
230,0.490,-0.855,0.265,22.222,11.111,238.889,616.667,491.667,V
231,-0.190,-0.735,-0.005,27.778,2.778,244.444,1511.111,894.444,N
232,-0.115,-0.710,0.125,30.556,2.778,319.444,1141.667,369.444,N
233,-0.085,-0.665,0.155,30.556,2.778,283.333,1102.778,38.889,N
234,-0.100,-0.715,0.135,194.444,2.778,305.556,1077.778,25.000,N
235,0.540,-0.840,0.125,25.000,8.333,244.444,836.111,241.667,V
236,-0.105,-0.700,0.060,25.000,0.000,263.889,1302.778,466.667,N
237,-0.050,-0.650,0.165,30.556,2.778,305.556,1144.444,158.333,N
238,-0.055,-0.650,0.170,27.778,0.000,258.333,1161.111,16.667,N
239,-0.090,-0.680,0.130,25.000,0.000,294.444,1077.778,83.333,N
240,0.530,-0.800,0.210,22.222,11.111,266.667,613.889,463.889,V
241,-0.100,-0.625,0.055,27.778,33.333,325.000,1525.000,911.111,N
242,-0.090,-0.590,0.055,30.556,2.778,311.111,1130.556,394.444,N
243,-0.040,-0.580,0.160,27.778,2.778,291.667,1138.889,8.333,N
244,-0.110,-0.705,0.060,25.000,0.000,311.111,1094.444,44.444,N
245,-0.090,-0.700,0.160,27.778,0.000,294.444,1066.667,27.778,N
246,-0.095,-0.640,0.125,27.778,2.778,266.667,1091.667,25.000,N
247,-0.125,-0.750,0.145,25.000,2.778,313.889,1038.889,52.778,N
248,-0.065,-0.595,0.175,30.556,36.111,311.111,1138.889,100.000,N
249,-0.150,-0.700,0.055,25.000,2.778,277.778,1113.889,25.000,N
250,-0.105,-0.600,0.165,30.556,33.333,291.667,1088.889,25.000,N
251,-0.125,-0.680,0.130,30.556,2.778,300.000,1055.556,33.333,N
252,-0.070,-0.620,0.220,30.556,2.778,319.444,1044.444,11.111,N
253,-0.060,-0.615,0.230,30.556,0.000,308.333,1125.000,80.556,N
254,0.570,-0.770,0.140,27.778,11.111,283.333,1058.333,66.667,V
255,-0.010,-0.550,0.250,27.778,0.000,330.556,1169.444,111.111,N
256,0.025,-0.565,0.335,27.778,2.778,286.111,1080.556,88.889,N
257,0.085,-0.500,0.310,25.000,0.000,277.778,1072.222,8.333,N
258,0.015,-0.575,0.320,36.111,2.778,313.889,1083.333,11.111,N
259,0.050,-0.505,0.330,30.556,2.778,305.556,1141.667,58.333,N
260,0.010,-0.620,0.185,25.000,0.000,297.222,1122.222,19.444,N
261,-0.050,-0.680,0.255,27.778,2.778,283.333,1116.667,5.556,N
262,0.640,-0.670,0.135,22.222,11.111,347.222,944.444,172.222,V
263,-0.005,-0.670,0.200,191.667,2.778,327.778,1091.667,147.222,N
264,-0.065,-0.635,0.185,33.333,0.000,291.667,1280.556,188.889,N
265,-0.070,-0.755,0.160,158.333,0.000,325.000,1119.444,161.111,N
266,-0.090,-0.820,0.170,25.000,0.000,311.111,1100.000,19.444,N
267,0.375,-0.815,0.245,25.000,11.111,272.222,536.111,563.889,V
268,-0.065,-0.525,0.045,183.333,30.556,302.778,1558.333,1022.222,N
269,-0.045,-0.475,0.195,27.778,36.111,330.556,1133.333,425.000,N
270,-0.040,-0.530,0.175,25.000,33.333,308.333,1138.889,5.556,N
271,-0.080,-0.615,0.155,25.000,0.000,291.667,1083.333,55.556,N
272,0.565,-0.955,0.460,25.000,11.111,280.556,611.111,472.222,V
273,-0.030,-0.430,0.185,27.778,33.333,305.556,1511.111,900.000,N
274,-0.005,-0.535,0.265,27.778,2.778,327.778,1027.778,483.333,N
275,0.025,-0.630,0.250,27.778,0.000,327.778,1150.000,122.222,N
276,-0.060,-0.680,0.120,27.778,0.000,308.333,1080.556,69.444,N
277,0.380,-1.190,0.355,22.222,8.333,247.222,513.889,566.667,V
278,0.035,-0.435,0.215,22.222,30.556,344.444,1533.333,1019.444,N
279,0.045,-0.545,0.250,25.000,0.000,280.556,1047.222,486.111,N
280,0.100,-0.480,0.330,27.778,33.333,308.333,991.667,55.556,N
281,0.015,-0.580,0.145,197.222,2.778,305.556,1105.556,113.889,N
282,-0.015,-0.610,0.265,27.778,0.000,294.444,1058.333,47.222,N
283,0.010,-0.435,0.195,194.444,30.556,291.667,1019.444,38.889,N
284,-0.135,-0.805,0.095,197.222,0.000,302.778,1019.444,0.000,N
285,-0.210,-0.970,0.005,194.444,0.000,258.333,994.444,25.000,N
286,-0.190,-0.820,0.135,150.000,2.778,316.667,991.667,2.778,N
287,-0.175,-0.780,-0.005,27.778,2.778,291.667,1091.667,100.000,N
288,-0.170,-0.915,0.030,27.778,2.778,275.000,1033.333,58.333,N
289,-0.160,-0.765,0.175,30.556,2.778,283.333,1041.667,8.333,N
290,-0.035,-0.640,0.355,30.556,2.778,308.333,1041.667,0.000,N
291,0.060,-0.650,0.160,177.778,2.778,291.667,1016.667,25.000,N
292,-0.125,-0.690,0.155,30.556,5.556,325.000,1055.556,38.889,N
293,-0.105,-0.730,0.130,27.778,0.000,313.889,1122.222,66.667,N
294,-0.165,-0.730,0.065,186.111,30.556,297.222,1030.556,91.667,N
295,-0.145,-0.760,0.120,194.444,2.778,297.222,1055.556,25.000,N
296,-0.130,-0.825,0.155,30.556,2.778,302.778,1025.000,30.556,N
297,-0.090,-0.725,0.200,27.778,2.778,291.667,1008.333,16.667,N
298,-0.090,-0.800,0.185,27.778,0.000,311.111,1080.556,72.222,N
299,-0.100,-0.720,0.175,30.556,5.556,311.111,1105.556,25.000,N
300,-0.120,-0.690,0.200,27.778,2.778,302.778,1055.556,50.000,N
301,-0.105,-0.735,0.175,27.778,0.000,311.111,1052.778,2.778,N
302,-0.090,-0.770,0.150,27.778,0.000,269.444,1077.778,25.000,N
303,-0.105,-0.730,0.195,152.778,0.000,297.222,1036.111,41.667,N
304,-0.050,-0.575,0.230,30.556,36.111,325.000,1144.444,108.333,N
305,-0.030,-0.565,0.235,194.444,30.556,263.889,1125.000,19.444,N
306,-0.025,-0.645,0.135,27.778,2.778,300.000,1050.000,75.000,N
307,-0.070,-0.615,0.195,27.778,2.778,308.333,1055.556,5.556,N
308,-0.030,-0.545,0.235,172.222,33.333,313.889,1027.778,27.778,N
309,-0.080,-0.655,0.140,27.778,2.778,322.222,1075.000,47.222,N
310,0.560,-0.880,0.155,25.000,13.889,291.667,1075.000,0.000,V
311,0.155,-2.215,1.150,138.889,8.333,261.111,430.556,644.444,V
312,-0.115,-0.595,0.045,25.000,30.556,330.556,1583.333,1152.778,N
313,-0.080,-0.615,0.140,27.778,2.778,277.778,1033.333,550.000,N
314,-0.080,-0.690,0.115,194.444,2.778,308.333,972.222,61.111,N
315,-0.085,-0.650,0.180,30.556,2.778,322.222,1052.778,80.556,N
316,-0.105,-0.705,0.080,27.778,2.778,308.333,1083.333,30.556,N
317,-0.175,-0.790,0.085,27.778,2.778,291.667,997.222,86.111,N
318,-0.200,-0.640,0.080,30.556,33.333,305.556,1019.444,22.222,N
319,-0.180,-0.715,0.050,30.556,2.778,302.778,1000.000,19.444,N
320,-0.160,-0.670,0.150,27.778,0.000,313.889,1002.778,2.778,N
321,-0.115,-0.655,0.165,27.778,2.778,319.444,1061.111,58.333,N
322,-0.095,-0.645,0.195,33.333,2.778,302.778,1086.111,25.000,N
323,-0.070,-0.615,0.250,25.000,0.000,294.444,1038.889,47.222,N
324,-0.065,-0.615,0.150,22.222,0.000,294.444,1016.667,22.222,N
325,-0.135,-0.650,0.165,27.778,2.778,280.556,1030.556,13.889,N
326,-0.120,-0.625,0.195,27.778,2.778,300.000,1047.222,16.667,N
327,-0.170,-0.710,0.095,25.000,0.000,311.111,1069.444,22.222,N
328,-0.130,-0.625,0.195,33.333,2.778,302.778,1094.444,25.000,N
329,-0.110,-0.640,0.075,25.000,0.000,275.000,1044.444,50.000,N
330,-0.155,-0.750,0.150,25.000,0.000,308.333,997.222,47.222,N
331,-0.115,-0.680,0.130,19.444,0.000,291.667,1033.333,36.111,N
332,-0.210,-0.800,0.055,27.778,0.000,305.556,1069.444,36.111,N
333,-0.195,-0.705,0.100,25.000,0.000,311.111,1094.444,25.000,N
334,0.480,-1.060,-0.010,22.222,13.889,261.111,916.667,177.778,V
335,-0.235,-0.685,0.015,25.000,33.333,283.333,1227.778,311.111,N
336,-0.205,-0.730,0.020,27.778,2.778,297.222,1036.111,191.667,N
337,-0.225,-0.755,0.090,30.556,2.778,302.778,997.222,38.889,N
338,-0.130,-0.655,0.150,197.222,2.778,305.556,1111.111,113.889,N
339,0.385,-0.690,-0.055,22.222,16.667,266.667,1038.889,72.222,F
340,-0.225,-0.720,0.070,27.778,2.778,302.778,1097.222,58.333,N
341,-0.150,-0.695,0.110,25.000,0.000,277.778,1041.667,55.556,N
342,0.445,-1.105,0.265,25.000,8.333,266.667,641.667,400.000,V
343,-0.140,-0.485,0.050,27.778,33.333,319.444,1430.556,788.889,N
344,-0.175,-0.670,0.080,25.000,0.000,311.111,1122.222,308.333,N
345,-0.180,-0.760,0.065,25.000,0.000,294.444,1066.667,55.556,N
346,-0.145,-0.620,0.160,27.778,33.333,297.222,1069.444,2.778,N
347,-0.070,-0.635,0.205,25.000,0.000,277.778,1047.222,22.222,N
348,-0.120,-0.690,0.110,19.444,0.000,277.778,983.333,63.889,N
349,-0.135,-0.615,0.130,30.556,33.333,316.667,1094.444,111.111,N
350,-0.155,-0.675,0.035,27.778,30.556,305.556,1113.889,19.444,N
351,-0.210,-0.760,0.050,25.000,2.778,305.556,1047.222,66.667,N
352,-0.170,-0.655,0.135,25.000,2.778,283.333,1108.333,61.111,N
353,-0.195,-0.745,0.045,25.000,0.000,286.111,1041.667,66.667,N
354,-0.165,-0.600,0.125,30.556,38.889,316.667,1041.667,0.000,N
355,-0.135,-0.610,0.030,27.778,2.778,311.111,1122.222,80.556,N
356,-0.160,-0.650,0.115,30.556,5.556,302.778,1122.222,0.000,N
357,-0.150,-0.665,0.055,27.778,0.000,302.778,1063.889,58.333,N
358,-0.140,-0.770,0.145,197.222,2.778,288.889,1083.333,19.444,N
359,0.475,-0.905,0.025,25.000,13.889,305.556,894.444,188.889,V
360,-0.165,-0.680,0.070,25.000,0.000,311.111,1227.778,333.333,N
361,-0.080,-0.535,0.200,30.556,36.111,327.778,1138.889,88.889,N
362,-0.110,-0.650,0.165,27.778,2.778,286.111,1088.889,50.000,N
363,-0.120,-0.660,0.145,30.556,5.556,280.556,1058.333,30.556,N
364,-0.120,-0.645,0.110,27.778,0.000,311.111,1061.111,2.778,N
365,-0.050,-0.610,0.260,30.556,2.778,302.778,1013.889,47.222,N
366,0.050,-0.480,0.260,30.556,2.778,322.222,1111.111,97.222,N
367,-0.030,-0.575,0.265,33.333,2.778,305.556,1133.333,22.222,N
368,0.000,-0.580,0.240,27.778,2.778,288.889,1066.667,66.667,N
369,-0.105,-0.695,0.170,27.778,2.778,308.333,1077.778,11.111,N
370,-0.120,-0.560,0.190,27.778,2.778,258.333,1083.333,5.556,N
371,-0.130,-0.750,0.060,27.778,2.778,327.778,1050.000,33.333,N
372,0.425,-0.995,0.280,22.222,11.111,280.556,641.667,408.333,V
373,-0.145,-0.530,-0.030,197.222,30.556,286.111,1613.889,972.222,N
374,-0.180,-0.730,0.060,191.667,2.778,297.222,1088.889,525.000,N
375,-0.140,-0.705,0.095,27.778,2.778,288.889,1102.778,13.889,N
376,-0.105,-0.730,0.050,27.778,0.000,319.444,1019.444,83.333,N
377,0.495,-0.920,0.320,22.222,11.111,288.889,630.556,388.889,V
378,-0.100,-0.505,-0.035,30.556,36.111,327.778,1619.444,988.889,N
379,-0.170,-0.690,0.055,27.778,2.778,277.778,1094.444,525.000,N
380,-0.170,-0.695,0.055,25.000,0.000,297.222,1061.111,33.333,N
381,-0.150,-0.745,0.045,194.444,2.778,255.556,1058.333,2.778,N
382,0.425,-0.970,0.090,25.000,8.333,277.778,761.111,297.222,V
383,-0.210,-0.635,-0.015,147.222,36.111,322.222,1411.111,650.000,N
384,-0.155,-0.695,0.060,27.778,0.000,286.111,1147.222,263.889,N
385,-0.130,-0.580,0.080,27.778,30.556,291.667,1044.444,102.778,N
386,-0.015,-0.270,0.170,27.778,33.333,319.444,1050.000,5.556,N
387,-0.005,0.280,0.175,152.778,91.667,355.556,1025.000,25.000,N
388,-0.130,0.255,-0.010,150.000,80.556,386.111,1075.000,50.000,N
389,-0.330,-0.265,-0.160,152.778,88.889,372.222,1091.667,16.667,N
390,-0.335,-0.780,-0.130,25.000,33.333,294.444,1072.222,19.444,N
391,-0.370,-0.745,-0.070,25.000,27.778,297.222,1027.778,44.444,N
392,-0.165,-0.385,0.035,27.778,33.333,322.222,1058.333,30.556,N
393,-0.190,-0.585,-0.135,27.778,30.556,288.889,1033.333,25.000,N
394,-0.265,-0.580,-0.075,30.556,36.111,322.222,1088.889,55.556,N
395,-0.240,-0.530,-0.070,27.778,33.333,305.556,1111.111,22.222,N
396,0.320,-1.290,-0.105,25.000,11.111,330.556,938.889,172.222,V
397,-0.210,-0.580,-0.010,27.778,30.556,311.111,1155.556,216.667,N
398,-0.275,-0.850,-0.070,25.000,2.778,244.444,1047.222,108.333,N
399,-0.240,-0.665,0.020,188.889,33.333,313.889,1030.556,16.667,N
400,-0.170,-0.630,-0.030,27.778,33.333,291.667,1105.556,75.000,N
401,-0.115,-0.545,0.125,188.889,30.556,263.889,1077.778,27.778,N
402,-0.150,-0.440,-0.090,191.667,0.000,272.222,802.778,275.000,|
403,-0.095,-0.605,0.085,30.556,5.556,288.889,258.333,544.444,N
404,-0.145,-0.610,0.125,30.556,5.556,302.778,1036.111,777.778,N
405,-0.185,-0.640,-0.010,30.556,33.333,319.444,1050.000,13.889,N
406,-0.210,-0.655,0.060,30.556,33.333,305.556,1111.111,61.111,N
407,-0.155,-0.625,0.030,30.556,30.556,294.444,1130.556,19.444,N
408,-0.180,-0.660,0.085,30.556,5.556,308.333,1066.667,63.889,N
409,-0.110,-0.540,0.105,27.778,33.333,275.000,1100.000,33.333,N
410,-0.120,-0.535,0.165,30.556,33.333,280.556,1061.111,38.889,N
411,0.470,-0.835,0.340,25.000,11.111,286.111,572.222,488.889,V
412,-0.075,-0.450,0.015,27.778,30.556,322.222,1647.222,1075.000,N
413,-0.065,-0.465,0.110,30.556,30.556,291.667,1150.000,497.222,N
414,-0.090,-0.525,0.105,27.778,36.111,291.667,1133.333,16.667,N
415,-0.135,-0.605,0.025,27.778,30.556,305.556,1083.333,50.000,N
416,-0.170,-0.515,0.050,30.556,36.111,341.667,1097.222,13.889,N
417,-0.160,-0.565,0.065,30.556,30.556,313.889,1177.778,80.556,N
418,-0.105,-0.445,0.125,30.556,36.111,311.111,1169.444,8.333,N
419,-0.140,-0.515,0.060,27.778,30.556,300.000,1127.778,41.667,N
420,-0.160,-0.640,0.070,27.778,33.333,286.111,1113.889,13.889,N
421,0.455,-1.135,0.205,25.000,8.333,236.111,663.889,450.000,V
422,-0.150,-0.535,0.025,30.556,36.111,300.000,1605.556,941.667,N
423,-0.160,-0.615,-0.025,30.556,36.111,302.778,1180.556,425.000,N
424,-0.175,-0.640,0.075,27.778,33.333,305.556,1113.889,66.667,N
425,-0.160,-0.620,0.065,30.556,36.111,300.000,1119.444,5.556,N
426,-0.145,-0.350,0.040,22.222,30.556,250.000,1083.333,36.111,N
427,-0.090,-0.505,0.125,33.333,33.333,344.444,1091.667,8.333,N
428,-0.085,-0.530,0.070,33.333,38.889,305.556,1191.667,100.000,N
429,-0.040,-0.545,0.110,22.222,25.000,297.222,1102.778,88.889,N
430,-0.105,-0.530,0.190,30.556,30.556,311.111,1100.000,2.778,N
431,-0.050,-0.505,0.090,25.000,30.556,294.444,1116.667,16.667,N
432,0.420,-1.235,0.105,30.556,8.333,283.333,991.667,125.000,F
433,-0.095,-0.440,0.155,36.111,38.889,319.444,1236.111,244.444,N
434,-0.170,-0.615,0.095,30.556,33.333,300.000,1136.111,100.000,N
435,-0.155,-0.630,0.110,30.556,36.111,297.222,1086.111,50.000,N
436,-0.120,-0.495,0.170,30.556,33.333,294.444,1083.333,2.778,N
437,-0.160,-0.690,0.105,25.000,2.778,277.778,1050.000,33.333,N
438,0.425,-1.250,0.240,27.778,8.333,269.444,802.778,247.222,V
439,-0.155,-0.495,0.075,30.556,30.556,302.778,1441.667,638.889,N
440,-0.130,-0.660,-0.005,30.556,33.333,305.556,1075.000,366.667,N
441,-0.155,-0.605,0.130,188.889,30.556,286.111,1088.889,13.889,N
442,-0.155,-0.625,0.000,30.556,30.556,316.667,1047.222,41.667,N
443,-0.115,-0.495,0.105,33.333,33.333,305.556,1047.222,0.000,N
444,-0.105,-0.465,0.100,30.556,38.889,330.556,1111.111,63.889,N
445,-0.155,-0.585,0.065,27.778,38.889,300.000,1144.444,33.333,N
446,-0.190,-0.540,0.045,30.556,33.333,305.556,1063.889,80.556,N
447,-0.175,-0.545,0.065,27.778,33.333,311.111,1058.333,5.556,N
448,-0.180,-0.610,0.090,22.222,25.000,277.778,1094.444,36.111,N
449,-0.145,-0.580,0.115,33.333,30.556,319.444,1097.222,2.778,N
450,-0.145,-0.640,0.085,33.333,33.333,305.556,1147.222,50.000,N
451,-0.100,-0.490,0.130,30.556,33.333,291.667,1127.778,19.444,N
452,-0.075,-0.460,0.165,30.556,33.333,288.889,1102.778,25.000,N
453,0.565,-0.945,0.345,25.000,11.111,269.444,613.889,488.889,V
454,-0.070,-0.365,0.050,33.333,33.333,300.000,1558.333,944.444,N
455,-0.030,-0.400,0.145,30.556,36.111,330.556,1186.111,372.222,N
456,-0.070,-0.470,0.070,30.556,33.333,258.333,1175.000,11.111,N
457,-0.115,-0.545,0.115,30.556,33.333,277.778,1077.778,97.222,N
458,0.595,-1.030,0.335,25.000,8.333,255.556,613.889,463.889,V
459,-0.110,-0.370,-0.020,33.333,33.333,333.333,1513.889,900.000,N
460,-0.095,-0.490,0.120,30.556,33.333,308.333,1158.333,355.556,N
461,-0.110,-0.515,0.030,30.556,36.111,327.778,1130.556,27.778,N
462,-0.185,-0.750,0.085,30.556,2.778,302.778,1038.889,91.667,N
463,-0.160,-0.505,0.040,30.556,36.111,308.333,1097.222,58.333,N
464,-0.275,-0.700,-0.055,33.333,33.333,300.000,1038.889,58.333,N
465,-0.200,-0.640,0.065,30.556,33.333,308.333,1077.778,38.889,N
466,-0.230,-0.650,-0.025,30.556,30.556,308.333,1097.222,19.444,N
467,-0.190,-0.660,0.145,33.333,5.556,283.333,1125.000,27.778,N
468,-0.115,-0.545,0.090,27.778,27.778,294.444,1050.000,75.000,N
469,0.510,-1.205,0.215,27.778,5.556,263.889,813.889,236.111,V
470,-0.100,-0.375,0.105,25.000,27.778,325.000,1225.000,411.111,N
471,-0.155,-0.610,0.120,33.333,36.111,313.889,1113.889,111.111,N
472,-0.070,-0.530,0.120,30.556,36.111,327.778,1102.778,11.111,N
473,-0.095,-0.575,0.210,33.333,5.556,294.444,1080.556,22.222,N
474,0.580,-1.080,0.380,25.000,8.333,244.444,644.444,436.111,V
475,-0.090,-0.575,0.085,27.778,30.556,277.778,1438.889,794.444,N
476,0.335,-1.245,0.225,19.444,2.778,230.556,511.111,927.778,V
477,-0.165,-0.470,0.000,30.556,36.111,355.556,1580.556,1069.444,N
478,0.030,-0.325,0.160,36.111,36.111,325.000,1100.000,480.556,N
479,-0.065,-0.535,0.125,30.556,30.556,305.556,1047.222,52.778,N
480,-0.070,-0.570,0.130,197.222,2.778,283.333,1019.444,27.778,N
481,-0.155,-0.660,0.095,30.556,27.778,272.222,1011.111,8.333,N
482,-0.105,-0.600,0.095,30.556,36.111,308.333,1013.889,2.778,N
483,-0.250,-0.730,-0.075,30.556,33.333,319.444,1102.778,88.889,N
484,-0.165,-0.690,0.100,30.556,5.556,288.889,1083.333,19.444,N
485,-0.115,-0.665,0.055,27.778,5.556,294.444,1077.778,5.556,N
486,-0.145,-0.700,0.115,27.778,2.778,291.667,1050.000,27.778,N
487,-0.205,-0.780,0.000,22.222,2.778,300.000,1008.333,41.667,N
488,-0.240,-0.715,0.035,30.556,36.111,338.889,1127.778,119.444,N
489,-0.250,-0.760,0.010,30.556,5.556,316.667,1125.000,2.778,N
490,-0.190,-0.680,0.100,197.222,5.556,319.444,1080.556,44.444,N
491,-0.180,-0.730,0.050,27.778,2.778,305.556,1094.444,13.889,N
492,-0.150,-0.655,0.125,27.778,33.333,288.889,1050.000,44.444,N
493,-0.175,-0.690,0.105,30.556,33.333,322.222,1019.444,30.556,N
494,-0.160,-0.730,0.110,30.556,2.778,302.778,1152.778,133.333,N
495,0.535,-1.135,0.305,27.778,8.333,288.889,655.556,497.222,V
496,-0.145,-0.550,-0.005,30.556,33.333,341.667,1519.444,863.889,N
497,-0.170,-0.740,0.055,188.889,2.778,300.000,1075.000,444.444,N
498,-0.190,-0.820,-0.040,183.333,0.000,283.333,1011.111,63.889,N
499,-0.195,-0.630,0.050,36.111,38.889,325.000,1083.333,72.222,N
500,-0.120,-0.675,0.085,27.778,30.556,291.667,1127.778,44.444,N
501,-0.105,-0.805,0.090,166.667,0.000,283.333,1005.556,122.222,N
502,-0.130,-0.580,0.060,30.556,33.333,313.889,1158.333,152.778,N
503,-0.160,-0.685,0.075,27.778,30.556,286.111,1072.222,86.111,N
504,-0.140,-0.680,0.030,27.778,2.778,327.778,1027.778,44.444,N
505,-0.120,-0.625,0.110,33.333,36.111,302.778,1158.333,130.556,N
506,-0.130,-0.595,0.095,27.778,33.333,325.000,1141.667,16.667,N
507,-0.145,-0.640,0.040,30.556,2.778,297.222,1077.778,63.889,N
508,-0.100,-0.490,0.265,30.556,30.556,288.889,1111.111,33.333,N
509,0.020,-0.500,0.195,19.444,22.222,283.333,1052.778,58.333,N
510,-0.060,-0.565,0.195,33.333,8.333,302.778,1100.000,47.222,N
511,0.000,-0.475,0.240,30.556,33.333,336.111,1147.222,47.222,N
512,0.465,-0.920,0.080,25.000,11.111,277.778,1052.778,94.444,F
513,-0.050,-0.375,0.215,30.556,33.333,308.333,1113.889,61.111,N
514,-0.085,-0.535,0.115,25.000,30.556,288.889,1086.111,27.778,N
515,-0.085,-0.545,0.200,33.333,36.111,322.222,1030.556,55.556,N
516,-0.075,-0.540,0.150,30.556,30.556,316.667,1136.111,105.556,N
517,-0.165,-0.675,0.070,33.333,33.333,325.000,1108.333,27.778,N
518,-0.185,-0.695,0.130,30.556,5.556,302.778,1072.222,36.111,N
519,-0.175,-0.635,0.010,33.333,30.556,305.556,1047.222,25.000,N
520,0.300,-1.305,0.240,27.778,5.556,272.222,577.778,469.444,V
521,-0.145,-0.400,-0.070,30.556,30.556,336.111,1522.222,944.444,N
522,-0.275,-0.655,-0.010,33.333,36.111,338.889,1150.000,372.222,N
523,-0.245,-0.455,0.005,25.000,30.556,302.778,1100.000,50.000,N
524,-0.205,-0.435,0.035,191.667,33.333,286.111,1069.444,30.556,N
525,0.270,-1.545,0.350,27.778,2.778,272.222,472.222,597.222,V
526,-0.110,0.140,0.130,61.111,80.556,391.667,1555.556,1083.333,N
527,0.035,-0.230,0.060,30.556,33.333,322.222,1116.667,438.889,N
528,-0.125,-0.860,0.005,47.222,0.000,275.000,1075.000,41.667,N
529,-0.165,-0.540,-0.095,27.778,30.556,300.000,1047.222,27.778,N
530,-0.310,-0.650,-0.130,27.778,30.556,302.778,994.444,52.778,N
531,-0.200,-0.555,0.015,27.778,30.556,311.111,1005.556,11.111,N
532,-0.195,-0.655,0.020,30.556,33.333,313.889,1000.000,5.556,N
533,-0.260,-0.765,-0.080,188.889,2.778,330.556,1013.889,13.889,N
534,-0.150,-0.540,0.080,30.556,33.333,319.444,1047.222,33.333,N
535,-0.180,-0.755,-0.025,27.778,2.778,313.889,1005.556,41.667,N
536,-0.185,-0.535,0.000,30.556,30.556,300.000,997.222,8.333,N
537,-0.140,-0.605,0.000,27.778,30.556,308.333,975.000,22.222,N
538,-0.160,-0.600,0.065,30.556,33.333,325.000,963.889,11.111,N
539,-0.025,-0.320,0.105,30.556,30.556,305.556,1022.222,58.333,N
540,-0.105,-0.465,0.120,30.556,30.556,338.889,977.778,44.444,N
541,0.015,0.095,0.100,144.444,83.333,338.889,1013.889,36.111,N
542,-0.115,-0.290,0.030,27.778,33.333,291.667,966.667,47.222,N
543,-0.075,-0.350,0.075,30.556,33.333,308.333,952.778,13.889,N
544,-0.080,-0.380,0.095,27.778,30.556,308.333,963.889,11.111,N
545,-0.110,-0.490,0.100,30.556,36.111,316.667,1027.778,63.889,N
546,-0.055,-0.395,0.145,25.000,30.556,316.667,1030.556,2.778,N
547,-0.025,-0.485,0.210,30.556,30.556,327.778,980.556,50.000,N
548,0.030,-0.675,0.150,191.667,2.778,294.444,975.000,5.556,N
549,-0.120,-0.470,0.120,27.778,30.556,302.778,930.556,44.444,N
550,0.035,-0.420,0.250,27.778,33.333,322.222,972.222,41.667,N
551,-0.025,-0.565,0.095,27.778,30.556,277.778,997.222,25.000,N
552,0.015,-0.340,0.080,25.000,33.333,311.111,997.222,0.000,N
553,-0.210,-0.235,0.130,194.444,77.778,358.333,980.556,16.667,N
554,-0.115,0.070,0.105,191.667,75.000,338.889,986.111,5.556,N
555,-0.130,-0.245,0.105,30.556,33.333,291.667,936.111,50.000,N
556,-0.115,-0.560,0.105,27.778,27.778,322.222,927.778,8.333,N
557,-0.200,-0.840,-0.040,33.333,5.556,327.778,955.556,27.778,N
558,-0.190,-0.495,-0.130,27.778,33.333,302.778,1005.556,50.000,N
559,-0.355,-0.735,-0.055,27.778,30.556,291.667,958.333,47.222,N
560,-0.270,-0.835,-0.010,30.556,2.778,305.556,919.444,38.889,N
561,-0.075,-0.480,0.210,30.556,33.333,291.667,933.333,13.889,N
562,-0.050,-0.550,0.125,27.778,2.778,275.000,897.222,36.111,N
563,-0.055,-0.500,0.195,30.556,33.333,308.333,950.000,52.778,N
564,0.005,-0.270,0.230,27.778,33.333,294.444,966.667,16.667,N
565,-0.095,-0.630,0.135,33.333,5.556,308.333,938.889,27.778,N
566,0.090,-0.230,0.335,27.778,33.333,300.000,916.667,22.222,N
567,0.045,-0.340,0.180,25.000,30.556,280.556,936.111,19.444,N
568,-0.070,-0.430,0.155,25.000,27.778,288.889,905.556,30.556,N
569,-0.040,-0.365,0.180,30.556,33.333,322.222,872.222,33.333,N
570,-0.150,-0.645,0.045,33.333,5.556,322.222,1000.000,127.778,N
571,-0.115,-0.485,0.160,30.556,36.111,311.111,961.111,38.889,N
572,-0.120,-0.455,0.185,27.778,33.333,280.556,927.778,33.333,N
573,-0.105,-0.550,0.255,27.778,0.000,294.444,947.222,19.444,N
574,-0.115,-0.750,0.135,186.111,2.778,266.667,913.889,33.333,N
575,-0.020,-0.520,0.260,19.444,25.000,294.444,886.111,27.778,N
576,0.020,-0.395,0.190,33.333,36.111,336.111,963.889,77.778,N
577,0.000,-0.445,0.260,27.778,36.111,311.111,991.667,27.778,N
578,0.115,-0.205,0.290,25.000,33.333,272.222,947.222,44.444,N
579,0.065,-0.290,0.180,25.000,30.556,302.778,905.556,41.667,N
580,0.030,-0.255,0.235,25.000,30.556,297.222,922.222,16.667,N
581,0.030,-0.180,0.305,25.000,30.556,277.778,919.444,2.778,N
582,-0.010,-0.195,0.205,27.778,33.333,308.333,869.444,50.000,N
583,0.000,-0.305,0.175,30.556,33.333,319.444,1005.556,136.111,N
584,-0.095,-0.455,0.070,27.778,30.556,277.778,941.667,63.889,N
585,-0.035,-0.400,0.155,27.778,33.333,294.444,900.000,41.667,N
586,-0.030,-0.410,0.120,25.000,33.333,283.333,916.667,16.667,N
587,-0.030,-0.475,0.235,27.778,36.111,311.111,816.667,100.000,N
588,0.005,-0.075,0.235,166.667,72.222,341.667,927.778,111.111,N
589,-0.110,-0.545,0.075,194.444,33.333,308.333,908.333,19.444,N
590,-0.170,-0.155,0.095,147.222,88.889,352.778,972.222,63.889,N
591,-0.105,-0.075,0.270,191.667,80.556,316.667,941.667,30.556,N
592,-0.010,0.010,0.210,136.111,75.000,341.667,880.556,61.111,N
593,-0.015,-0.110,0.230,188.889,80.556,344.444,897.222,16.667,N
594,-0.110,-0.260,0.085,30.556,33.333,308.333,911.111,13.889,N
595,-0.135,-0.230,0.070,197.222,91.667,352.778,869.444,41.667,N
596,-0.315,-0.745,-0.120,33.333,33.333,300.000,936.111,66.667,N
597,-0.230,-0.410,0.075,30.556,33.333,288.889,977.778,41.667,N
598,-0.220,-0.665,-0.085,22.222,27.778,275.000,908.333,69.444,N
599,-0.255,-0.600,0.035,27.778,33.333,294.444,916.667,8.333,N
600,-0.130,-0.395,0.115,27.778,33.333,291.667,902.778,13.889,N
601,-0.225,-0.705,-0.010,22.222,0.000,272.222,913.889,11.111,N
602,-0.090,-0.245,0.185,30.556,36.111,291.667,938.889,25.000,N
603,-0.100,-0.320,0.055,33.333,36.111,313.889,958.333,19.444,N
604,-0.150,-0.400,0.105,30.556,33.333,277.778,983.333,25.000,N
605,-0.060,-0.175,0.150,27.778,33.333,291.667,925.000,58.333,N
606,-0.170,-0.470,0.000,27.778,33.333,291.667,911.111,13.889,N
607,-0.105,-0.360,0.120,27.778,33.333,286.111,922.222,11.111,N
608,-0.105,-0.290,0.065,25.000,33.333,302.778,933.333,11.111,N
609,-0.095,-0.280,0.095,27.778,33.333,286.111,963.889,30.556,N
610,-0.180,-0.185,0.060,161.111,86.111,372.222,997.222,33.333,N
611,-0.200,-0.380,0.010,30.556,38.889,300.000,944.444,52.778,N
612,-0.200,-0.150,0.100,194.444,83.333,338.889,955.556,11.111,N
613,-0.160,-0.365,0.010,25.000,30.556,288.889,919.444,36.111,N
614,-0.210,-0.170,0.090,150.000,91.667,386.111,922.222,2.778,N
615,-0.145,-0.390,-0.010,27.778,36.111,319.444,1027.778,105.556,N
616,-0.250,-0.140,0.060,152.778,88.889,369.444,1019.444,8.333,N
617,-0.160,-0.090,0.145,127.778,83.333,341.667,1025.000,5.556,N
618,-0.150,-0.335,0.030,25.000,30.556,300.000,975.000,50.000,N
619,-0.130,-0.350,0.050,27.778,30.556,266.667,983.333,8.333,N
620,-0.160,-0.500,0.020,27.778,36.111,325.000,927.778,55.556,N
621,-0.130,-0.355,0.055,30.556,38.889,311.111,1080.556,152.778,N
622,-0.120,-0.365,0.110,27.778,33.333,305.556,1016.667,63.889,N
623,-0.190,-0.470,-0.025,27.778,33.333,313.889,1011.111,5.556,N
624,-0.220,0.030,0.000,188.889,77.778,325.000,1000.000,11.111,N
625,-0.095,-0.305,0.390,25.000,38.889,300.000,947.222,52.778,N
626,-0.040,-0.705,-0.035,161.111,41.667,291.667,938.889,8.333,N
627,-0.135,-0.415,0.050,27.778,33.333,308.333,1033.333,94.444,N
628,-0.010,-0.290,0.100,25.000,33.333,297.222,1011.111,22.222,N
629,-0.125,-0.500,0.050,25.000,27.778,316.667,966.667,44.444,N
630,-0.090,-0.355,0.040,27.778,30.556,291.667,983.333,16.667,N
631,-0.140,-0.105,0.190,127.778,80.556,338.889,936.111,47.222,N
632,-0.070,-0.025,0.215,172.222,77.778,358.333,911.111,25.000,N
633,-0.050,-0.355,0.095,30.556,36.111,319.444,1044.444,133.333,N
634,-0.150,-0.415,0.105,27.778,36.111,302.778,1005.556,38.889,N
635,-0.095,-0.325,0.090,27.778,30.556,286.111,994.444,11.111,N
636,-0.165,-0.465,0.035,27.778,33.333,302.778,986.111,8.333,N
637,-0.050,-0.325,0.055,25.000,33.333,277.778,969.444,16.667,N
638,-0.155,-0.010,0.130,169.444,80.556,338.889,947.222,22.222,N
639,-0.155,-0.085,0.125,163.889,86.111,388.889,1025.000,77.778,N
640,-0.110,-0.335,0.000,30.556,36.111,305.556,1072.222,47.222,N
641,-0.230,-0.220,0.060,194.444,88.889,341.667,1013.889,58.333,N
642,-0.120,-0.290,-0.025,25.000,30.556,297.222,1038.889,25.000,N
643,-0.145,-0.360,0.010,27.778,33.333,291.667,988.889,50.000,N
644,-0.160,-0.430,-0.060,22.222,30.556,291.667,963.889,25.000,N
645,-0.240,-0.100,0.065,158.333,88.889,380.556,1080.556,116.667,N
646,-0.100,-0.345,0.000,27.778,33.333,302.778,1077.778,2.778,N
647,-0.220,-0.495,-0.040,27.778,33.333,319.444,997.222,80.556,N
648,-0.110,-0.365,0.030,25.000,33.333,291.667,1063.889,66.667,N
649,-0.130,-0.485,0.040,25.000,33.333,288.889,997.222,66.667,N
650,-0.230,-0.685,-0.070,25.000,30.556,302.778,972.222,25.000,N
651,-0.125,-0.580,-0.030,27.778,33.333,322.222,1061.111,88.889,N
652,-0.050,-0.355,0.135,27.778,33.333,297.222,1063.889,2.778,N
653,-0.100,-0.560,0.080,27.778,33.333,300.000,994.444,69.444,N
654,-0.180,-0.655,-0.010,27.778,30.556,288.889,1027.778,33.333,N
655,-0.100,-0.470,0.150,27.778,33.333,294.444,977.778,50.000,N
656,-0.070,-0.480,0.140,27.778,33.333,288.889,955.556,22.222,N
657,-0.065,-0.515,0.175,25.000,36.111,316.667,1041.667,86.111,N
658,-0.055,-0.520,0.125,25.000,0.000,300.000,1044.444,2.778,N
659,0.025,-0.570,0.305,22.222,0.000,261.111,719.444,325.000,A
660,0.165,-1.020,0.300,197.222,0.000,283.333,497.222,222.222,A
661,0.200,-0.615,0.345,194.444,0.000,277.778,505.556,8.333,A
662,0.345,-0.690,0.340,197.222,0.000,266.667,475.000,30.556,A
663,-0.025,-0.430,0.160,25.000,30.556,280.556,788.889,313.889,A
664,0.295,-1.535,0.295,22.222,5.556,205.556,425.000,363.889,V
665,-0.075,-0.675,0.065,25.000,0.000,319.444,950.000,525.000,J
666,-0.240,-0.725,-0.055,27.778,2.778,311.111,1277.778,327.778,N
667,-0.185,-0.695,-0.005,22.222,0.000,275.000,1050.000,227.778,N
668,-0.180,-0.715,-0.005,27.778,2.778,291.667,1002.778,47.222,N
669,-0.160,-0.520,0.085,27.778,30.556,283.333,1008.333,5.556,N
670,-0.210,-0.665,0.040,180.556,30.556,286.111,947.222,61.111,N
671,-0.225,-0.810,-0.020,25.000,0.000,288.889,1025.000,77.778,N
672,-0.145,-0.525,0.120,30.556,36.111,305.556,1055.556,30.556,N
673,-0.025,-0.480,0.190,22.222,30.556,283.333,1025.000,30.556,N
674,-0.040,-0.565,0.215,25.000,0.000,280.556,1011.111,13.889,N
675,-0.025,-0.650,0.150,27.778,2.778,288.889,1011.111,0.000,N
676,-0.075,-0.475,0.155,27.778,2.778,302.778,955.556,55.556,N
677,-0.010,-0.410,0.270,30.556,36.111,297.222,1086.111,130.556,N
678,0.005,-0.565,0.250,27.778,2.778,288.889,1058.333,27.778,N
679,-0.005,-0.730,0.145,188.889,2.778,297.222,1022.222,36.111,N
680,-0.095,-0.705,0.175,197.222,2.778,288.889,997.222,25.000,N
681,-0.035,-0.585,0.240,27.778,2.778,275.000,1011.111,13.889,N
682,-0.065,-0.635,0.150,27.778,2.778,302.778,969.444,41.667,N
683,-0.085,-0.650,0.095,27.778,2.778,308.333,1047.222,77.778,N
684,-0.090,-0.390,0.105,30.556,33.333,294.444,1063.889,16.667,N
685,-0.115,-0.485,0.115,25.000,33.333,294.444,1030.556,33.333,N
686,-0.095,-0.585,0.105,25.000,30.556,280.556,1000.000,30.556,N
687,-0.185,-0.520,0.095,30.556,33.333,288.889,1025.000,25.000,N
688,-0.105,-0.520,0.070,25.000,33.333,300.000,1002.778,22.222,N
689,-0.215,-0.135,0.025,155.556,83.333,361.111,1072.222,69.444,N
690,-0.090,-0.255,0.125,30.556,36.111,311.111,1080.556,8.333,N
691,-0.060,-0.355,0.130,25.000,33.333,291.667,1052.778,27.778,N
692,-0.140,-0.600,0.095,27.778,30.556,288.889,1019.444,33.333,N
693,0.390,-1.310,0.470,25.000,11.111,269.444,750.000,269.444,V
694,-0.135,-0.410,0.070,27.778,33.333,291.667,1361.111,611.111,N
695,-0.170,-0.750,-0.100,194.444,2.778,325.000,1086.111,275.000,N
696,-0.165,-0.730,0.000,27.778,2.778,269.444,1072.222,13.889,N
697,-0.120,-0.315,0.115,27.778,33.333,283.333,1038.889,33.333,N
698,0.600,-1.160,0.360,27.778,13.889,258.333,966.667,72.222,F
699,0.000,-0.410,0.135,22.222,30.556,308.333,1036.111,69.444,N
700,-0.115,-0.710,0.060,27.778,2.778,294.444,1083.333,47.222,N
701,-0.060,-0.410,0.070,27.778,33.333,313.889,1061.111,22.222,N
702,-0.075,-0.375,0.125,25.000,33.333,294.444,1022.222,38.889,N
703,-0.075,-0.510,0.030,25.000,33.333,291.667,1050.000,27.778,N
704,-0.080,-0.265,0.060,25.000,33.333,291.667,1002.778,47.222,N
705,-0.140,-0.110,0.110,163.889,91.667,375.000,1019.444,16.667,N
706,0.520,-1.355,0.480,25.000,11.111,280.556,869.444,150.000,V
707,-0.185,-0.220,-0.015,155.556,83.333,391.667,1319.444,450.000,N
708,-0.020,-0.230,0.115,25.000,33.333,311.111,1066.667,252.778,N
709,-0.025,-0.190,0.115,25.000,30.556,286.111,1058.333,8.333,N
710,-0.030,-0.240,0.100,22.222,30.556,291.667,1025.000,33.333,N
711,0.000,-0.200,0.135,25.000,33.333,308.333,1066.667,41.667,N
712,-0.100,-0.080,0.140,197.222,88.889,358.333,1108.333,41.667,N
713,0.550,-1.265,0.545,22.222,8.333,280.556,636.111,472.222,V
714,-0.065,0.300,0.140,180.556,83.333,391.667,1488.889,852.778,N
715,0.000,0.295,0.180,183.333,83.333,336.111,1038.889,450.000,N
716,0.035,0.330,0.180,175.000,83.333,352.778,991.667,47.222,N
717,-0.060,0.245,0.080,194.444,86.111,391.667,1086.111,94.444,N
718,-0.090,0.155,0.090,194.444,83.333,372.222,1066.667,19.444,N
719,-0.105,0.140,0.020,194.444,72.222,336.111,1050.000,16.667,N
720,-0.175,-0.015,0.035,197.222,86.111,358.333,1019.444,30.556,N
721,-0.150,-0.060,0.015,186.111,94.444,358.333,1002.778,16.667,N
722,-0.075,-0.350,0.020,22.222,30.556,300.000,919.444,83.333,N
723,-0.235,-0.260,0.035,155.556,91.667,369.444,1050.000,130.556,N
724,-0.085,0.235,0.275,152.778,86.111,372.222,1030.556,19.444,N
725,0.065,0.320,0.315,197.222,80.556,338.889,997.222,33.333,N
726,0.035,0.130,0.170,191.667,83.333,341.667,975.000,22.222,N
727,-0.025,-0.270,0.055,22.222,30.556,280.556,944.444,30.556,N
728,-0.280,0.025,0.010,102.778,69.444,338.889,900.000,44.444,N
729,-0.155,0.355,0.135,150.000,94.444,386.111,1013.889,113.889,N
730,-0.125,0.400,0.135,141.667,75.000,338.889,1019.444,5.556,N
731,-0.185,-0.030,-0.030,186.111,86.111,344.444,930.556,88.889,N
732,-0.190,0.175,0.075,141.667,86.111,347.222,941.667,11.111,N
733,-0.250,-0.295,0.005,138.889,77.778,341.667,944.444,2.778,N
734,-0.225,0.180,0.165,138.889,77.778,297.222,916.667,27.778,N
735,-0.110,0.000,0.215,161.111,86.111,375.000,922.222,5.556,N
736,0.030,-0.210,0.200,25.000,33.333,311.111,1011.111,88.889,N
737,-0.105,0.035,0.190,138.889,83.333,361.111,983.333,27.778,N
738,-0.075,0.020,0.225,136.111,88.889,358.333,961.111,22.222,N
739,0.035,-0.155,0.195,25.000,30.556,302.778,933.333,27.778,N
740,-0.085,0.100,0.275,188.889,83.333,344.444,941.667,8.333,N
741,0.035,0.365,0.260,197.222,86.111,358.333,902.778,38.889,N
742,-0.030,0.680,0.265,158.333,94.444,380.556,1027.778,125.000,N
743,-0.010,0.980,0.250,144.444,83.333,344.444,1000.000,27.778,N
744,-0.015,0.690,0.295,191.667,91.667,366.667,936.111,63.889,N
745,-0.080,0.020,0.100,194.444,83.333,347.222,966.667,30.556,N
746,-0.210,0.050,0.045,194.444,83.333,344.444,966.667,0.000,N
747,-0.125,0.075,0.170,197.222,88.889,358.333,922.222,44.444,N
748,-0.070,-0.040,0.185,161.111,91.667,402.778,1022.222,100.000,N
749,-0.035,0.365,0.285,141.667,83.333,372.222,1052.778,30.556,N
750,0.015,0.450,0.255,186.111,88.889,358.333,991.667,61.111,N
751,-0.015,0.350,0.275,186.111,88.889,352.778,986.111,5.556,N
752,0.035,0.015,0.290,141.667,91.667,369.444,983.333,2.778,N
753,0.015,0.020,0.290,194.444,83.333,358.333,938.889,44.444,N
754,0.030,0.035,0.235,152.778,77.778,372.222,1011.111,72.222,N
755,-0.040,0.040,0.215,194.444,80.556,355.556,1055.556,44.444,N
756,-0.020,0.100,0.295,161.111,80.556,355.556,966.667,88.889,N
757,-0.020,0.040,0.290,197.222,77.778,327.778,991.667,25.000,N
758,0.025,-0.010,0.215,197.222,83.333,358.333,961.111,30.556,N
759,0.005,0.165,0.295,172.222,77.778,344.444,938.889,22.222,N
760,0.030,-0.095,0.165,194.444,86.111,366.667,1008.333,69.444,N
761,-0.070,0.165,0.250,155.556,83.333,358.333,1044.444,36.111,N
762,-0.080,0.220,0.225,183.333,83.333,341.667,975.000,69.444,N
763,-0.020,0.245,0.295,138.889,80.556,344.444,955.556,19.444,N
764,0.040,0.260,0.315,197.222,91.667,369.444,944.444,11.111,N
765,0.035,0.030,0.275,180.556,83.333,344.444,930.556,13.889,N
766,0.015,0.285,0.345,161.111,88.889,361.111,983.333,52.778,N
767,0.045,0.225,0.305,155.556,83.333,358.333,1011.111,27.778,N
768,0.020,0.230,0.335,194.444,83.333,341.667,986.111,25.000,N
769,0.095,0.360,0.340,186.111,91.667,355.556,972.222,13.889,N
770,0.015,-0.045,0.190,197.222,83.333,325.000,944.444,27.778,N
771,-0.105,0.135,0.165,188.889,77.778,311.111,958.333,13.889,N
772,-0.120,0.040,0.150,147.222,88.889,375.000,991.667,33.333,N
773,-0.190,-0.025,0.090,191.667,86.111,361.111,997.222,5.556,N
774,-0.150,0.085,0.135,158.333,86.111,344.444,1050.000,52.778,N
775,-0.135,-0.205,0.050,197.222,88.889,344.444,969.444,80.556,N
776,-0.195,0.030,0.140,136.111,75.000,344.444,952.778,16.667,N
777,-0.125,-0.190,0.105,147.222,83.333,305.556,977.778,25.000,N
778,-0.185,-0.200,0.080,152.778,91.667,361.111,988.889,11.111,N
779,-0.150,-0.070,0.050,141.667,80.556,344.444,1019.444,30.556,N
780,-0.220,0.240,0.135,144.444,86.111,361.111,1022.222,2.778,N
781,-0.125,-0.005,0.205,141.667,83.333,361.111,997.222,25.000,N
782,-0.110,0.075,0.190,144.444,88.889,338.889,961.111,36.111,N
783,-0.070,-0.090,0.155,191.667,80.556,305.556,955.556,5.556,N
784,0.625,-1.760,0.655,25.000,8.333,280.556,780.556,175.000,V
785,-0.135,0.075,0.100,147.222,86.111,375.000,1275.000,494.444,N
786,-0.145,0.000,0.120,152.778,91.667,352.778,1055.556,219.444,N
787,-0.195,-0.060,0.040,197.222,80.556,358.333,1025.000,30.556,N
788,-0.135,-0.075,0.185,191.667,83.333,355.556,983.333,41.667,N
789,-0.040,0.120,0.165,191.667,83.333,311.111,997.222,13.889,N
790,-0.065,-0.050,-0.010,194.444,86.111,375.000,986.111,11.111,N
791,-0.130,0.545,0.145,150.000,91.667,369.444,1091.667,105.556,N
792,-0.005,0.240,0.200,194.444,83.333,341.667,1022.222,69.444,N
793,-0.125,0.380,0.055,147.222,83.333,358.333,1019.444,2.778,N
794,-0.195,0.540,0.065,188.889,80.556,358.333,977.778,41.667,N
795,-0.185,0.610,0.100,186.111,86.111,327.778,977.778,0.000,N
796,-0.130,0.370,0.025,152.778,91.667,405.556,1033.333,55.556,N
797,-0.300,0.045,-0.045,150.000,88.889,372.222,1083.333,50.000,N
798,0.510,-1.875,0.595,25.000,5.556,261.111,816.667,266.667,V
799,-0.225,0.155,-0.040,194.444,83.333,344.444,1255.556,438.889,N
800,-0.200,-0.070,-0.030,186.111,75.000,341.667,991.667,263.889,N
801,-0.210,0.335,0.050,130.556,86.111,358.333,977.778,13.889,N
802,-0.140,0.380,0.115,150.000,91.667,391.667,1052.778,75.000,N
803,-0.130,0.420,0.170,197.222,86.111,363.889,1080.556,27.778,N
804,-0.085,0.580,0.205,183.333,94.444,375.000,1002.778,77.778,N
805,-0.130,0.330,0.140,186.111,75.000,325.000,1052.778,50.000,N
806,-0.110,0.435,0.140,186.111,88.889,355.556,980.556,72.222,N
807,-0.140,0.170,0.140,150.000,91.667,355.556,966.667,13.889,N
808,0.585,-1.715,0.770,27.778,5.556,286.111,661.111,305.556,V
809,-0.080,0.535,0.165,133.333,88.889,402.778,1452.778,791.667,N
810,-0.040,0.530,0.165,188.889,91.667,372.222,1002.778,450.000,N
811,-0.040,0.495,0.195,194.444,88.889,361.111,1025.000,22.222,N
812,-0.040,0.480,0.175,188.889,80.556,344.444,977.778,47.222,N
813,-0.075,0.135,0.100,150.000,91.667,358.333,944.444,33.333,N
814,-0.100,0.565,0.170,158.333,91.667,383.333,1055.556,111.111,N
815,-0.065,0.400,0.195,194.444,86.111,372.222,1052.778,2.778,N
816,-0.120,0.075,0.185,191.667,83.333,358.333,983.333,69.444,N
817,0.035,-0.350,0.110,191.667,30.556,286.111,1019.444,36.111,N
818,-0.105,-0.495,0.005,25.000,27.778,275.000,963.889,55.556,N
819,-0.235,-0.200,0.095,144.444,86.111,377.778,916.667,47.222,N
820,-0.240,-0.055,0.015,152.778,94.444,369.444,1005.556,88.889,N
821,-0.210,0.095,0.095,136.111,91.667,355.556,1033.333,27.778,N
822,-0.200,-0.295,0.015,130.556,86.111,341.667,961.111,72.222,N
823,-0.210,-0.185,0.110,197.222,88.889,358.333,1002.778,41.667,N
824,-0.055,-0.285,0.065,27.778,30.556,288.889,980.556,22.222,N
825,-0.205,-0.200,0.070,183.333,88.889,372.222,902.778,77.778,N
826,-0.175,0.060,0.135,197.222,94.444,388.889,1033.333,130.556,N
827,-0.100,-0.070,0.160,197.222,91.667,358.333,1050.000,16.667,N
828,-0.180,-0.125,0.120,169.444,77.778,341.667,969.444,80.556,N
829,-0.135,0.020,0.150,197.222,88.889,344.444,994.444,25.000,N
830,-0.090,0.065,0.145,186.111,83.333,350.000,972.222,22.222,N
831,-0.105,0.080,0.205,144.444,88.889,344.444,941.667,30.556,N
832,-0.075,0.575,0.195,147.222,88.889,375.000,1016.667,75.000,N
833,-0.070,0.580,0.220,155.556,94.444,386.111,1058.333,41.667,N
834,-0.080,0.325,0.175,186.111,80.556,363.889,1016.667,41.667,N
835,-0.070,-0.140,0.085,186.111,88.889,372.222,997.222,19.444,N
836,-0.095,-0.360,0.055,25.000,30.556,302.778,980.556,16.667,N
837,-0.180,-0.065,-0.005,166.667,86.111,372.222,930.556,50.000,N
838,-0.115,0.075,0.320,163.889,86.111,358.333,1050.000,119.444,N
839,0.010,0.280,0.170,194.444,83.333,361.111,1027.778,22.222,N
840,-0.125,-0.200,0.080,166.667,83.333,355.556,1005.556,22.222,N
841,-0.170,-0.415,-0.010,22.222,30.556,294.444,988.889,16.667,N
842,-0.165,-0.625,-0.065,25.000,30.556,288.889,986.111,2.778,N
843,-0.255,-0.210,0.015,175.000,75.000,341.667,947.222,38.889,N
844,-0.175,-0.120,0.095,152.778,88.889,388.889,994.444,47.222,N
845,-0.130,0.100,0.125,158.333,83.333,363.889,1025.000,30.556,N
846,-0.155,0.080,0.120,133.333,83.333,341.667,991.667,33.333,N
847,-0.145,0.060,0.110,186.111,86.111,338.889,950.000,41.667,N
848,-0.140,0.010,0.175,191.667,80.556,361.111,955.556,5.556,N
849,-0.105,-0.190,0.075,177.778,77.778,352.778,919.444,36.111,N
850,-0.160,0.070,0.175,161.111,88.889,363.889,983.333,63.889,N
851,-0.120,0.125,0.195,138.889,80.556,344.444,1027.778,44.444,N
852,-0.075,0.045,0.165,197.222,88.889,344.444,991.667,36.111,N
853,-0.125,-0.045,0.145,194.444,83.333,355.556,947.222,44.444,N
854,-0.110,0.020,0.200,136.111,88.889,352.778,941.667,5.556,N
855,-0.120,-0.120,0.145,197.222,83.333,305.556,947.222,5.556,N
856,-0.160,-0.155,0.095,141.667,83.333,347.222,936.111,11.111,N
857,-0.085,0.200,0.200,144.444,86.111,375.000,1005.556,69.444,N
858,-0.115,0.130,0.130,155.556,86.111,347.222,994.444,11.111,N
859,-0.210,0.020,0.110,191.667,86.111,347.222,966.667,27.778,N
860,-0.200,-0.180,0.075,194.444,86.111,341.667,938.889,27.778,N
861,-0.235,-0.080,0.095,194.444,86.111,358.333,916.667,22.222,N
862,-0.165,0.200,0.180,150.000,91.667,383.333,972.222,55.556,N
863,-0.165,0.140,0.155,197.222,88.889,355.556,983.333,11.111,N
864,-0.135,0.105,0.115,150.000,77.778,341.667,1000.000,16.667,N
865,-0.175,-0.165,0.045,152.778,80.556,355.556,936.111,63.889,N
866,-0.245,0.330,0.170,130.556,86.111,344.444,955.556,19.444,N
867,-0.145,0.250,0.170,186.111,91.667,355.556,941.667,13.889,N
868,-0.205,0.215,0.125,152.778,94.444,383.333,919.444,22.222,N
869,-0.200,0.325,0.115,150.000,94.444,355.556,1027.778,108.333,N
870,-0.205,0.075,0.100,197.222,88.889,372.222,977.778,50.000,N
871,-0.230,0.015,0.075,172.222,94.444,372.222,941.667,36.111,N
872,-0.210,-0.070,0.065,188.889,91.667,350.000,983.333,41.667,N
873,-0.210,0.105,0.115,138.889,80.556,341.667,919.444,63.889,N
874,-0.160,0.190,0.145,122.222,83.333,358.333,913.889,5.556,N
875,-0.165,-0.005,0.090,197.222,86.111,372.222,1055.556,141.667,N
876,-0.190,-0.055,0.050,197.222,88.889,358.333,1019.444,36.111,N
877,-0.230,-0.130,-0.035,197.222,86.111,344.444,983.333,36.111,N
878,-0.250,0.195,0.070,197.222,86.111,358.333,980.556,2.778,N
879,-0.190,0.175,0.145,183.333,88.889,355.556,969.444,11.111,N
880,-0.160,0.165,0.175,161.111,88.889,361.111,930.556,38.889,N
881,-0.075,0.145,0.150,155.556,80.556,358.333,1058.333,127.778,N
882,-0.100,0.030,0.135,191.667,86.111,361.111,1036.111,22.222,N
883,-0.130,-0.065,0.110,188.889,80.556,341.667,980.556,55.556,N
884,-0.080,-0.310,0.040,25.000,33.333,291.667,952.778,27.778,N
885,-0.225,-0.010,0.090,130.556,83.333,341.667,950.000,2.778,N
886,-0.125,0.225,0.255,163.889,63.889,308.333,919.444,30.556,N
887,-0.090,0.215,0.235,161.111,91.667,394.444,963.889,44.444,N
888,-0.140,0.090,0.145,158.333,86.111,358.333,1030.556,66.667,N
889,-0.155,0.035,0.160,186.111,77.778,327.778,977.778,52.778,N
890,-0.125,0.000,0.150,191.667,80.556,355.556,952.778,25.000,N
891,0.025,-0.265,0.105,25.000,30.556,294.444,966.667,13.889,N
892,-0.155,0.130,0.180,188.889,80.556,308.333,950.000,16.667,N
893,-0.105,0.210,0.225,155.556,83.333,375.000,933.333,16.667,N
894,-0.105,0.135,0.175,138.889,91.667,372.222,1044.444,111.111,N
895,-0.135,0.055,0.160,186.111,83.333,344.444,983.333,61.111,N
896,-0.100,0.085,0.205,194.444,80.556,341.667,958.333,25.000,N
897,-0.085,0.100,0.170,186.111,88.889,358.333,952.778,5.556,N
898,-0.075,-0.360,0.025,22.222,33.333,291.667,941.667,11.111,N
899,-0.200,-0.015,0.105,197.222,88.889,377.778,922.222,19.444,N
900,-0.195,-0.035,0.160,172.222,83.333,358.333,1058.333,136.111,N
901,-0.175,-0.120,0.095,188.889,77.778,341.667,997.222,61.111,N
902,-0.210,0.105,0.135,194.444,83.333,358.333,955.556,41.667,N
903,-0.105,0.120,0.185,191.667,83.333,347.222,963.889,8.333,N
904,-0.135,-0.110,0.095,188.889,77.778,327.778,963.889,0.000,N
905,-0.170,0.095,0.115,194.444,80.556,355.556,922.222,41.667,N
906,-0.195,-0.015,0.120,158.333,91.667,391.667,1025.000,102.778,N
907,-0.180,-0.240,0.145,158.333,80.556,344.444,1022.222,2.778,N
908,-0.190,-0.130,0.070,188.889,80.556,344.444,913.889,108.333,N
909,-0.215,0.355,0.130,180.556,86.111,358.333,955.556,41.667,N
910,-0.170,0.210,0.160,138.889,83.333,358.333,927.778,27.778,N
911,-0.155,0.205,0.180,175.000,83.333,341.667,886.111,41.667,N
912,-0.170,0.020,0.175,155.556,83.333,363.889,963.889,77.778,N
913,-0.185,0.070,0.175,155.556,80.556,341.667,1000.000,36.111,N
914,-0.105,0.170,0.180,191.667,75.000,325.000,966.667,33.333,N
915,-0.170,-0.230,0.110,155.556,88.889,350.000,913.889,52.778,N
916,-0.175,0.215,0.205,152.778,86.111,355.556,930.556,16.667,N
917,-0.045,0.345,0.280,177.778,77.778,305.556,955.556,25.000,N
918,-0.040,0.340,0.275,150.000,86.111,358.333,941.667,13.889,N
919,-0.070,0.175,0.225,169.444,91.667,369.444,1036.111,94.444,N
920,-0.105,0.145,0.150,194.444,80.556,341.667,1005.556,30.556,N
921,-0.100,0.090,0.175,197.222,80.556,344.444,936.111,69.444,N
922,-0.115,-0.025,0.120,183.333,83.333,341.667,950.000,13.889,N
923,-0.155,-0.105,0.060,197.222,83.333,341.667,950.000,0.000,N
924,-0.125,0.175,0.160,152.778,88.889,355.556,952.778,2.778,N
925,-0.145,0.060,0.140,155.556,80.556,361.111,988.889,36.111,N
926,-0.160,0.085,0.115,152.778,86.111,358.333,1025.000,36.111,N
927,-0.140,0.000,0.100,191.667,86.111,358.333,944.444,80.556,N
928,-0.150,0.000,0.095,197.222,88.889,341.667,955.556,11.111,N
929,-0.180,-0.115,0.045,186.111,86.111,358.333,950.000,5.556,N
930,-0.235,-0.120,0.060,150.000,86.111,375.000,900.000,50.000,N
931,-0.160,0.250,0.135,194.444,77.778,358.333,1008.333,108.333,N
932,-0.185,0.140,0.035,152.778,94.444,372.222,1041.667,33.333,N
933,-0.155,0.015,0.095,158.333,80.556,341.667,972.222,69.444,N
934,-0.045,0.270,0.275,188.889,75.000,344.444,963.889,8.333,N
935,-0.005,0.275,0.210,138.889,91.667,358.333,947.222,16.667,N
936,-0.095,0.030,0.105,166.667,91.667,375.000,947.222,0.000,N
937,-0.165,-0.140,0.050,197.222,91.667,358.333,1030.556,83.333,N
938,-0.105,-0.365,-0.035,25.000,30.556,325.000,994.444,36.111,N
939,-0.200,-0.130,0.035,180.556,88.889,377.778,988.889,5.556,N
940,-0.170,-0.120,0.060,194.444,83.333,336.111,947.222,41.667,N
941,-0.125,0.050,0.155,194.444,83.333,341.667,947.222,0.000,N
942,-0.110,-0.130,-0.030,158.333,80.556,355.556,894.444,52.778,N
943,-0.205,-0.430,-0.105,25.000,33.333,322.222,991.667,97.222,N
944,-0.320,-0.285,-0.040,197.222,88.889,355.556,1000.000,8.333,N
945,-0.200,-0.280,0.030,144.444,83.333,341.667,977.778,22.222,N
946,-0.150,0.110,0.195,155.556,80.556,341.667,961.111,16.667,N
947,-0.090,0.125,0.180,191.667,72.222,327.778,905.556,55.556,N
948,0.370,1.265,-0.010,58.333,116.667,380.556,516.667,388.889,V
949,-0.145,-0.150,0.105,152.778,94.444,402.778,1344.444,827.778,N
950,0.125,0.015,0.125,183.333,83.333,341.667,797.222,547.222,A
951,-0.190,-0.205,-0.045,194.444,83.333,358.333,1105.556,308.333,N
952,-0.155,-0.575,0.030,27.778,33.333,288.889,936.111,169.444,N
953,0.385,-1.330,0.490,22.222,11.111,266.667,536.111,400.000,V
954,-0.080,0.065,0.180,122.222,80.556,363.889,1275.000,738.889,N
955,0.010,-0.420,0.145,27.778,36.111,305.556,869.444,405.556,N
956,-0.070,-0.430,0.085,36.111,36.111,327.778,997.222,127.778,N
957,-0.165,-0.540,-0.005,30.556,33.333,280.556,941.667,55.556,N
958,-0.195,-0.555,0.055,25.000,30.556,297.222,905.556,36.111,N
959,-0.110,-0.470,0.150,27.778,33.333,275.000,938.889,33.333,N
960,-0.070,-0.485,0.090,25.000,27.778,275.000,877.778,61.111,N
961,-0.065,-0.435,0.180,25.000,30.556,261.111,883.333,5.556,N
962,-0.050,-0.345,0.080,27.778,36.111,322.222,919.444,36.111,N
963,-0.160,-0.495,0.050,27.778,33.333,294.444,997.222,77.778,N
964,-0.120,-0.385,0.120,27.778,33.333,288.889,955.556,41.667,N
965,-0.165,-0.615,0.020,27.778,30.556,294.444,908.333,47.222,N
966,-0.200,-0.505,0.060,25.000,30.556,283.333,930.556,22.222,N
967,-0.185,-0.540,0.080,25.000,30.556,291.667,902.778,27.778,N
968,-0.120,-0.455,0.140,30.556,30.556,286.111,886.111,16.667,N
969,-0.070,-0.420,0.155,27.778,30.556,294.444,977.778,91.667,N
970,-0.065,-0.410,0.120,27.778,30.556,305.556,975.000,2.778,N
971,-0.040,-0.290,0.200,19.444,27.778,300.000,922.222,52.778,N
972,-0.045,-0.435,0.135,27.778,30.556,302.778,958.333,36.111,N
973,-0.040,-0.350,0.195,25.000,30.556,280.556,927.778,30.556,N
974,-0.085,-0.470,0.115,19.444,27.778,283.333,891.667,36.111,N
975,-0.055,-0.325,0.185,30.556,33.333,319.444,969.444,77.778,N
976,0.035,-0.225,0.285,30.556,36.111,302.778,1030.556,61.111,N
977,-0.005,-0.425,0.200,25.000,30.556,275.000,991.667,38.889,N
978,-0.025,-0.385,0.180,27.778,33.333,305.556,938.889,52.778,N
979,-0.040,-0.340,0.205,22.222,27.778,283.333,969.444,30.556,N
980,-0.025,-0.330,0.190,22.222,30.556,241.667,927.778,41.667,N
981,-0.125,-0.450,0.085,27.778,30.556,294.444,944.444,16.667,N
982,-0.150,-0.490,0.115,25.000,33.333,294.444,1000.000,55.556,N
983,-0.095,-0.485,0.115,25.000,30.556,288.889,986.111,13.889,N
984,-0.115,-0.520,0.035,25.000,33.333,291.667,933.333,52.778,N
985,-0.175,-0.625,0.025,27.778,33.333,275.000,952.778,19.444,N
986,-0.135,-0.445,0.095,25.000,27.778,263.889,938.889,13.889,N
987,-0.140,-0.525,0.060,25.000,30.556,305.556,894.444,44.444,N
988,-0.110,-0.460,0.095,30.556,36.111,319.444,1002.778,108.333,N
989,-0.080,-0.415,0.145,27.778,33.333,286.111,1030.556,27.778,N
990,-0.085,-0.515,0.120,27.778,30.556,283.333,933.333,97.222,N
991,-0.155,-0.560,0.035,27.778,30.556,291.667,958.333,25.000,N
992,-0.120,-0.405,0.100,27.778,30.556,283.333,958.333,0.000,N
993,-0.055,-0.375,0.070,25.000,33.333,288.889,891.667,66.667,N
994,-0.045,-0.335,0.230,22.222,33.333,288.889,1002.778,111.111,N
995,-0.005,-0.380,0.260,25.000,33.333,311.111,991.667,11.111,N
996,0.005,-0.395,0.240,19.444,27.778,294.444,952.778,38.889,N
997,0.035,-0.375,0.245,22.222,30.556,283.333,925.000,27.778,N
998,0.015,-0.425,0.230,22.222,33.333,280.556,936.111,11.111,N
999,-0.020,-0.440,0.145,16.667,27.778,238.889,891.667,44.444,N
1000,-0.060,-0.375,0.195,27.778,30.556,313.889,908.333,16.667,N
1001,-0.080,-0.460,0.150,27.778,33.333,311.111,966.667,58.333,N
1002,-0.065,-0.490,0.130,25.000,33.333,280.556,966.667,0.000,N
1003,-0.065,-0.360,0.180,25.000,30.556,283.333,897.222,69.444,N
1004,-0.065,-0.435,0.195,27.778,33.333,288.889,911.111,13.889,N
1005,-0.090,-0.500,0.165,25.000,30.556,288.889,913.889,2.778,N
1006,-0.080,-0.475,0.190,25.000,36.111,313.889,858.333,55.556,N
1007,-0.100,-0.545,0.100,27.778,33.333,294.444,969.444,111.111,N
1008,-0.125,-0.655,0.110,25.000,0.000,291.667,936.111,33.333,N
1009,-0.110,-0.470,0.100,19.444,27.778,283.333,925.000,11.111,N
1010,-0.135,-0.550,0.100,25.000,30.556,275.000,908.333,16.667,N
1011,-0.180,-0.580,0.045,25.000,33.333,300.000,908.333,0.000,N
1012,-0.200,-0.610,0.060,16.667,27.778,272.222,911.111,2.778,N
1013,-0.150,-0.505,0.120,25.000,33.333,288.889,930.556,19.444,N
1014,-0.120,-0.630,0.075,25.000,33.333,291.667,980.556,50.000,N
1015,-0.120,-0.495,0.130,25.000,33.333,305.556,986.111,5.556,N
1016,-0.040,-0.295,0.240,25.000,36.111,300.000,941.667,44.444,N
1017,-0.035,-0.125,0.220,186.111,83.333,327.778,933.333,8.333,N
1018,-0.005,-0.300,0.145,25.000,30.556,275.000,938.889,5.556,N
1019,-0.145,-0.475,0.085,22.222,33.333,294.444,908.333,30.556,N
1020,-0.155,-0.575,0.040,25.000,33.333,325.000,972.222,63.889,N
1021,-0.195,-0.635,0.055,25.000,36.111,313.889,961.111,11.111,N
1022,-0.130,-0.435,0.110,25.000,33.333,286.111,980.556,19.444,N
1023,-0.100,-0.550,0.090,22.222,30.556,277.778,922.222,58.333,N
1024,-0.170,-0.545,0.090,27.778,30.556,297.222,897.222,25.000,N
1025,-0.215,-0.535,0.070,27.778,30.556,311.111,916.667,19.444,N
1026,-0.190,-0.540,0.065,27.778,33.333,302.778,961.111,44.444,N
1027,-0.160,-0.670,0.065,27.778,0.000,297.222,969.444,8.333,N
1028,-0.130,-0.390,0.105,22.222,27.778,272.222,961.111,8.333,N
1029,-0.165,-0.445,0.100,27.778,30.556,288.889,936.111,25.000,N
1030,-0.175,-0.600,0.005,25.000,30.556,288.889,911.111,25.000,N
1031,-0.190,-0.415,0.030,22.222,27.778,263.889,925.000,13.889,N
1032,-0.280,-0.320,0.105,152.778,94.444,358.333,963.889,38.889,N
1033,-0.265,-0.360,-0.010,197.222,86.111,355.556,966.667,2.778,N
1034,-0.250,-0.350,0.050,197.222,88.889,344.444,966.667,0.000,N
1035,-0.265,-0.355,0.000,197.222,91.667,355.556,950.000,16.667,N
1036,-0.195,-0.485,0.000,25.000,30.556,283.333,913.889,36.111,N
1037,-0.215,-0.415,0.075,25.000,33.333,286.111,919.444,5.556,N
1038,-0.105,-0.385,0.115,27.778,38.889,297.222,933.333,13.889,N
1039,-0.080,-0.480,0.130,27.778,30.556,288.889,977.778,44.444,N
1040,-0.115,-0.295,-0.025,27.778,27.778,313.889,972.222,5.556,N
1041,-0.165,-0.520,-0.040,25.000,33.333,294.444,905.556,66.667,N
1042,-0.295,-0.225,0.090,147.222,86.111,341.667,972.222,66.667,N
1043,-0.075,-0.105,0.300,197.222,86.111,327.778,916.667,55.556,N
1044,0.055,-0.130,0.300,27.778,33.333,313.889,875.000,41.667,N
1045,-0.015,-0.245,0.180,27.778,33.333,322.222,1025.000,150.000,N
1046,-0.080,-0.435,0.130,25.000,30.556,305.556,977.778,47.222,N
1047,-0.130,-0.480,0.090,25.000,27.778,272.222,969.444,8.333,N
1048,-0.165,-0.595,0.005,25.000,27.778,280.556,944.444,25.000,N
1049,-0.125,-0.405,-0.045,25.000,27.778,286.111,938.889,5.556,N
1050,-0.095,-0.390,0.135,22.222,27.778,250.000,902.778,36.111,N
1051,0.015,-0.185,0.210,30.556,36.111,330.556,955.556,52.778,N
1052,-0.025,-0.355,0.150,27.778,33.333,308.333,1036.111,80.556,N
1053,-0.035,-0.355,0.200,25.000,27.778,280.556,961.111,75.000,N
1054,-0.015,-0.195,0.215,27.778,36.111,305.556,930.556,30.556,N
1055,-0.065,-0.345,0.155,25.000,33.333,291.667,947.222,16.667,N
1056,-0.085,-0.410,0.185,25.000,30.556,280.556,922.222,25.000,N
1057,-0.095,-0.405,0.140,30.556,27.778,316.667,900.000,22.222,N
1058,-0.100,-0.420,0.145,30.556,33.333,297.222,1030.556,130.556,N
1059,-0.030,-0.400,0.115,25.000,30.556,291.667,958.333,72.222,N
1060,-0.150,-0.450,0.005,27.778,30.556,316.667,908.333,50.000,N
1061,-0.225,-0.550,-0.035,25.000,30.556,286.111,916.667,8.333,N
1062,-0.180,-0.500,0.000,25.000,33.333,275.000,944.444,27.778,N
1063,-0.190,-0.615,0.010,25.000,33.333,291.667,875.000,69.444,N
1064,-0.165,-0.425,0.030,30.556,36.111,333.333,980.556,105.556,N
1065,-0.190,-0.560,-0.025,22.222,36.111,294.444,1019.444,38.889,N
1066,-0.260,-0.810,-0.065,25.000,0.000,275.000,936.111,83.333,N
1067,-0.255,-0.495,0.010,27.778,33.333,288.889,938.889,2.778,N
1068,-0.190,-0.425,0.055,25.000,30.556,297.222,938.889,0.000,N
1069,-0.075,-0.465,0.115,22.222,25.000,261.111,936.111,2.778,N
1070,-0.065,-0.345,0.110,25.000,36.111,316.667,966.667,30.556,N
1071,-0.080,-0.460,0.100,25.000,36.111,308.333,1050.000,83.333,N
1072,-0.125,-0.475,0.160,27.778,30.556,263.889,983.333,66.667,N
1073,-0.040,-0.285,0.210,27.778,33.333,308.333,922.222,61.111,N
1074,-0.095,-0.435,0.145,25.000,30.556,283.333,938.889,16.667,N
1075,-0.110,-0.545,0.165,22.222,30.556,252.778,933.333,5.556,N
1076,-0.110,-0.520,0.125,25.000,30.556,300.000,900.000,33.333,N
1077,-0.060,-0.630,0.090,30.556,0.000,305.556,975.000,75.000,N
1078,-0.025,-0.370,0.210,27.778,33.333,305.556,986.111,11.111,N
1079,-0.030,-0.385,0.210,27.778,30.556,288.889,900.000,86.111,N
1080,0.010,-0.385,0.240,25.000,27.778,277.778,925.000,25.000,N
1081,-0.005,-0.340,0.200,25.000,30.556,288.889,902.778,22.222,N
1082,-0.065,-0.375,0.140,22.222,30.556,311.111,877.778,25.000,N
1083,-0.060,-0.415,0.150,27.778,30.556,302.778,961.111,83.333,N
1084,-0.025,-0.390,0.260,30.556,33.333,300.000,988.889,27.778,N
1085,-0.030,-0.275,0.245,25.000,30.556,263.889,950.000,38.889,N
1086,-0.045,-0.425,0.205,27.778,30.556,288.889,891.667,58.333,N
1087,-0.105,-0.470,0.125,194.444,30.556,286.111,900.000,8.333,N
1088,-0.120,-0.495,0.125,27.778,30.556,250.000,919.444,19.444,N
1089,-0.130,-0.550,0.035,30.556,33.333,291.667,897.222,22.222,N
1090,-0.155,-0.665,0.055,27.778,2.778,322.222,933.333,36.111,N
1091,-0.065,-0.365,0.125,30.556,33.333,305.556,972.222,38.889,N
1092,-0.040,-0.345,0.185,25.000,27.778,294.444,902.778,69.444,N
1093,-0.055,-0.435,0.140,25.000,30.556,277.778,913.889,11.111,N
1094,0.045,-0.355,0.235,25.000,27.778,275.000,905.556,8.333,N
1095,0.115,-0.080,0.255,27.778,33.333,288.889,905.556,0.000,N
1096,0.035,-0.215,0.235,25.000,30.556,305.556,958.333,52.778,N
1097,0.090,-0.215,0.270,27.778,33.333,322.222,988.889,30.556,N
1098,0.075,-0.220,0.230,25.000,25.000,275.000,977.778,11.111,N
1099,-0.040,-0.405,0.155,25.000,33.333,286.111,922.222,55.556,N
1100,-0.040,-0.300,0.200,25.000,27.778,283.333,922.222,0.000,N
1101,-0.070,-0.385,0.150,19.444,25.000,250.000,913.889,8.333,N
1102,-0.070,-0.405,0.150,27.778,33.333,294.444,925.000,11.111,N
1103,-0.040,-0.415,0.140,27.778,33.333,300.000,958.333,33.333,N
1104,-0.125,-0.585,0.090,30.556,0.000,261.111,969.444,11.111,N
1105,-0.145,-0.155,0.225,141.667,80.556,341.667,905.556,63.889,N
1106,0.025,-0.085,0.245,188.889,80.556,327.778,894.444,11.111,N
1107,-0.065,-0.325,0.035,25.000,30.556,277.778,900.000,5.556,N
1108,-0.115,-0.380,0.085,30.556,30.556,297.222,897.222,2.778,N
1109,-0.145,-0.390,0.085,27.778,30.556,294.444,972.222,75.000,N
1110,-0.190,-0.555,0.035,25.000,30.556,311.111,947.222,25.000,N
1111,-0.170,-0.495,0.105,22.222,27.778,283.333,944.444,2.778,N
1112,-0.130,-0.400,0.070,25.000,27.778,291.667,922.222,22.222,N
1113,-0.060,-0.375,0.150,27.778,30.556,272.222,905.556,16.667,N
1114,-0.020,-0.260,0.215,19.444,25.000,263.889,888.889,16.667,N
1115,-0.020,-0.285,0.230,25.000,30.556,294.444,952.778,63.889,N
1116,-0.055,-0.340,0.145,25.000,33.333,294.444,952.778,0.000,N
1117,-0.115,-0.420,0.115,30.556,30.556,300.000,941.667,11.111,N
1118,-0.120,-0.395,0.120,25.000,33.333,305.556,913.889,27.778,N
1119,-0.050,-0.450,0.165,27.778,30.556,269.444,886.111,27.778,N
1120,-0.075,-0.480,0.120,25.000,27.778,275.000,891.667,5.556,N
1121,-0.025,-0.350,0.190,30.556,30.556,313.889,877.778,13.889,N
1122,-0.030,-0.200,0.190,27.778,36.111,305.556,977.778,100.000,N
1123,-0.095,-0.350,0.080,25.000,30.556,291.667,963.889,13.889,N
1124,-0.055,-0.310,0.155,27.778,33.333,311.111,947.222,16.667,N
1125,-0.050,-0.265,0.135,25.000,33.333,291.667,950.000,2.778,N
1126,-0.135,-0.405,-0.010,25.000,30.556,291.667,916.667,33.333,N
1127,-0.180,-0.530,0.075,19.444,27.778,286.111,886.111,30.556,N
1128,-0.060,-0.210,0.150,30.556,38.889,341.667,1000.000,113.889,N
1129,-0.160,-0.415,-0.010,27.778,33.333,294.444,1008.333,8.333,N
1130,-0.105,-0.425,0.135,27.778,30.556,275.000,938.889,69.444,N
1131,-0.070,-0.260,0.135,25.000,30.556,288.889,961.111,22.222,N
1132,-0.065,-0.260,0.135,25.000,27.778,272.222,908.333,52.778,N
1133,-0.120,-0.275,0.065,25.000,33.333,275.000,897.222,11.111,N
1134,-0.065,-0.265,0.065,30.556,33.333,325.000,902.778,5.556,N
1135,-0.090,-0.320,0.030,30.556,36.111,325.000,1013.889,111.111,N
1136,-0.100,-0.335,0.115,25.000,33.333,283.333,941.667,72.222,N
1137,-0.140,-0.145,0.115,152.778,86.111,358.333,913.889,27.778,N
1138,-0.040,-0.330,0.070,25.000,30.556,291.667,941.667,27.778,N
1139,-0.055,-0.155,0.145,25.000,30.556,288.889,905.556,36.111,N
1140,-0.080,-0.220,0.080,30.556,38.889,319.444,869.444,36.111,N
1141,-0.040,-0.260,0.145,30.556,30.556,300.000,980.556,111.111,N
1142,-0.065,0.035,0.175,158.333,83.333,341.667,991.667,11.111,N
1143,-0.075,0.040,0.135,177.778,86.111,327.778,916.667,75.000,N
1144,-0.075,0.050,0.270,152.778,91.667,352.778,927.778,11.111,N
1145,-0.045,-0.045,0.150,194.444,83.333,341.667,922.222,5.556,N
1146,-0.110,-0.150,0.115,194.444,83.333,308.333,883.333,38.889,N
1147,-0.170,-0.075,0.120,155.556,80.556,344.444,930.556,47.222,N
1148,-0.195,-0.190,0.090,197.222,77.778,363.889,958.333,27.778,N
1149,-0.220,-0.060,0.010,188.889,91.667,355.556,969.444,11.111,N
1150,-0.155,-0.055,0.100,197.222,86.111,341.667,891.667,77.778,N
1151,-0.190,-0.065,0.025,141.667,83.333,341.667,944.444,52.778,N
1152,-0.210,-0.225,0.010,197.222,86.111,336.111,894.444,50.000,N
1153,-0.220,-0.085,0.125,150.000,88.889,344.444,863.889,30.556,N
1154,-0.075,0.055,0.185,197.222,88.889,363.889,963.889,100.000,N
1155,-0.090,0.100,0.160,166.667,91.667,361.111,969.444,5.556,N
1156,-0.010,0.100,0.235,186.111,75.000,347.222,936.111,33.333,N
1157,-0.005,0.145,0.205,191.667,86.111,352.778,919.444,16.667,N
1158,-0.050,-0.025,0.120,191.667,80.556,327.778,933.333,13.889,N
1159,-0.055,-0.045,0.155,180.556,75.000,302.778,905.556,27.778,N
1160,-0.090,0.020,0.070,197.222,86.111,377.778,933.333,27.778,N
1161,-0.175,0.005,-0.005,163.889,83.333,372.222,1000.000,66.667,N
1162,-0.200,-0.020,0.085,197.222,86.111,341.667,1002.778,2.778,N
1163,-0.195,-0.080,0.020,194.444,83.333,341.667,927.778,75.000,N
1164,-0.255,-0.125,0.020,188.889,88.889,352.778,944.444,16.667,N
1165,-0.185,-0.170,0.050,188.889,72.222,325.000,930.556,13.889,N
1166,-0.190,-0.215,0.000,158.333,83.333,358.333,905.556,25.000,N
1167,-0.180,-0.110,-0.060,188.889,77.778,361.111,977.778,72.222,N
1168,-0.245,-0.225,-0.020,155.556,77.778,375.000,966.667,11.111,N
1169,-0.160,-0.060,0.105,194.444,83.333,355.556,938.889,27.778,N
1170,-0.125,-0.020,0.120,186.111,80.556,347.222,913.889,25.000,N
1171,-0.095,-0.150,0.065,191.667,83.333,341.667,936.111,22.222,N
1172,-0.060,0.015,0.170,177.778,80.556,341.667,883.333,52.778,N
1173,-0.110,0.030,0.095,194.444,83.333,375.000,950.000,66.667,N
1174,-0.170,-0.150,-0.020,175.000,83.333,358.333,980.556,30.556,N
1175,-0.175,-0.110,0.045,197.222,83.333,322.222,958.333,22.222,N
1176,-0.160,0.040,0.040,197.222,88.889,338.889,916.667,41.667,N
1177,-0.205,-0.005,-0.005,144.444,83.333,355.556,911.111,5.556,N
1178,-0.110,-0.085,0.040,138.889,75.000,308.333,908.333,2.778,N
1179,-0.165,-0.030,0.120,155.556,86.111,352.778,916.667,8.333,N
1180,-0.090,-0.270,0.105,27.778,30.556,288.889,972.222,55.556,N
1181,-0.035,-0.300,0.090,27.778,33.333,308.333,950.000,22.222,N
1182,-0.175,-0.110,0.165,188.889,86.111,350.000,941.667,8.333,N
1183,-0.050,-0.025,0.235,188.889,75.000,341.667,902.778,38.889,N
1184,0.050,-0.100,0.395,30.556,36.111,288.889,927.778,25.000,N
1185,0.325,0.315,0.515,152.778,86.111,350.000,902.778,25.000,N
1186,0.180,0.310,0.025,180.556,80.556,366.667,941.667,38.889,N
1187,-0.045,-0.440,0.000,61.111,30.556,233.333,972.222,30.556,N
1188,-0.145,-0.555,-0.305,127.778,27.778,255.556,947.222,25.000,N
1189,-0.590,-0.925,-0.385,30.556,30.556,283.333,905.556,41.667,N
1190,-0.325,-0.440,-0.115,30.556,30.556,288.889,877.778,27.778,N
1191,-0.325,-0.510,-0.170,27.778,30.556,255.556,900.000,22.222,N
1192,-0.295,-0.495,-0.090,27.778,30.556,294.444,891.667,8.333,N
1193,-0.210,-0.285,-0.045,33.333,33.333,322.222,938.889,47.222,N
1194,-0.195,-0.380,-0.030,30.556,33.333,305.556,944.444,5.556,N
1195,-0.310,-0.380,-0.035,197.222,83.333,333.333,908.333,36.111,N
1196,-0.175,-0.200,0.070,186.111,75.000,322.222,886.111,22.222,N
1197,-0.030,-0.305,0.045,27.778,30.556,294.444,883.333,2.778,N
1198,-0.210,-0.195,0.085,197.222,83.333,361.111,875.000,8.333,N
1199,-0.130,-0.085,0.170,197.222,86.111,358.333,950.000,75.000,N
1200,0.055,-0.285,0.030,30.556,30.556,288.889,963.889,13.889,N
1201,-0.145,-0.070,0.145,191.667,75.000,322.222,927.778,36.111,N
1202,0.140,-0.080,0.260,27.778,33.333,272.222,941.667,13.889,N
1203,-0.060,0.060,0.140,180.556,80.556,325.000,897.222,44.444,N
1204,0.105,-0.410,0.215,25.000,30.556,255.556,927.778,30.556,N
1205,-0.220,-0.665,-0.110,36.111,33.333,297.222,947.222,19.444,N
1206,-0.245,-0.455,0.075,30.556,33.333,288.889,963.889,16.667,N
1207,-0.155,-0.595,-0.115,188.889,30.556,300.000,983.333,19.444,N
1208,-0.280,-0.510,0.030,30.556,33.333,311.111,936.111,47.222,N
1209,-0.005,-0.495,0.160,27.778,30.556,277.778,952.778,16.667,N
1210,-0.135,-0.505,-0.105,197.222,33.333,280.556,933.333,19.444,N
1211,-0.345,-0.240,0.025,163.889,83.333,352.778,938.889,5.556,N
1212,-0.135,-0.365,0.125,25.000,30.556,297.222,1005.556,66.667,N
1213,-0.140,-0.680,-0.050,30.556,33.333,308.333,1008.333,2.778,N
1214,-0.215,-0.480,-0.005,33.333,33.333,300.000,938.889,69.444,N
1215,-0.145,-0.710,0.010,25.000,27.778,275.000,955.556,16.667,N
1216,-0.245,-0.765,-0.105,27.778,27.778,272.222,919.444,36.111,N
1217,-0.315,-0.780,-0.185,30.556,30.556,305.556,866.667,52.778,N
1218,-0.305,-0.570,-0.095,33.333,36.111,322.222,972.222,105.556,N
1219,-0.170,-0.485,0.060,33.333,36.111,291.667,944.444,27.778,N
1220,-0.060,-0.345,0.155,27.778,33.333,261.111,947.222,2.778,N
1221,0.005,-0.185,0.225,30.556,33.333,297.222,894.444,52.778,N
1222,0.025,-0.135,0.205,30.556,30.556,280.556,900.000,5.556,N
1223,0.015,-0.360,0.220,30.556,30.556,258.333,886.111,13.889,N
1224,-0.030,0.005,0.220,163.889,83.333,377.778,866.667,19.444,N
1225,-0.005,0.215,0.235,161.111,88.889,375.000,975.000,108.333,N
1226,-0.065,-0.115,0.125,191.667,77.778,344.444,922.222,52.778,N
1227,-0.085,-0.090,0.115,197.222,83.333,344.444,888.889,33.333,N
1228,-0.030,-0.310,0.135,27.778,30.556,286.111,886.111,2.778,N
1229,-0.090,-0.460,0.120,25.000,27.778,297.222,869.444,16.667,N
1230,-0.025,-0.190,0.080,22.222,25.000,275.000,822.222,47.222,N
1231,-0.190,-0.465,-0.025,33.333,33.333,325.000,883.333,61.111,N
1232,-0.175,-0.330,0.090,33.333,33.333,316.667,930.556,47.222,N
1233,-0.085,-0.330,0.085,33.333,30.556,297.222,877.778,52.778,N
1234,-0.135,-0.410,0.085,30.556,33.333,288.889,847.222,30.556,N
1235,-0.165,-0.380,0.070,30.556,33.333,286.111,833.333,13.889,N
1236,-0.115,-0.245,0.050,33.333,30.556,277.778,844.444,11.111,N
1237,-0.155,-0.105,0.205,130.556,77.778,305.556,786.111,58.333,N
1238,-0.155,-0.160,0.080,158.333,80.556,344.444,827.778,41.667,N
1239,-0.065,-0.295,0.110,33.333,33.333,291.667,950.000,122.222,N
1240,-0.150,-0.085,0.195,197.222,83.333,322.222,875.000,75.000,N
1241,-0.140,-0.240,0.130,197.222,80.556,336.111,830.556,44.444,N
1242,-0.085,-0.280,0.130,33.333,33.333,288.889,855.556,25.000,N
1243,-0.120,-0.105,0.175,197.222,86.111,330.556,841.667,13.889,N
1244,-0.110,-0.225,0.085,169.444,83.333,327.778,836.111,5.556,N
1245,-0.085,-0.380,0.080,30.556,33.333,302.778,866.667,30.556,N
1246,-0.105,-0.210,0.090,33.333,36.111,308.333,947.222,80.556,N
1247,-0.110,-0.410,0.105,30.556,33.333,275.000,927.778,19.444,N
1248,-0.050,-0.230,0.205,30.556,33.333,266.667,844.444,83.333,N
1249,-0.045,-0.260,0.065,27.778,30.556,283.333,863.889,19.444,N
1250,-0.170,0.010,0.185,152.778,72.222,325.000,869.444,5.556,N
1251,-0.005,0.050,0.190,172.222,88.889,352.778,819.444,50.000,N
1252,-0.155,-0.100,0.075,197.222,88.889,358.333,913.889,94.444,N
1253,-0.095,0.145,0.205,163.889,86.111,358.333,941.667,27.778,N
1254,-0.115,0.035,0.010,197.222,86.111,327.778,916.667,25.000,N
1255,-0.215,-0.070,0.025,194.444,80.556,333.333,861.111,55.556,N
1256,-0.135,0.185,0.150,180.556,80.556,319.444,855.556,5.556,N
1257,-0.100,0.055,0.110,188.889,88.889,338.889,872.222,16.667,N
1258,-0.075,0.210,0.160,197.222,88.889,358.333,861.111,11.111,N
1259,-0.050,0.120,0.105,194.444,88.889,355.556,905.556,44.444,N
1260,-0.285,-0.310,-0.110,172.222,91.667,352.778,950.000,44.444,N
1261,-0.345,-0.335,-0.050,188.889,86.111,336.111,916.667,33.333,N
1262,-0.315,-0.260,-0.120,186.111,75.000,311.111,850.000,66.667,N
1263,-0.245,-0.180,0.100,177.778,83.333,338.889,858.333,8.333,N
1264,-0.095,0.005,0.170,186.111,86.111,322.222,872.222,13.889,N
1265,-0.095,-0.360,0.045,30.556,30.556,305.556,863.889,8.333,N
1266,-0.175,-0.480,-0.005,30.556,30.556,286.111,933.333,69.444,N
1267,-0.100,-0.345,0.120,33.333,36.111,300.000,936.111,2.778,N
1268,-0.100,-0.335,0.115,30.556,33.333,283.333,883.333,52.778,N
1269,-0.140,-0.515,0.005,25.000,27.778,280.556,880.556,2.778,N
1270,-0.150,-0.590,0.000,27.778,30.556,277.778,855.556,25.000,N
1271,-0.135,-0.460,0.015,22.222,25.000,263.889,863.889,8.333,N
1272,-0.145,-0.280,0.100,33.333,36.111,300.000,883.333,19.444,N
1273,-0.135,-0.120,0.135,188.889,91.667,350.000,897.222,13.889,N
1274,0.015,-0.160,0.190,30.556,33.333,283.333,961.111,63.889,N
1275,0.045,-0.285,0.205,27.778,30.556,277.778,875.000,86.111,N
1276,0.045,-0.285,0.205,27.778,30.556,275.000,872.222,2.778,N
1277,0.025,-0.265,0.165,25.000,33.333,286.111,872.222,0.000,N
1278,-0.040,-0.270,0.070,25.000,30.556,300.000,847.222,25.000,N
1279,-0.130,-0.435,-0.030,30.556,38.889,305.556,916.667,69.444,N
1280,-0.180,-0.135,0.080,197.222,88.889,358.333,886.111,30.556,N
1281,-0.100,0.030,0.190,197.222,86.111,336.111,916.667,30.556,N
1282,-0.105,-0.140,0.080,194.444,86.111,325.000,861.111,55.556,N
1283,-0.175,-0.205,0.125,180.556,86.111,347.222,833.333,27.778,N
1284,0.005,0.230,0.220,144.444,80.556,338.889,827.778,5.556,N
1285,-0.185,-0.300,0.020,197.222,91.667,352.778,844.444,16.667,N
1286,-0.190,0.095,0.210,197.222,88.889,358.333,894.444,50.000,N
1287,-0.115,0.010,0.015,194.444,83.333,344.444,875.000,19.444,N
1288,-0.425,-0.470,-0.155,194.444,86.111,325.000,936.111,61.111,N
1289,-0.290,0.075,0.185,138.889,91.667,336.111,844.444,91.667,N
1290,-0.130,0.205,0.025,172.222,91.667,338.889,833.333,11.111,N
1291,-0.245,0.105,0.050,180.556,86.111,338.889,850.000,16.667,N
1292,-0.095,0.420,0.160,194.444,91.667,358.333,808.333,41.667,N
1293,-0.170,0.015,0.100,152.778,94.444,352.778,922.222,113.889,N
1294,-0.040,0.370,0.255,197.222,88.889,355.556,877.778,44.444,N
1295,-0.030,0.080,0.215,197.222,88.889,311.111,911.111,33.333,N
1296,-0.075,-0.055,0.230,186.111,88.889,338.889,858.333,52.778,N
1297,0.005,0.150,0.250,186.111,77.778,311.111,819.444,38.889,N
1298,-0.080,-0.150,0.105,177.778,77.778,305.556,852.778,33.333,N
1299,-0.110,-0.055,0.165,197.222,86.111,361.111,819.444,33.333,N
1300,-0.110,0.085,0.130,191.667,91.667,369.444,911.111,91.667,N
1301,-0.175,-0.150,0.085,194.444,86.111,341.667,919.444,8.333,N
1302,-0.180,-0.100,0.085,194.444,86.111,327.778,900.000,19.444,N
1303,-0.095,0.095,0.155,194.444,83.333,338.889,866.667,33.333,N
1304,-0.070,0.230,0.165,186.111,88.889,325.000,858.333,8.333,N
1305,-0.040,0.140,0.190,180.556,80.556,322.222,861.111,2.778,N
1306,-0.165,-0.195,-0.035,197.222,80.556,372.222,863.889,2.778,N
1307,-0.125,0.100,0.175,155.556,77.778,358.333,944.444,80.556,N
1308,-0.040,0.180,0.155,188.889,88.889,350.000,916.667,27.778,N
1309,-0.065,-0.045,0.010,188.889,83.333,361.111,916.667,0.000,N
1310,-0.240,-0.140,-0.040,147.222,83.333,336.111,927.778,11.111,N
1311,-0.220,-0.035,0.025,183.333,83.333,333.333,850.000,77.778,N
1312,-0.160,0.035,0.015,175.000,75.000,308.333,877.778,27.778,N
1313,-0.270,-0.280,-0.035,152.778,77.778,375.000,925.000,47.222,N
1314,-0.165,0.065,0.060,155.556,86.111,369.444,950.000,25.000,N
1315,-0.160,-0.130,-0.125,197.222,86.111,341.667,941.667,8.333,N
1316,-0.360,-0.245,-0.025,144.444,83.333,361.111,913.889,27.778,N
1317,-0.020,0.280,0.170,197.222,88.889,327.778,886.111,27.778,N
1318,-0.180,-0.400,-0.245,191.667,30.556,258.333,877.778,8.333,N
1319,-0.345,-0.025,0.035,138.889,86.111,341.667,841.667,36.111,N
1320,-0.090,0.450,0.115,152.778,88.889,369.444,936.111,94.444,N
1321,-0.150,0.130,-0.025,191.667,86.111,341.667,947.222,11.111,N
1322,-0.165,0.040,0.185,186.111,86.111,336.111,902.778,44.444,N
1323,-0.030,0.185,0.175,158.333,86.111,341.667,888.889,13.889,N
1324,-0.120,-0.080,0.040,194.444,83.333,325.000,886.111,2.778,N
1325,-0.105,0.075,0.195,147.222,86.111,311.111,852.778,33.333,N
1326,-0.030,0.100,0.065,197.222,86.111,341.667,850.000,2.778,N
1327,-0.240,-0.230,0.055,197.222,86.111,372.222,947.222,97.222,N
1328,-0.075,-0.035,0.090,188.889,80.556,341.667,925.000,22.222,N
1329,-0.120,-0.070,0.130,172.222,83.333,341.667,869.444,55.556,N
1330,-0.125,-0.020,0.065,197.222,86.111,336.111,894.444,25.000,N
1331,-0.255,-0.365,-0.115,188.889,80.556,327.778,886.111,8.333,N
1332,-0.280,-0.675,-0.065,25.000,25.000,244.444,830.556,55.556,N
1333,-0.140,-0.060,0.230,150.000,86.111,344.444,858.333,27.778,N
1334,0.120,0.375,0.420,197.222,77.778,352.778,913.889,55.556,N
1335,0.145,0.165,0.190,197.222,86.111,344.444,919.444,5.556,N
1336,-0.145,-0.200,0.095,191.667,80.556,338.889,877.778,41.667,N
1337,-0.100,0.025,0.190,194.444,88.889,341.667,872.222,5.556,N
1338,-0.060,-0.095,0.105,186.111,88.889,336.111,872.222,0.000,N
1339,-0.110,-0.150,0.125,152.778,86.111,338.889,830.556,41.667,N
1340,-0.135,-0.460,0.030,30.556,33.333,294.444,905.556,75.000,N
1341,-0.175,-0.150,0.140,152.778,77.778,344.444,913.889,8.333,N
1342,-0.085,-0.060,0.125,188.889,83.333,327.778,902.778,11.111,N
1343,-0.145,-0.155,0.120,191.667,83.333,327.778,850.000,52.778,N
1344,-0.075,-0.060,0.200,197.222,88.889,341.667,858.333,8.333,N
1345,-0.020,-0.100,0.135,183.333,86.111,341.667,866.667,8.333,N
1346,-0.015,-0.295,0.155,25.000,30.556,302.778,811.111,55.556,N
1347,-0.020,0.015,0.270,158.333,86.111,358.333,897.222,86.111,N
1348,0.015,0.055,0.225,161.111,86.111,338.889,919.444,22.222,N
1349,0.025,-0.240,0.165,25.000,30.556,266.667,922.222,2.778,N
1350,-0.080,-0.415,-0.045,197.222,33.333,272.222,844.444,77.778,N
1351,-0.145,-0.545,0.110,27.778,30.556,275.000,844.444,0.000,N
1352,-0.050,0.050,0.345,186.111,88.889,338.889,861.111,16.667,N
1353,0.105,0.140,0.345,180.556,80.556,341.667,825.000,36.111,N
1354,-0.095,-0.160,0.155,197.222,91.667,358.333,919.444,94.444,N
1355,-0.105,-0.055,0.235,155.556,86.111,344.444,911.111,8.333,N
1356,-0.085,-0.105,0.045,194.444,83.333,308.333,916.667,5.556,N
1357,-0.080,-0.325,0.115,25.000,30.556,277.778,863.889,52.778,N
1358,-0.090,-0.010,0.230,197.222,86.111,341.667,841.667,22.222,N
1359,-0.050,-0.025,0.195,188.889,80.556,327.778,872.222,30.556,N
1360,-0.085,-0.160,0.085,186.111,88.889,352.778,830.556,41.667,N
1361,-0.110,-0.060,0.220,197.222,91.667,361.111,913.889,83.333,N
1362,-0.035,0.085,0.220,197.222,88.889,352.778,880.556,33.333,N
1363,0.050,-0.175,0.200,19.444,30.556,263.889,919.444,38.889,N
1364,0.065,0.090,0.230,186.111,88.889,336.111,852.778,66.667,N
1365,0.060,-0.200,0.170,27.778,30.556,288.889,841.667,11.111,N
1366,-0.080,-0.330,0.100,22.222,30.556,263.889,872.222,30.556,N
1367,-0.050,-0.360,0.085,27.778,30.556,294.444,836.111,36.111,N
1368,-0.185,-0.520,-0.200,41.667,33.333,305.556,919.444,83.333,N
1369,-0.355,-0.670,-0.050,30.556,33.333,316.667,908.333,11.111,N
1370,-0.080,-0.300,0.100,25.000,33.333,286.111,866.667,41.667,N
1371,-0.230,-0.530,0.065,25.000,30.556,266.667,886.111,19.444,N
1372,-0.070,-0.465,0.165,27.778,30.556,272.222,827.778,58.333,N
1373,0.030,-0.225,0.305,25.000,27.778,230.556,855.556,27.778,N
1374,0.020,-0.285,0.110,27.778,33.333,291.667,841.667,13.889,N
1375,-0.140,-0.515,0.190,30.556,33.333,308.333,908.333,66.667,N
1376,0.125,-0.110,0.300,33.333,33.333,294.444,880.556,27.778,N
1377,-0.005,-0.330,0.290,33.333,33.333,286.111,897.222,16.667,N
1378,0.050,-0.270,0.260,27.778,30.556,275.000,861.111,36.111,N
1379,0.075,-0.150,0.190,27.778,33.333,288.889,813.889,47.222,N
1380,-0.150,-0.505,0.015,22.222,22.222,244.444,894.444,80.556,N
1381,-0.190,-0.515,-0.005,27.778,30.556,280.556,863.889,30.556,N
1382,-0.290,-0.690,-0.050,33.333,33.333,311.111,922.222,58.333,N
1383,-0.090,-0.315,0.185,30.556,33.333,291.667,902.778,19.444,N
1384,-0.075,-0.360,0.070,27.778,30.556,266.667,891.667,11.111,N
1385,-0.015,-0.275,0.255,25.000,30.556,275.000,861.111,30.556,N
1386,-0.010,-0.065,0.260,150.000,86.111,338.889,822.222,38.889,N
1387,-0.125,-0.450,0.025,22.222,33.333,275.000,855.556,33.333,N
1388,-0.105,-0.395,0.065,27.778,33.333,272.222,891.667,36.111,N
1389,-0.255,-0.610,-0.140,27.778,33.333,291.667,877.778,13.889,N
1390,-0.210,-0.555,0.090,30.556,33.333,288.889,886.111,8.333,N
1391,0.075,-0.185,0.335,27.778,33.333,286.111,847.222,38.889,N
1392,-0.075,-0.210,0.175,188.889,77.778,319.444,841.667,5.556,N
1393,-0.070,-0.350,0.165,25.000,36.111,288.889,836.111,5.556,N
1394,-0.060,-0.315,0.185,22.222,30.556,280.556,827.778,8.333,N
1395,-0.110,-0.480,-0.015,25.000,33.333,272.222,891.667,63.889,N
1396,-0.160,-0.440,0.075,22.222,33.333,297.222,875.000,16.667,N
1397,-0.065,-0.355,0.105,25.000,33.333,297.222,866.667,8.333,N
1398,-0.150,-0.525,-0.105,25.000,36.111,294.444,852.778,13.889,N
1399,-0.440,-0.935,-0.145,22.222,2.778,280.556,863.889,11.111,N
1400,-0.115,-0.360,0.105,25.000,33.333,272.222,822.222,41.667,N
1401,-0.090,-0.180,0.225,161.111,88.889,355.556,819.444,2.778,N
1402,-0.035,-0.245,0.130,25.000,36.111,300.000,916.667,97.222,N
1403,-0.015,-0.275,0.195,27.778,36.111,283.333,886.111,30.556,N
1404,-0.205,-0.565,-0.050,22.222,33.333,263.889,902.778,16.667,N
1405,-0.180,-0.555,0.125,27.778,33.333,297.222,847.222,55.556,N
1406,0.035,-0.210,0.260,22.222,33.333,275.000,855.556,8.333,N
1407,0.005,-0.300,0.105,22.222,33.333,261.111,847.222,8.333,N
1408,-0.085,-0.370,0.120,25.000,30.556,311.111,836.111,11.111,N
1409,-0.050,-0.150,0.285,152.778,94.444,372.222,911.111,75.000,N
1410,-0.075,-0.425,-0.010,194.444,33.333,275.000,925.000,13.889,N
1411,-0.105,-0.345,0.120,27.778,33.333,272.222,900.000,25.000,N
1412,-0.075,-0.120,0.200,197.222,86.111,341.667,852.778,47.222,N
1413,-0.180,-0.300,0.090,177.778,83.333,327.778,880.556,27.778,N
1414,-0.030,0.265,0.315,175.000,80.556,322.222,830.556,50.000,N
1415,0.115,0.370,0.260,194.444,86.111,358.333,819.444,11.111,N
1416,-0.190,-0.030,0.065,147.222,86.111,358.333,936.111,116.667,N
1417,-0.070,0.045,0.205,186.111,88.889,355.556,886.111,50.000,N
1418,-0.010,0.145,0.205,191.667,88.889,319.444,886.111,0.000,N
1419,-0.005,0.030,0.035,197.222,83.333,341.667,855.556,30.556,N
1420,-0.160,0.170,0.060,144.444,83.333,327.778,883.333,27.778,N
1421,-0.215,-0.230,-0.010,194.444,77.778,305.556,833.333,50.000,N
1422,-0.265,-0.275,0.005,194.444,86.111,358.333,819.444,13.889,N
1423,-0.320,-0.285,-0.075,166.667,86.111,355.556,986.111,166.667,N
1424,-0.190,-0.050,0.085,197.222,83.333,338.889,933.333,52.778,N
1425,-0.170,-0.155,-0.075,183.333,83.333,350.000,900.000,33.333,N
1426,-0.305,-0.185,-0.075,158.333,83.333,338.889,911.111,11.111,N
1427,-0.250,-0.105,0.035,152.778,86.111,338.889,888.889,22.222,N
1428,-0.160,0.065,0.120,191.667,83.333,294.444,875.000,13.889,N
1429,-0.045,0.440,0.150,158.333,88.889,366.667,863.889,11.111,N
1430,-0.075,0.600,0.110,155.556,88.889,352.778,994.444,130.556,N
1431,-0.135,0.535,0.085,194.444,83.333,341.667,938.889,55.556,N
1432,-0.115,0.700,0.150,197.222,88.889,358.333,888.889,50.000,N
1433,-0.025,0.370,0.220,144.444,83.333,341.667,911.111,22.222,N
1434,-0.020,0.205,0.250,194.444,80.556,338.889,919.444,8.333,N
1435,0.065,-0.130,0.235,27.778,30.556,297.222,841.667,77.778,N
1436,0.030,-0.300,0.185,33.333,33.333,311.111,936.111,94.444,N
1437,-0.085,-0.590,0.170,25.000,30.556,302.778,986.111,50.000,N
1438,-0.040,-0.395,0.155,25.000,27.778,272.222,872.222,113.889,N
1439,-0.020,-0.395,0.160,27.778,33.333,291.667,872.222,0.000,N
1440,-0.010,-0.260,0.100,30.556,33.333,302.778,844.444,27.778,N
1441,-0.215,-0.480,-0.075,197.222,33.333,286.111,863.889,19.444,N
1442,-0.170,-0.210,0.045,197.222,80.556,338.889,811.111,52.778,N
1443,-0.210,-0.310,-0.145,155.556,83.333,361.111,880.556,69.444,N
1444,-0.285,-0.655,-0.035,27.778,30.556,294.444,944.444,63.889,N
1445,-0.135,-0.465,0.095,25.000,27.778,241.667,855.556,88.889,N
1446,-0.205,-0.720,-0.115,191.667,30.556,272.222,836.111,19.444,N
1447,-0.230,-0.845,0.175,30.556,2.778,272.222,836.111,0.000,N
1448,-0.060,-0.610,0.250,197.222,5.556,266.667,836.111,0.000,N
1449,-0.245,-0.895,0.005,155.556,0.000,291.667,822.222,13.889,N
1450,-0.135,-0.815,0.345,33.333,0.000,275.000,883.333,61.111,N
1451,-0.005,-0.570,0.325,33.333,5.556,275.000,925.000,41.667,N
1452,-0.150,-0.755,0.000,197.222,0.000,250.000,883.333,41.667,N
1453,-0.160,-0.815,0.295,27.778,0.000,261.111,838.889,44.444,N
1454,0.005,-0.485,0.365,183.333,0.000,263.889,830.556,8.333,N
1455,-0.025,-0.645,0.285,188.889,0.000,275.000,869.444,38.889,N
1456,0.140,-0.565,0.535,30.556,0.000,280.556,844.444,25.000,N
1457,0.225,-0.475,0.525,194.444,0.000,288.889,894.444,50.000,N
1458,0.100,-0.525,0.240,197.222,2.778,286.111,936.111,41.667,N
1459,-0.300,-1.050,-0.120,183.333,0.000,266.667,886.111,50.000,N
1460,-0.260,-0.820,0.170,27.778,0.000,266.667,850.000,36.111,N
1461,-0.065,-0.610,0.160,25.000,0.000,258.333,841.667,8.333,N
1462,-0.240,-0.715,0.115,27.778,0.000,252.778,869.444,27.778,N
1463,-0.040,-0.440,0.255,30.556,36.111,291.667,836.111,33.333,N
1464,0.010,-0.425,0.130,186.111,30.556,283.333,900.000,63.889,N
1465,-0.270,-0.845,0.020,27.778,2.778,291.667,927.778,27.778,N
1466,-0.170,-0.675,0.140,30.556,0.000,283.333,855.556,72.222,N
1467,-0.130,-0.605,-0.055,197.222,30.556,266.667,863.889,8.333,N
1468,-0.315,-0.765,0.010,22.222,27.778,280.556,852.778,11.111,N
1469,-0.135,-0.620,0.150,25.000,30.556,241.667,852.778,0.000,N
1470,-0.165,-0.655,-0.015,186.111,2.778,297.222,863.889,11.111,N
1471,-0.330,-0.900,-0.050,188.889,2.778,294.444,902.778,38.889,N
1472,-0.235,-0.760,0.060,25.000,0.000,288.889,919.444,16.667,N
1473,-0.125,-0.610,0.175,30.556,2.778,275.000,869.444,50.000,N
1474,-0.080,-0.420,0.200,27.778,27.778,266.667,858.333,11.111,N
1475,-0.035,-0.420,0.235,27.778,30.556,288.889,861.111,2.778,N
1476,0.015,-0.275,0.225,19.444,27.778,280.556,838.889,22.222,N
1477,-0.005,-0.335,0.215,30.556,33.333,291.667,922.222,83.333,N
1478,-0.055,-0.425,0.145,27.778,30.556,297.222,930.556,8.333,N
1479,-0.030,-0.520,0.280,27.778,30.556,291.667,952.778,22.222,N
1480,0.075,-0.450,0.305,25.000,30.556,272.222,883.333,69.444,N
1481,0.065,-0.415,0.080,180.556,30.556,266.667,855.556,27.778,N
1482,-0.035,-0.480,0.145,27.778,27.778,288.889,863.889,8.333,N
1483,-0.115,-0.575,-0.060,194.444,30.556,305.556,830.556,33.333,N
1484,-0.175,-0.605,0.065,30.556,33.333,300.000,913.889,83.333,N
1485,-0.070,-0.455,0.195,30.556,30.556,291.667,869.444,44.444,N
1486,-0.075,-0.475,-0.035,27.778,30.556,272.222,916.667,47.222,N
1487,-0.275,-0.725,0.135,27.778,0.000,263.889,858.333,58.333,N
1488,0.030,-0.375,0.195,25.000,30.556,255.556,825.000,33.333,N
1489,-0.265,-0.730,-0.105,188.889,30.556,272.222,847.222,22.222,N
1490,-0.160,-0.505,0.110,30.556,33.333,291.667,822.222,25.000,N
1491,-0.225,-0.650,-0.095,33.333,33.333,294.444,908.333,86.111,N
1492,-0.355,-0.815,0.005,30.556,2.778,291.667,905.556,2.778,N
1493,-0.065,-0.440,0.180,30.556,27.778,261.111,894.444,11.111,N
1494,-0.025,-0.360,0.275,30.556,30.556,269.444,877.778,16.667,N
1495,-0.020,-0.465,0.150,25.000,30.556,258.333,822.222,55.556,N
1496,-0.265,-0.650,0.055,27.778,30.556,272.222,858.333,36.111,N
1497,0.065,-0.325,0.335,33.333,33.333,288.889,816.667,41.667,N
1498,0.045,-0.325,0.145,33.333,33.333,286.111,919.444,102.778,N
1499,-0.110,-0.470,0.255,27.778,30.556,291.667,925.000,5.556,N
1500,0.085,0.210,0.305,152.778,75.000,327.778,877.778,47.222,N
1501,-0.110,-0.145,-0.055,194.444,83.333,341.667,888.889,11.111,N
1502,-0.165,-0.370,0.045,27.778,30.556,258.333,866.667,22.222,N
1503,-0.060,-0.250,0.110,25.000,30.556,244.444,847.222,19.444,N
1504,-0.245,-0.445,-0.170,30.556,30.556,283.333,861.111,13.889,N
1505,-0.180,-0.590,0.150,30.556,33.333,291.667,961.111,100.000,N
1506,0.035,-0.200,0.205,30.556,30.556,291.667,897.222,63.889,N
1507,-0.120,-0.470,-0.060,197.222,33.333,305.556,902.778,5.556,N
1508,-0.260,-0.620,0.055,27.778,30.556,277.778,925.000,22.222,N
1509,-0.050,-0.435,0.160,30.556,30.556,269.444,841.667,83.333,N
1510,-0.170,-0.575,-0.095,180.556,25.000,255.556,863.889,22.222,N
1511,-0.350,-0.830,-0.150,30.556,2.778,308.333,900.000,36.111,N
1512,-0.210,-0.615,0.005,30.556,0.000,297.222,941.667,41.667,N
1513,-0.070,-0.405,0.165,30.556,30.556,266.667,913.889,27.778,N
1514,0.000,-0.250,0.165,30.556,33.333,305.556,894.444,19.444,N
1515,-0.010,-0.205,0.175,27.778,30.556,277.778,911.111,16.667,N
1516,-0.025,-0.200,0.175,27.778,30.556,283.333,880.556,30.556,N
1517,-0.050,-0.305,0.180,27.778,30.556,283.333,847.222,33.333,N
1518,-0.060,-0.390,0.160,30.556,33.333,313.889,952.778,105.556,N
1519,-0.055,-0.505,0.120,27.778,33.333,294.444,955.556,2.778,N
1520,-0.130,-0.575,-0.010,194.444,30.556,288.889,919.444,36.111,N
1521,-0.055,-0.470,0.125,27.778,33.333,291.667,913.889,5.556,N
1522,-0.050,-0.345,0.125,27.778,30.556,272.222,883.333,30.556,N
1523,-0.065,-0.435,-0.070,191.667,33.333,258.333,877.778,5.556,N
1524,-0.120,-0.455,0.145,25.000,30.556,294.444,866.667,11.111,N
1525,0.055,-0.180,0.230,27.778,33.333,319.444,925.000,58.333,N
1526,-0.045,-0.350,-0.110,194.444,30.556,286.111,950.000,25.000,N
1527,-0.350,-0.780,-0.030,27.778,30.556,288.889,877.778,72.222,N
1528,-0.120,-0.380,0.105,27.778,33.333,291.667,897.222,19.444,N
1529,-0.225,-0.580,-0.160,183.333,30.556,263.889,891.667,5.556,N
1530,-0.285,-0.700,0.055,22.222,25.000,269.444,847.222,44.444,N
1531,-0.090,-0.435,0.135,27.778,33.333,286.111,900.000,52.778,N
1532,-0.220,-0.565,-0.160,197.222,33.333,302.778,947.222,47.222,N
1533,-0.375,-0.870,-0.030,27.778,0.000,280.556,941.667,5.556,N
1534,-0.130,-0.410,0.105,27.778,33.333,272.222,844.444,97.222,N
1535,-0.250,-0.565,-0.075,27.778,30.556,269.444,897.222,52.778,N
1536,-0.095,-0.480,0.165,27.778,30.556,272.222,863.889,33.333,N
1537,-0.010,-0.285,0.255,27.778,30.556,291.667,797.222,66.667,N
1538,0.060,-0.150,0.205,27.778,33.333,280.556,913.889,116.667,N
1539,-0.090,-0.310,0.100,30.556,30.556,286.111,911.111,2.778,N
1540,-0.280,-0.455,-0.190,183.333,30.556,252.778,880.556,30.556,N
1541,-0.175,-0.445,0.060,27.778,30.556,277.778,827.778,52.778,N
1542,-0.060,-0.180,0.140,30.556,33.333,288.889,825.000,2.778,N
1543,-0.175,-0.395,0.030,25.000,30.556,286.111,850.000,25.000,N
1544,-0.020,-0.320,0.285,25.000,27.778,297.222,786.111,63.889,N
1545,0.095,-0.095,0.300,33.333,33.333,302.778,880.556,94.444,N
1546,-0.090,-0.405,0.010,33.333,30.556,291.667,905.556,25.000,N
1547,-0.090,-0.470,0.185,30.556,27.778,263.889,894.444,11.111,N
1548,-0.070,-0.415,0.070,30.556,30.556,269.444,830.556,63.889,N
1549,-0.305,-0.775,-0.040,25.000,30.556,275.000,841.667,11.111,N
1550,-0.265,-0.685,-0.165,186.111,27.778,266.667,858.333,16.667,N
1551,-0.500,-1.045,-0.315,27.778,2.778,291.667,825.000,33.333,N
1552,-0.390,-0.845,-0.120,33.333,2.778,300.000,877.778,52.778,N
1553,-0.205,-0.650,0.015,33.333,2.778,288.889,913.889,36.111,N
1554,-0.180,-0.475,0.035,30.556,33.333,272.222,913.889,0.000,N
1555,-0.095,-0.285,0.155,27.778,33.333,272.222,863.889,50.000,N
1556,-0.045,-0.230,0.150,30.556,33.333,275.000,852.778,11.111,N
1557,0.020,-0.210,0.305,25.000,27.778,275.000,891.667,38.889,N
1558,0.060,-0.215,0.200,25.000,30.556,277.778,850.000,41.667,N
1559,-0.035,-0.060,0.105,152.778,86.111,355.556,911.111,61.111,N
1560,-0.115,-0.165,0.025,197.222,77.778,355.556,919.444,8.333,N
1561,-0.125,-0.285,0.040,197.222,27.778,283.333,911.111,8.333,N
1562,-0.080,0.000,0.165,194.444,86.111,333.333,858.333,52.778,N
1563,-0.040,0.005,0.065,194.444,80.556,355.556,836.111,22.222,N
1564,-0.175,-0.365,-0.185,25.000,30.556,258.333,880.556,44.444,N
1565,-0.205,-0.100,0.065,141.667,80.556,344.444,819.444,61.111,N
1566,-0.040,0.240,0.130,177.778,86.111,377.778,883.333,63.889,N
1567,-0.165,-0.195,-0.320,197.222,91.667,355.556,902.778,19.444,N
1568,-0.355,-0.005,0.035,191.667,86.111,350.000,875.000,27.778,N
1569,-0.075,0.270,0.130,194.444,80.556,325.000,850.000,25.000,N
1570,-0.345,-0.365,-0.305,197.222,86.111,341.667,841.667,8.333,N
1571,-0.120,0.315,0.195,147.222,88.889,325.000,850.000,8.333,N
1572,0.005,0.385,-0.065,194.444,80.556,322.222,827.778,22.222,N
1573,-0.535,-0.475,-0.345,194.444,91.667,358.333,888.889,61.111,N
1574,-0.205,0.245,0.150,144.444,86.111,372.222,877.778,11.111,N
1575,0.005,0.220,-0.100,191.667,80.556,352.778,866.667,11.111,N
1576,-0.360,-0.180,0.170,191.667,83.333,330.556,861.111,5.556,N
1577,0.185,0.610,0.345,186.111,91.667,350.000,800.000,61.111,N
1578,-0.160,0.035,-0.100,186.111,91.667,322.222,861.111,61.111,N
1579,-0.060,0.400,0.285,158.333,86.111,341.667,822.222,38.889,N
1580,0.095,0.375,0.000,191.667,83.333,344.444,850.000,27.778,N
1581,-0.290,0.025,0.165,138.889,86.111,352.778,877.778,27.778,N
1582,0.070,0.505,0.110,188.889,80.556,338.889,838.889,38.889,N
1583,-0.255,-0.080,0.075,183.333,86.111,341.667,858.333,19.444,N
1584,0.125,0.585,0.355,177.778,83.333,325.000,794.444,63.889,N
1585,0.110,0.290,0.065,191.667,86.111,330.556,830.556,36.111,N
1586,0.065,0.500,0.400,152.778,94.444,352.778,811.111,19.444,N
1587,0.270,0.665,0.240,197.222,94.444,338.889,841.667,30.556,N
1588,-0.135,0.000,0.285,150.000,88.889,338.889,872.222,30.556,N
1589,0.245,0.575,0.365,155.556,83.333,308.333,836.111,36.111,N
1590,0.090,0.315,0.095,197.222,91.667,322.222,811.111,25.000,N
1591,-0.180,-0.035,-0.060,191.667,80.556,319.444,808.333,2.778,N
1592,-0.230,0.075,-0.075,197.222,88.889,336.111,791.667,16.667,N
1593,-0.295,-0.265,-0.360,177.778,77.778,322.222,791.667,0.000,N
1594,-0.290,0.070,0.065,138.889,88.889,350.000,847.222,55.556,N
1595,-0.010,0.255,0.130,197.222,83.333,341.667,822.222,25.000,N
1596,-0.130,-0.030,-0.185,191.667,80.556,341.667,844.444,22.222,N
1597,-0.170,0.085,0.150,144.444,83.333,358.333,822.222,22.222,N
1598,0.010,0.240,0.050,180.556,83.333,325.000,813.889,8.333,N
1599,-0.285,-0.385,-0.025,180.556,83.333,341.667,805.556,8.333,N
1600,-0.035,0.060,0.215,186.111,72.222,325.000,805.556,0.000,N
1601,0.035,0.145,0.180,191.667,80.556,358.333,836.111,30.556,N
1602,-0.150,-0.270,-0.035,194.444,88.889,361.111,869.444,33.333,N
1603,-0.075,-0.055,0.130,150.000,86.111,338.889,869.444,0.000,N
1604,-0.085,-0.170,0.045,188.889,83.333,325.000,827.778,41.667,N
1605,-0.005,-0.295,0.170,27.778,30.556,258.333,852.778,25.000,N
1606,0.130,-0.070,0.285,27.778,30.556,258.333,800.000,52.778,N
1607,0.120,0.145,0.350,186.111,88.889,308.333,802.778,2.778,N
1608,0.090,0.385,0.370,155.556,91.667,350.000,838.889,36.111,N
1609,0.140,0.510,0.405,197.222,86.111,338.889,894.444,55.556,N
1610,0.140,0.395,0.320,197.222,91.667,358.333,866.667,27.778,N
1611,0.075,0.190,0.250,175.000,83.333,341.667,858.333,8.333,N
1612,-0.010,-0.110,0.170,197.222,88.889,338.889,894.444,36.111,N
1613,-0.020,0.085,0.125,186.111,86.111,344.444,838.889,55.556,N
1614,-0.025,-0.210,0.025,27.778,30.556,255.556,836.111,2.778,N
1615,-0.205,-0.560,-0.060,30.556,36.111,313.889,872.222,36.111,N
1616,-0.090,-0.250,0.015,30.556,33.333,308.333,911.111,38.889,N
1617,-0.230,-0.465,-0.110,27.778,30.556,286.111,869.444,41.667,N
1618,-0.145,-0.005,0.050,172.222,77.778,341.667,822.222,47.222,N
1619,-0.105,0.000,-0.080,191.667,83.333,327.778,836.111,13.889,N
1620,-0.375,-0.345,-0.110,197.222,80.556,341.667,836.111,0.000,N
1621,-0.180,0.130,0.035,138.889,80.556,286.111,791.667,44.444,N
1622,-0.210,0.150,-0.145,163.889,86.111,355.556,813.889,22.222,N
1623,-0.490,-0.425,-0.260,163.889,83.333,341.667,927.778,113.889,N
1624,-0.255,-0.020,0.035,186.111,86.111,350.000,872.222,55.556,N
1625,-0.155,0.165,0.000,183.333,83.333,341.667,830.556,41.667,N
1626,-0.370,-0.220,-0.205,150.000,88.889,338.889,869.444,38.889,N
1627,-0.235,0.005,0.165,150.000,83.333,325.000,844.444,25.000,N
1628,-0.050,0.380,0.145,150.000,75.000,294.444,822.222,22.222,N
1629,-0.225,-0.080,-0.055,197.222,86.111,344.444,830.556,8.333,N
1630,-0.070,0.285,0.225,166.667,83.333,344.444,944.444,113.889,N
1631,0.015,0.355,0.275,191.667,86.111,325.000,716.667,227.778,A
1632,0.005,0.105,0.005,166.667,66.667,322.222,1005.556,288.889,N
1633,-0.075,0.010,0.190,186.111,83.333,338.889,916.667,88.889,N
1634,-0.005,0.165,0.230,141.667,77.778,322.222,855.556,61.111,N
1635,-0.050,0.025,0.130,197.222,83.333,291.667,841.667,13.889,N
1636,-0.035,-0.200,0.055,30.556,33.333,283.333,805.556,36.111,N
1637,-0.120,-0.300,-0.010,36.111,36.111,322.222,927.778,122.222,N
1638,-0.090,-0.300,0.050,27.778,36.111,288.889,758.333,169.444,A
1639,-0.070,-0.225,0.040,30.556,36.111,291.667,938.889,180.556,N
1640,-0.085,-0.395,0.025,27.778,27.778,269.444,863.889,75.000,N
1641,-0.185,-0.480,0.005,188.889,25.000,277.778,808.333,55.556,N
1642,-0.150,-0.445,-0.060,25.000,27.778,244.444,816.667,8.333,N
1643,-0.235,-0.465,-0.075,188.889,30.556,297.222,783.333,33.333,N
1644,-0.170,-0.440,-0.015,27.778,36.111,325.000,852.778,69.444,N
1645,-0.140,-0.380,-0.005,25.000,33.333,291.667,886.111,33.333,N
1646,-0.210,-0.430,-0.150,22.222,30.556,241.667,813.889,72.222,N
1647,-0.290,-0.605,-0.255,25.000,30.556,272.222,586.111,227.778,A
1648,-0.255,0.010,0.090,83.333,80.556,341.667,922.222,336.111,N
1649,-0.130,-0.050,0.065,150.000,86.111,338.889,813.889,108.333,N
1650,-0.035,-0.220,0.135,27.778,30.556,294.444,741.667,72.222,N
1651,-0.190,-0.625,-0.285,194.444,33.333,277.778,830.556,88.889,N
1652,-0.385,-0.375,0.135,58.333,83.333,361.111,852.778,22.222,N
1653,-0.025,-0.260,0.235,30.556,30.556,269.444,825.000,27.778,N
1654,0.035,-0.195,0.155,27.778,33.333,275.000,777.778,47.222,N
1655,-0.375,-0.880,-0.260,197.222,33.333,255.556,802.778,25.000,N
1656,-0.175,-0.550,0.215,27.778,33.333,272.222,780.556,22.222,N
1657,-0.105,-0.395,0.160,30.556,30.556,236.111,802.778,22.222,N
1658,-0.165,-0.480,-0.110,30.556,33.333,275.000,797.222,5.556,N
1659,-0.420,-1.015,-0.110,33.333,0.000,277.778,841.667,44.444,N
1660,-0.175,-0.610,0.140,33.333,33.333,288.889,875.000,33.333,N
1661,-0.045,-0.425,0.195,27.778,27.778,236.111,816.667,58.333,N
1662,-0.225,-0.625,-0.030,25.000,30.556,261.111,805.556,11.111,N
1663,-0.140,-0.500,0.180,25.000,30.556,269.444,808.333,2.778,N
1664,-0.030,-0.330,0.070,27.778,36.111,269.444,800.000,8.333,N
1665,-0.235,-0.550,0.120,30.556,33.333,297.222,805.556,5.556,N
1666,0.115,-0.080,0.305,27.778,33.333,275.000,858.333,52.778,N
1667,-0.020,-0.030,0.010,166.667,83.333,330.556,858.333,0.000,N
1668,-0.260,-0.090,0.090,197.222,86.111,325.000,877.778,19.444,N
1669,0.000,0.080,0.320,147.222,88.889,338.889,800.000,77.778,N
1670,0.050,0.045,0.230,197.222,83.333,308.333,813.889,13.889,N
1671,-0.030,-0.215,-0.005,27.778,30.556,275.000,816.667,2.778,N
1672,-0.025,-0.280,0.185,25.000,30.556,280.556,808.333,8.333,N
1673,-0.010,-0.285,0.040,27.778,30.556,286.111,838.889,30.556,N
1674,-0.155,-0.480,-0.005,30.556,33.333,294.444,883.333,44.444,N
1675,-0.075,-0.450,0.110,27.778,30.556,266.667,877.778,5.556,N
1676,0.035,-0.175,0.170,27.778,30.556,277.778,822.222,55.556,N
1677,-0.075,-0.025,0.195,152.778,86.111,338.889,841.667,19.444,N
1678,-0.035,-0.005,0.220,197.222,86.111,325.000,844.444,2.778,N
1679,0.055,0.150,0.300,188.889,91.667,341.667,838.889,5.556,N
1680,0.035,0.020,0.185,158.333,83.333,330.556,922.222,83.333,N
1681,0.040,-0.145,0.125,30.556,30.556,300.000,911.111,11.111,N
1682,-0.025,-0.230,0.000,27.778,27.778,263.889,950.000,38.889,N
1683,-0.180,-0.565,0.015,27.778,27.778,275.000,888.889,61.111,N
1684,-0.070,-0.140,0.070,194.444,77.778,322.222,850.000,38.889,N
1685,-0.090,-0.145,0.050,194.444,80.556,325.000,883.333,33.333,N
1686,-0.180,-0.240,-0.010,155.556,88.889,341.667,875.000,8.333,N
1687,-0.130,-0.195,0.030,197.222,86.111,338.889,916.667,41.667,N
1688,-0.160,-0.215,0.000,161.111,83.333,372.222,911.111,5.556,N
1689,-0.090,-0.325,0.030,19.444,25.000,286.111,900.000,11.111,N
1690,-0.150,-0.365,-0.115,186.111,27.778,286.111,869.444,30.556,N
1691,-0.160,-0.555,0.100,27.778,27.778,277.778,852.778,16.667,N
1692,-0.050,-0.075,0.100,197.222,86.111,302.778,827.778,25.000,N
1693,-0.075,-0.340,-0.055,33.333,33.333,286.111,869.444,41.667,N
1694,-0.160,-0.555,-0.015,27.778,30.556,258.333,894.444,25.000,N
1695,-0.140,-0.535,0.040,33.333,33.333,272.222,866.667,27.778,N
1696,-0.125,-0.495,0.040,27.778,30.556,263.889,877.778,11.111,N
1697,-0.010,-0.320,0.145,27.778,30.556,263.889,850.000,27.778,N
1698,-0.105,-0.075,0.115,141.667,88.889,347.222,833.333,16.667,N
1699,-0.110,0.055,0.160,150.000,88.889,291.667,858.333,25.000,N
1700,0.015,0.290,0.250,169.444,91.667,338.889,852.778,5.556,N
1701,-0.055,0.115,0.130,175.000,83.333,325.000,919.444,66.667,N
1702,-0.135,-0.020,0.110,183.333,88.889,369.444,911.111,8.333,N
1703,0.050,-0.050,0.020,155.556,77.778,327.778,886.111,25.000,N
1704,-0.090,-0.280,0.080,25.000,33.333,272.222,877.778,8.333,N
1705,0.045,0.220,0.205,147.222,86.111,344.444,813.889,63.889,N
1706,-0.010,-0.240,-0.115,186.111,22.222,258.333,827.778,13.889,N
1707,-0.220,-0.550,0.050,36.111,33.333,327.778,863.889,36.111,N
1708,-0.095,0.025,0.130,147.222,83.333,341.667,866.667,2.778,N
1709,-0.195,-0.270,-0.065,152.778,86.111,341.667,861.111,5.556,N
1710,-0.210,-0.075,0.145,147.222,88.889,344.444,847.222,13.889,N
1711,-0.015,0.005,0.095,197.222,83.333,325.000,813.889,33.333,N
1712,-0.225,-0.430,0.000,30.556,33.333,272.222,802.778,11.111,N
1713,-0.005,0.190,0.310,152.778,83.333,288.889,802.778,0.000,N
1714,0.020,0.100,0.095,197.222,86.111,341.667,777.778,25.000,N
1715,-0.170,0.025,0.090,197.222,83.333,344.444,894.444,116.667,N
1716,-0.130,-0.120,-0.155,188.889,91.667,338.889,844.444,50.000,N
1717,-0.440,-0.305,0.095,138.889,77.778,327.778,852.778,8.333,N
1718,-0.070,0.040,0.145,197.222,86.111,327.778,825.000,27.778,N
1719,-0.165,-0.265,-0.125,180.556,86.111,325.000,833.333,8.333,N
1720,-0.280,-0.205,0.065,191.667,80.556,325.000,827.778,5.556,N
1721,-0.090,0.305,0.200,152.778,86.111,369.444,791.667,36.111,N
1722,-0.050,0.270,-0.035,166.667,94.444,358.333,933.333,141.667,N
1723,-0.115,0.260,0.320,58.333,77.778,338.889,922.222,11.111,N
1724,0.155,0.455,0.335,191.667,77.778,313.889,863.889,58.333,N
1725,0.055,0.400,0.055,194.444,86.111,327.778,902.778,38.889,N
1726,-0.055,0.270,0.265,186.111,83.333,330.556,869.444,33.333,N
1727,0.105,0.460,0.195,180.556,86.111,305.556,836.111,33.333,N
1728,-0.005,0.030,-0.090,194.444,83.333,355.556,844.444,8.333,N
1729,-0.250,-0.430,-0.145,30.556,33.333,322.222,983.333,138.889,N
1730,-0.170,-0.415,-0.010,30.556,33.333,280.556,916.667,66.667,N
1731,-0.150,-0.150,0.270,188.889,80.556,325.000,844.444,72.222,N
1732,-0.005,0.235,0.235,150.000,88.889,333.333,894.444,50.000,N
1733,0.005,0.245,0.215,197.222,83.333,325.000,858.333,36.111,N
1734,-0.060,0.190,0.105,183.333,80.556,308.333,838.889,19.444,N
1735,-0.140,0.150,0.040,197.222,88.889,344.444,861.111,22.222,N
1736,-0.160,0.100,0.085,158.333,88.889,366.667,927.778,66.667,N
1737,-0.075,0.225,0.075,194.444,83.333,341.667,936.111,8.333,N
1738,-0.120,0.425,0.005,188.889,86.111,352.778,861.111,75.000,N
1739,-0.215,0.275,-0.025,150.000,86.111,355.556,897.222,36.111,N
1740,-0.160,0.185,0.075,191.667,80.556,341.667,872.222,25.000,N
1741,-0.080,0.055,0.080,177.778,80.556,338.889,805.556,66.667,N
1742,-0.065,-0.110,-0.065,188.889,75.000,341.667,905.556,100.000,N
1743,-0.160,-0.435,0.125,30.556,33.333,325.000,925.000,19.444,N
1744,0.130,-0.160,0.280,33.333,30.556,272.222,888.889,36.111,N
1745,-0.050,-0.605,-0.055,197.222,30.556,275.000,844.444,44.444,N
1746,-0.190,-0.680,0.200,30.556,2.778,277.778,875.000,30.556,N
1747,0.055,-0.325,0.170,30.556,30.556,269.444,827.778,47.222,N
1748,-0.350,-0.835,-0.255,188.889,30.556,263.889,822.222,5.556,N
1749,-0.200,-0.605,0.165,33.333,33.333,286.111,894.444,72.222,N
1750,-0.030,-0.345,-0.060,33.333,33.333,286.111,883.333,11.111,N
1751,-0.420,-0.875,-0.145,30.556,27.778,258.333,911.111,27.778,N
1752,-0.205,-0.620,0.065,27.778,30.556,261.111,827.778,83.333,N
1753,0.070,-0.190,0.280,33.333,30.556,269.444,847.222,19.444,N
1754,-0.075,-0.535,-0.075,188.889,27.778,261.111,850.000,2.778,N
1755,-0.275,-0.735,0.145,30.556,2.778,294.444,805.556,44.444,N
1756,0.105,-0.125,0.230,36.111,38.889,291.667,888.889,83.333,N
1757,-0.355,-0.750,-0.295,169.444,33.333,280.556,902.778,13.889,N
1758,-0.230,-0.580,0.030,33.333,30.556,255.556,897.222,5.556,N
1759,-0.115,-0.385,-0.050,30.556,30.556,269.444,816.667,80.556,N
1760,-0.375,-0.675,-0.200,30.556,30.556,280.556,855.556,38.889,N
1761,-0.310,-0.790,-0.055,30.556,5.556,266.667,847.222,8.333,N
1762,-0.180,-0.645,0.065,30.556,2.778,269.444,794.444,52.778,N
1763,0.090,-0.095,0.225,30.556,33.333,308.333,863.889,69.444,N
1764,-0.020,0.105,0.205,155.556,91.667,352.778,891.667,27.778,N
1765,-0.020,-0.045,0.165,155.556,77.778,325.000,916.667,25.000,N
1766,-0.030,-0.105,0.090,191.667,80.556,327.778,836.111,80.556,N
1767,-0.240,-0.595,-0.155,197.222,33.333,291.667,852.778,16.667,N
1768,-0.085,-0.435,0.205,27.778,25.000,275.000,863.889,11.111,N
1769,0.125,-0.105,0.215,27.778,27.778,280.556,777.778,86.111,N
1770,-0.040,-0.305,-0.105,33.333,33.333,305.556,877.778,100.000,N
1771,-0.180,-0.575,0.005,30.556,33.333,308.333,897.222,19.444,N
1772,-0.090,-0.280,-0.015,33.333,33.333,272.222,866.667,30.556,N
1773,-0.125,-0.420,-0.035,30.556,30.556,291.667,833.333,33.333,N
1774,-0.150,-0.405,-0.030,30.556,30.556,288.889,802.778,30.556,N
1775,-0.275,-0.635,-0.310,197.222,27.778,280.556,836.111,33.333,N
1776,-0.345,-0.680,-0.070,30.556,27.778,277.778,786.111,50.000,N
1777,-0.175,-0.425,-0.015,33.333,27.778,291.667,816.667,30.556,N
1778,-0.185,-0.540,-0.180,27.778,33.333,294.444,852.778,36.111,N
1779,-0.465,-0.915,-0.290,194.444,2.778,297.222,880.556,27.778,N
1780,-0.400,-0.845,-0.185,33.333,30.556,263.889,813.889,66.667,N
1781,-0.315,-0.810,-0.055,30.556,5.556,258.333,805.556,8.333,N
1782,-0.230,-0.625,0.015,33.333,33.333,283.333,808.333,2.778,N
1783,-0.120,-0.095,0.165,188.889,83.333,308.333,816.667,8.333,N
1784,-0.165,0.075,0.040,194.444,80.556,352.778,813.889,2.778,N
1785,-0.200,0.155,-0.065,161.111,83.333,338.889,894.444,80.556,N
1786,-0.195,0.250,-0.005,147.222,94.444,355.556,858.333,36.111,N
1787,-0.105,0.320,-0.060,180.556,91.667,363.889,855.556,2.778,N
1788,-0.180,0.150,-0.185,191.667,86.111,327.778,833.333,22.222,N
1789,0.020,0.320,0.335,69.444,91.667,350.000,811.111,22.222,N
1790,0.065,-0.070,-0.005,191.667,77.778,286.111,833.333,22.222,N
1791,-0.210,-0.260,-0.310,191.667,83.333,325.000,800.000,33.333,N
1792,-0.675,-0.895,-0.470,194.444,36.111,311.111,852.778,52.778,N
1793,-0.265,0.050,-0.020,197.222,94.444,355.556,858.333,5.556,N
1794,-0.060,0.200,-0.005,194.444,86.111,341.667,844.444,13.889,N
1795,-0.115,-0.005,-0.275,194.444,88.889,344.444,830.556,13.889,N
1796,-0.455,-0.240,-0.090,141.667,80.556,341.667,816.667,13.889,N
1797,-0.060,0.245,-0.030,194.444,91.667,338.889,816.667,0.000,N
1798,-0.340,-0.165,-0.555,183.333,80.556,341.667,808.333,8.333,N
1799,-0.595,-0.195,-0.265,147.222,88.889,361.111,861.111,52.778,N
1800,-0.290,0.185,-0.265,188.889,88.889,344.444,841.667,19.444,N
1801,-0.510,-0.345,-0.490,186.111,77.778,338.889,863.889,22.222,N
1802,-0.305,0.420,-0.120,66.667,88.889,355.556,830.556,33.333,N
1803,-0.120,0.535,-0.130,177.778,91.667,344.444,794.444,36.111,N
1804,-0.340,0.015,-0.325,191.667,83.333,363.889,825.000,30.556,N
1805,-0.135,0.555,0.140,138.889,88.889,363.889,783.333,41.667,N
1806,0.080,0.605,-0.095,186.111,86.111,372.222,833.333,50.000,N
1807,-0.345,-0.090,-0.250,152.778,97.222,372.222,877.778,44.444,N
1808,-0.135,0.555,-0.120,155.556,94.444,352.778,836.111,41.667,N
1809,-0.195,0.385,-0.055,158.333,88.889,361.111,819.444,16.667,N
1810,-0.065,0.540,-0.095,144.444,91.667,325.000,805.556,13.889,N
1811,-0.360,-0.135,-0.480,183.333,86.111,341.667,780.556,25.000,N
1812,-0.300,0.355,-0.135,127.778,86.111,341.667,786.111,5.556,N
1813,-0.225,0.505,-0.160,161.111,97.222,363.889,827.778,41.667,N
1814,-0.285,0.160,-0.440,197.222,94.444,344.444,838.889,11.111,N
1815,-0.330,0.190,0.000,147.222,83.333,338.889,847.222,8.333,N
1816,0.050,0.660,0.240,138.889,88.889,344.444,777.778,69.444,N
1817,-0.040,-0.095,-0.200,191.667,83.333,325.000,836.111,58.333,N
1818,-0.165,0.185,0.095,138.889,83.333,327.778,794.444,41.667,N
1819,-0.015,0.375,-0.100,194.444,88.889,313.889,772.222,22.222,N
1820,-0.405,-0.350,-0.065,191.667,80.556,361.111,844.444,72.222,N
1821,-0.040,0.370,0.140,150.000,94.444,338.889,847.222,2.778,N
1822,0.010,0.255,0.035,188.889,83.333,358.333,852.778,5.556,N
1823,-0.185,-0.220,0.150,175.000,80.556,341.667,852.778,0.000,N
1824,0.190,0.415,0.360,191.667,83.333,358.333,813.889,38.889,N
1825,0.095,0.090,-0.100,186.111,94.444,341.667,827.778,13.889,N
1826,-0.110,0.235,0.155,177.778,80.556,344.444,808.333,19.444,N
1827,0.215,0.645,0.430,147.222,97.222,372.222,772.222,36.111,N
1828,0.270,0.625,0.150,197.222,97.222,377.778,880.556,108.333,N
1829,-0.110,0.305,0.035,194.444,88.889,375.000,863.889,16.667,N
1830,-0.100,0.560,-0.005,155.556,83.333,325.000,844.444,19.444,N
1831,-0.140,0.495,-0.035,194.444,83.333,352.778,819.444,25.000,N
1832,-0.100,0.505,-0.080,197.222,83.333,352.778,838.889,19.444,N
1833,-0.170,0.380,-0.070,191.667,80.556,338.889,825.000,13.889,N
1834,-0.160,0.535,0.000,172.222,80.556,375.000,783.333,41.667,N
1835,-0.065,0.705,0.050,175.000,86.111,358.333,702.778,80.556,A
1836,-0.060,0.600,0.135,144.444,86.111,369.444,1097.222,394.444,N
1837,0.125,0.680,0.265,188.889,83.333,352.778,922.222,175.000,N
1838,0.240,0.800,0.280,188.889,86.111,372.222,863.889,58.333,N
1839,0.235,0.730,0.295,188.889,94.444,372.222,888.889,25.000,N
1840,0.275,0.570,0.205,188.889,77.778,327.778,852.778,36.111,N
1841,0.045,0.235,0.020,191.667,77.778,369.444,813.889,38.889,N
1842,-0.065,-0.005,-0.060,172.222,94.444,375.000,933.333,119.444,N
1843,-0.240,-0.445,-0.125,25.000,30.556,291.667,886.111,47.222,N
1844,-0.275,-0.600,-0.045,25.000,27.778,261.111,850.000,36.111,N
1845,0.050,-0.200,0.070,27.778,33.333,283.333,797.222,52.778,N
1846,-0.305,-0.745,-0.165,183.333,30.556,283.333,827.778,30.556,N
1847,0.035,0.150,0.505,52.778,80.556,327.778,794.444,33.333,N
1848,0.295,-0.080,0.210,183.333,27.778,266.667,741.667,52.778,N
1849,-0.230,-0.850,0.130,33.333,2.778,305.556,830.556,88.889,N
1850,0.340,0.315,0.600,144.444,88.889,358.333,847.222,16.667,N
1851,0.190,0.035,0.000,191.667,80.556,305.556,822.222,25.000,N
1852,-0.200,-0.080,-0.055,50.000,75.000,308.333,761.111,61.111,N
1853,-0.065,0.210,0.180,194.444,86.111,322.222,775.000,13.889,N
1854,-0.160,-0.185,-0.160,197.222,91.667,325.000,775.000,0.000,N
1855,-0.295,-0.120,0.425,136.111,86.111,305.556,766.667,8.333,N
1856,0.330,0.575,0.120,186.111,91.667,102.778,716.667,50.000,N
1857,-0.495,-0.430,-0.130,158.333,88.889,372.222,838.889,122.222,N
1858,-0.275,-0.045,-0.360,191.667,83.333,352.778,816.667,22.222,N
1859,-0.425,-0.440,-0.365,197.222,88.889,338.889,791.667,25.000,N
1860,-0.400,-0.490,-0.465,188.889,80.556,194.444,755.556,36.111,N
1861,-0.855,-1.180,-0.690,194.444,33.333,275.000,752.778,2.778,N
1862,-0.605,-0.530,-0.260,86.111,97.222,347.222,761.111,8.333,N
1863,-0.280,-0.515,-0.370,175.000,83.333,291.667,758.333,2.778,N
1864,-0.465,-0.535,-0.270,191.667,83.333,338.889,738.889,19.444,N
1865,-0.175,-0.385,0.100,36.111,36.111,325.000,822.222,83.333,N
1866,0.095,-0.120,0.325,30.556,36.111,294.444,825.000,2.778,N
1867,0.230,-0.105,0.375,197.222,30.556,277.778,772.222,52.778,N
1868,0.395,0.480,0.980,97.222,88.889,363.889,758.333,13.889,N
1869,0.965,0.560,1.340,27.778,2.778,283.333,755.556,2.778,N
1870,-0.045,1.350,1.815,1799702.778,0.000,1799713.889,747.222,8.333,N
1871,-0.045,1.275,1.285,1800405.556,1800430.556,1800686.111,702.778,44.444,N
1872,0.870,0.475,0.410,197.222,33.333,55.556,763.889,61.111,N
1873,0.320,0.115,0.355,33.333,33.333,305.556,800.000,36.111,N
1874,0.185,0.015,0.195,188.889,30.556,283.333,788.889,11.111,N
1875,-0.070,-0.450,-0.295,183.333,30.556,269.444,744.444,44.444,N
1876,-0.330,-0.640,-0.065,27.778,33.333,291.667,727.778,16.667,N