id,Pamp,Ramp,Tamp,PR,QRS,QT,RRI,dRRI,label
1,-0.070,1.920,0.080,191.667,105.556,105.556,875.000,2.778,L
2,-0.080,2.000,0.150,183.333,113.889,113.889,875.000,0.000,L
3,-0.045,2.015,0.075,163.889,116.667,116.667,880.556,5.556,L
4,-0.025,1.960,0.115,175.000,108.333,108.333,827.778,52.778,L
5,-0.060,0.990,0.890,58.333,97.222,327.778,638.889,188.889,V
6,-0.070,2.070,0.010,152.778,102.778,102.778,955.556,316.667,L
7,-0.055,1.890,0.120,175.000,108.333,108.333,772.222,183.333,L
8,-0.055,1.870,0.125,169.444,116.667,116.667,877.778,105.556,L
9,-0.120,1.295,1.150,69.444,116.667,375.000,450.000,427.778,V
10,-0.080,2.000,0.140,177.778,111.111,111.111,1275.000,825.000,L
11,-0.070,1.880,-0.010,150.000,113.889,113.889,772.222,502.778,L
12,-0.095,1.950,-0.015,152.778,116.667,116.667,719.444,52.778,L
13,-0.110,1.930,-0.030,166.667,102.778,102.778,730.556,11.111,L
14,-0.160,1.825,-0.045,141.667,111.111,111.111,758.333,27.778,L
15,-0.165,1.930,-0.090,186.111,105.556,105.556,763.889,5.556,L
16,-0.195,1.840,-0.045,177.778,113.889,113.889,775.000,11.111,L
17,-0.195,1.990,0.000,194.444,116.667,116.667,880.556,105.556,L
18,-0.165,1.970,-0.110,186.111,105.556,105.556,894.444,13.889,L
19,-0.230,1.780,-0.210,150.000,116.667,116.667,747.222,147.222,L
20,-0.230,1.810,-0.115,158.333,108.333,108.333,722.222,25.000,L
21,-0.200,1.905,-0.125,152.778,102.778,102.778,727.778,5.556,L
22,-0.245,1.825,-0.130,155.556,116.667,116.667,780.556,52.778,L
23,-0.255,1.730,-0.220,147.222,116.667,116.667,816.667,36.111,L
24,-0.265,1.860,-0.175,150.000,113.889,113.889,819.444,2.778,L
25,-0.295,1.840,-0.210,150.000,111.111,111.111,802.778,16.667,L
26,-0.210,1.760,-0.135,186.111,116.667,116.667,833.333,30.556,L
27,-0.215,1.720,-0.155,155.556,116.667,116.667,766.667,66.667,L
28,-0.170,1.855,-0.095,133.333,113.889,113.889,713.889,52.778,L
29,-0.135,1.995,-0.005,150.000,113.889,113.889,747.222,33.333,L
30,-0.065,1.985,0.055,194.444,111.111,111.111,780.556,33.333,L
31,-0.090,1.845,0.005,186.111,113.889,113.889,825.000,44.444,L
32,-0.130,1.755,-0.015,177.778,113.889,113.889,861.111,36.111,L
33,-0.115,1.855,-0.040,169.444,102.778,102.778,825.000,36.111,L
34,-0.145,1.805,-0.065,172.222,105.556,105.556,766.667,58.333,L
35,-0.185,1.850,-0.055,177.778,105.556,105.556,772.222,5.556,L
36,-0.185,1.745,-0.130,166.667,116.667,116.667,741.667,30.556,L
37,-0.220,1.695,-0.125,155.556,102.778,102.778,752.778,11.111,L
38,-0.220,1.850,-0.090,155.556,105.556,105.556,783.333,30.556,L
39,-0.210,1.705,-0.035,169.444,116.667,116.667,813.889,30.556,L
40,-0.170,1.755,-0.005,177.778,108.333,108.333,841.667,27.778,L
41,-0.160,1.845,-0.085,166.667,116.667,116.667,825.000,16.667,L
42,0.340,-2.025,1.145,44.444,0.000,238.889,561.111,263.889,V
43,-0.265,1.925,-0.175,163.889,116.667,116.667,938.889,377.778,L
44,-0.190,1.735,-0.105,180.556,113.889,113.889,747.222,191.667,L
45,-0.190,1.930,-0.060,183.333,113.889,113.889,786.111,38.889,L
46,-0.185,1.915,-0.055,163.889,102.778,102.778,786.111,0.000,L
47,-0.125,1.890,0.010,177.778,111.111,111.111,808.333,22.222,L
48,-0.190,1.845,-0.075,169.444,108.333,108.333,825.000,16.667,L
49,-0.190,1.840,-0.130,147.222,113.889,113.889,797.222,27.778,L
50,-0.210,1.990,-0.110,155.556,108.333,108.333,775.000,22.222,L
51,-0.150,1.990,0.005,144.444,105.556,105.556,750.000,25.000,L
52,-0.110,1.915,0.005,163.889,111.111,111.111,736.111,13.889,L
53,-0.130,2.005,0.110,163.889,113.889,113.889,816.667,80.556,L
54,-0.120,1.970,0.055,183.333,113.889,113.889,855.556,38.889,L
55,-0.155,2.100,0.050,177.778,108.333,108.333,844.444,11.111,L
56,-0.155,1.960,0.015,172.222,105.556,105.556,825.000,19.444,L
57,-0.190,1.945,-0.015,169.444,105.556,105.556,769.444,55.556,L
58,-0.155,1.820,-0.010,166.667,102.778,102.778,750.000,19.444,L
59,-0.140,1.965,-0.100,136.111,100.000,100.000,730.556,19.444,L
60,-0.100,2.110,-0.015,166.667,102.778,102.778,747.222,16.667,L
61,-0.125,1.960,-0.005,180.556,111.111,111.111,763.889,16.667,L
62,-0.160,2.010,0.000,194.444,113.889,113.889,847.222,83.333,L
63,-0.210,1.950,-0.070,172.222,111.111,111.111,847.222,0.000,L
64,-0.200,1.920,-0.030,158.333,102.778,102.778,813.889,33.333,L
65,-0.195,1.780,-0.020,155.556,108.333,108.333,783.333,30.556,L
66,-0.220,1.845,-0.080,161.111,105.556,105.556,755.556,27.778,L
67,-0.230,1.810,-0.080,180.556,105.556,105.556,791.667,36.111,L
68,-0.265,1.740,-0.100,169.444,105.556,105.556,805.556,13.889,L
69,-0.260,1.765,-0.150,169.444,116.667,116.667,811.111,5.556,L
70,-0.230,1.730,-0.055,175.000,108.333,108.333,825.000,13.889,L
71,-0.240,1.830,-0.125,183.333,111.111,111.111,852.778,27.778,L
72,-0.225,1.715,-0.160,158.333,108.333,108.333,763.889,88.889,L
73,-0.230,1.625,-0.110,166.667,113.889,113.889,722.222,41.667,L
74,-0.175,1.835,-0.070,155.556,102.778,105.556,725.000,2.778,L
75,-0.165,1.865,-0.095,166.667,105.556,105.556,747.222,22.222,L
76,-0.155,1.860,0.000,188.889,111.111,111.111,819.444,72.222,L
77,-0.110,1.930,0.015,186.111,108.333,108.333,850.000,30.556,L
78,-0.135,1.730,0.045,180.556,116.667,116.667,827.778,22.222,L
79,-0.085,1.895,0.050,150.000,116.667,116.667,783.333,44.444,L
80,-0.030,2.085,0.040,180.556,102.778,102.778,763.889,19.444,L
81,-0.060,1.940,-0.010,163.889,111.111,111.111,716.667,47.222,L
82,-0.125,2.030,0.015,161.111,113.889,113.889,700.000,16.667,L
83,-0.130,2.000,0.020,158.333,105.556,105.556,744.444,44.444,L
84,-0.145,2.205,-0.045,166.667,116.667,116.667,775.000,30.556,L
85,-0.135,2.120,0.040,191.667,116.667,116.667,850.000,75.000,L
86,-0.090,2.115,-0.035,177.778,111.111,111.111,1011.111,161.111,L
87,-0.285,1.800,-0.255,147.222,108.333,388.889,786.111,225.000,L
88,-0.165,1.750,-0.145,163.889,113.889,380.556,730.556,55.556,L
89,-0.060,1.770,-0.055,136.111,113.889,113.889,758.333,27.778,L
90,-0.025,1.720,-0.010,161.111,102.778,105.556,741.667,16.667,L
91,-0.045,1.700,0.080,158.333,108.333,108.333,750.000,8.333,L
92,0.000,1.685,0.040,177.778,108.333,108.333,786.111,36.111,L
93,-0.125,1.595,-0.075,158.333,108.333,108.333,811.111,25.000,L
94,-0.210,1.570,-0.120,186.111,116.667,116.667,844.444,33.333,L
95,-0.215,1.315,-0.150,180.556,100.000,361.111,783.333,61.111,L
96,-0.075,1.520,-0.210,161.111,116.667,369.444,713.889,69.444,L
97,-0.210,0.740,0.595,122.222,83.333,308.333,433.333,280.556,V
98,0.170,1.625,-0.170,177.778,111.111,130.556,1061.111,627.778,L
99,-0.295,1.575,-0.035,186.111,105.556,113.889,791.667,269.444,L
100,-0.055,0.265,0.380,136.111,77.778,308.333,613.889,177.778,V
101,-0.160,1.800,-0.020,186.111,108.333,108.333,991.667,377.778,L
102,-0.235,1.600,-0.120,161.111,113.889,113.889,772.222,219.444,L
103,-0.300,0.980,1.030,66.667,116.667,327.778,422.222,350.000,V
104,-0.325,1.590,-0.245,136.111,100.000,355.556,1022.222,600.000,L
105,-0.205,1.750,-0.175,150.000,102.778,105.556,677.778,344.444,L
106,-0.260,0.925,0.075,136.111,80.556,297.222,463.889,213.889,V
107,-0.250,1.820,-0.185,166.667,108.333,108.333,994.444,530.556,L
108,-0.175,1.465,-0.100,188.889,113.889,113.889,800.000,194.444,L
109,-0.250,0.915,0.080,150.000,94.444,338.889,541.667,258.333,V
110,-0.155,1.850,-0.110,141.667,108.333,388.889,994.444,452.778,L
111,-0.050,1.945,0.030,155.556,102.778,105.556,694.444,300.000,L
112,-0.120,1.395,-0.150,147.222,100.000,100.000,661.111,33.333,L
113,-0.160,1.720,-0.125,166.667,102.778,102.778,652.778,8.333,L
114,-0.055,1.895,0.000,136.111,116.667,116.667,683.333,30.556,L
115,-0.095,1.935,-0.110,172.222,111.111,111.111,708.333,25.000,L
116,-0.180,1.955,-0.310,180.556,116.667,116.667,722.222,13.889,L
117,-0.215,0.340,1.250,191.667,113.889,405.556,583.333,138.889,V
118,-0.130,2.115,-0.115,194.444,113.889,394.444,1163.889,580.556,L
119,0.015,2.005,0.150,133.333,111.111,347.222,725.000,438.889,L
120,0.095,2.055,0.060,177.778,111.111,111.111,725.000,0.000,L
121,-0.010,1.885,0.045,155.556,116.667,116.667,727.778,2.778,L
122,-0.065,1.940,0.030,166.667,116.667,116.667,777.778,50.000,L
123,-0.010,2.005,-0.030,169.444,113.889,113.889,786.111,8.333,L
124,0.010,2.025,0.000,175.000,105.556,108.333,805.556,19.444,L
125,0.025,1.975,0.000,188.889,113.889,113.889,786.111,19.444,L
126,0.020,1.850,0.055,191.667,111.111,111.111,816.667,30.556,L
127,0.080,1.755,0.085,188.889,113.889,119.444,777.778,38.889,L
128,0.030,1.905,0.100,155.556,102.778,102.778,733.333,44.444,L
129,-0.040,1.670,0.005,141.667,100.000,100.000,719.444,13.889,L
130,-0.055,1.775,0.000,172.222,113.889,113.889,730.556,11.111,L
131,-0.065,1.815,0.015,183.333,116.667,116.667,794.444,63.889,L
132,-0.105,1.880,-0.025,169.444,113.889,113.889,802.778,8.333,L
133,-0.155,1.795,-0.115,186.111,116.667,116.667,783.333,19.444,L
134,-0.155,1.810,-0.055,169.444,108.333,108.333,738.889,44.444,L
135,-0.115,1.880,-0.020,147.222,113.889,113.889,741.667,2.778,L
136,-0.110,2.000,-0.040,138.889,97.222,102.778,691.667,50.000,L
137,-0.090,2.025,-0.035,150.000,111.111,111.111,691.667,0.000,L
138,-0.075,1.775,-0.040,155.556,108.333,108.333,711.111,19.444,L
139,-0.105,1.870,-0.055,172.222,102.778,105.556,747.222,36.111,L
140,-0.015,2.005,0.130,180.556,113.889,113.889,794.444,47.222,L
141,-0.025,1.960,0.130,177.778,111.111,111.111,861.111,66.667,L
142,-0.090,1.275,1.250,63.889,113.889,355.556,422.222,438.889,V
143,-0.110,1.825,-0.070,155.556,105.556,105.556,1155.556,733.333,L
144,-0.085,1.895,-0.005,152.778,102.778,102.778,747.222,408.333,L
145,-0.015,1.890,0.105,158.333,108.333,108.333,775.000,27.778,L
146,-0.015,1.930,0.085,161.111,108.333,108.333,783.333,8.333,L
147,-0.020,1.890,0.060,163.889,111.111,111.111,786.111,2.778,L
148,-0.020,1.865,0.060,166.667,116.667,116.667,852.778,66.667,L
149,-0.095,1.225,1.055,58.333,111.111,375.000,427.778,425.000,V
150,-0.070,1.905,-0.005,152.778,102.778,102.778,1325.000,897.222,L
151,-0.075,1.840,-0.035,144.444,102.778,102.778,761.111,563.889,L
152,-0.050,1.935,0.070,161.111,113.889,113.889,750.000,11.111,L
153,-0.050,1.900,0.095,177.778,113.889,113.889,833.333,83.333,L
154,-0.080,1.900,0.090,186.111,108.333,108.333,825.000,8.333,L
155,-0.075,1.880,0.095,186.111,113.889,113.889,850.000,25.000,L
156,-0.115,1.820,0.035,197.222,113.889,113.889,863.889,13.889,L
157,-0.245,1.010,1.070,58.333,113.889,344.444,430.556,433.333,V
158,-0.235,1.840,-0.130,172.222,108.333,108.333,1211.111,780.556,L
159,-0.230,1.760,-0.140,155.556,108.333,108.333,750.000,461.111,L
160,-0.205,1.860,-0.065,152.778,102.778,391.667,763.889,13.889,L
161,-0.195,1.145,1.205,72.222,113.889,352.778,383.333,380.556,V
162,-0.205,1.935,-0.065,186.111,116.667,116.667,1316.667,933.333,L
163,-0.185,1.840,-0.005,197.222,113.889,113.889,861.111,455.556,L
164,-0.245,1.820,-0.130,183.333,111.111,111.111,847.222,13.889,L
165,-0.305,1.120,1.110,63.889,116.667,355.556,405.556,441.667,V
166,-0.290,1.845,-0.250,169.444,105.556,105.556,1119.444,713.889,L
167,-0.250,1.665,-0.070,172.222,108.333,108.333,752.778,366.667,L
168,-0.250,1.910,-0.155,161.111,113.889,113.889,769.444,16.667,L
169,-0.225,1.860,-0.140,172.222,108.333,108.333,783.333,13.889,L
170,-0.220,1.970,-0.115,186.111,116.667,116.667,811.111,27.778,L
171,-0.215,1.875,-0.120,197.222,113.889,113.889,877.778,66.667,L
172,-0.220,1.820,-0.115,175.000,111.111,111.111,780.556,97.222,L
173,-0.170,1.815,-0.085,150.000,116.667,116.667,705.556,75.000,L
174,-0.185,1.640,-0.120,147.222,116.667,116.667,680.556,25.000,L
175,-0.105,1.935,-0.105,141.667,111.111,372.222,730.556,50.000,L
176,-0.080,-0.275,1.820,19.444,2.778,216.667,541.667,188.889,|
177,0.095,1.750,-0.070,180.556,116.667,125.000,211.111,330.556,L
178,0.030,1.905,0.040,58.333,116.667,116.667,816.667,605.556,L
179,0.020,1.950,0.100,177.778,116.667,116.667,833.333,16.667,L
180,0.015,1.970,0.170,166.667,116.667,116.667,822.222,11.111,L
181,0.040,1.965,0.215,172.222,116.667,405.556,819.444,2.778,L
182,0.050,1.305,1.370,58.333,116.667,341.667,394.444,425.000,V
183,-0.080,2.040,-0.025,169.444,113.889,386.111,1102.778,708.333,L
184,0.080,2.060,0.025,58.333,116.667,116.667,727.778,375.000,L
185,-0.030,2.075,0.230,158.333,113.889,113.889,733.333,5.556,L
186,0.000,2.115,0.070,183.333,113.889,113.889,802.778,69.444,L
187,0.050,2.025,-0.015,180.556,113.889,388.889,800.000,2.778,L
188,-0.005,-1.320,1.295,197.222,5.556,241.667,550.000,250.000,V
189,0.195,2.065,0.085,58.333,116.667,116.667,986.111,436.111,L
190,0.025,2.205,0.100,186.111,105.556,105.556,719.444,266.667,L
191,0.140,2.150,0.180,58.333,116.667,116.667,722.222,2.778,L
192,0.080,2.025,0.065,175.000,111.111,111.111,700.000,22.222,L
193,0.100,1.990,0.220,158.333,108.333,108.333,747.222,47.222,L
194,0.235,1.890,0.245,58.333,116.667,116.667,783.333,36.111,L
195,0.170,1.910,0.215,58.333,116.667,116.667,811.111,27.778,L
196,0.245,2.125,0.200,58.333,116.667,116.667,836.111,25.000,L
197,0.175,2.100,1.025,58.333,116.667,405.556,797.222,38.889,L
198,0.035,1.245,1.420,61.111,116.667,347.222,361.111,436.111,V
199,0.075,2.105,0.540,138.889,116.667,116.667,1211.111,850.000,L
200,0.125,2.015,0.570,166.667,97.222,116.667,797.222,413.889,L
201,0.055,0.125,1.805,191.667,100.000,372.222,572.222,225.000,V
202,0.085,2.045,0.205,58.333,116.667,116.667,1150.000,577.778,L
203,-0.035,1.905,0.065,186.111,116.667,116.667,830.556,319.444,L
204,-0.005,2.040,-0.045,175.000,111.111,394.444,822.222,8.333,L
205,1.370,-1.965,1.390,41.667,8.333,219.444,441.667,380.556,V
206,1.390,1.525,0.275,191.667,113.889,325.000,411.111,30.556,V
207,-0.075,2.080,0.215,141.667,105.556,105.556,1261.111,850.000,L
208,-0.010,2.050,0.315,183.333,108.333,108.333,811.111,450.000,L
209,-0.030,1.985,0.310,166.667,116.667,116.667,816.667,5.556,L
210,-0.040,2.035,0.135,161.111,111.111,111.111,791.667,25.000,L
211,-0.050,1.910,-0.010,172.222,100.000,102.778,797.222,5.556,L
212,-0.040,1.990,0.005,172.222,108.333,108.333,750.000,47.222,L
213,-0.100,2.010,0.100,158.333,111.111,111.111,736.111,13.889,L
214,-0.120,2.035,-0.140,169.444,100.000,358.333,738.889,2.778,L
215,-0.060,2.370,-0.220,58.333,116.667,397.222,480.556,258.333,V
216,-0.025,1.955,-0.060,172.222,108.333,394.444,1127.778,647.222,L
217,-0.060,1.820,-0.020,191.667,111.111,111.111,855.556,272.222,L
218,-0.095,1.885,0.090,158.333,108.333,108.333,880.556,25.000,L
219,0.240,1.655,0.260,58.333,116.667,344.444,658.333,222.222,V
220,-0.170,1.775,-0.115,150.000,116.667,116.667,983.333,325.000,L
221,-0.170,1.910,-0.085,163.889,111.111,111.111,747.222,236.111,L
222,0.395,-2.020,1.510,47.222,5.556,241.667,563.889,183.333,V
223,-0.230,1.825,-0.230,177.778,108.333,388.889,1033.333,469.444,L
224,-0.170,1.890,-0.185,180.556,111.111,111.111,786.111,247.222,L
225,-0.130,1.770,0.065,194.444,116.667,116.667,863.889,77.778,L
226,-0.140,1.845,0.065,150.000,116.667,116.667,872.222,8.333,L
227,-0.205,1.810,-0.065,141.667,102.778,102.778,791.667,80.556,L
228,-0.200,1.905,-0.160,169.444,116.667,116.667,763.889,27.778,L
229,-0.180,1.730,-0.140,158.333,111.111,111.111,755.556,8.333,L
230,-0.125,1.985,-0.105,175.000,113.889,113.889,813.889,58.333,L
231,-0.115,1.750,-0.175,177.778,105.556,105.556,852.778,38.889,L
232,-0.135,1.915,0.080,147.222,113.889,113.889,872.222,19.444,L
233,-0.120,1.850,0.030,188.889,116.667,116.667,905.556,33.333,L
234,-0.080,1.850,-0.160,180.556,116.667,116.667,877.778,27.778,L
235,-0.135,1.625,-0.170,175.000,108.333,358.333,791.667,86.111,L
236,-0.170,1.545,-0.125,152.778,116.667,116.667,763.889,27.778,L
237,-0.185,1.330,-0.055,138.889,116.667,116.667,783.333,19.444,L
238,-0.105,0.920,1.010,58.333,116.667,363.889,411.111,372.222,V
239,-0.215,1.530,-0.230,191.667,94.444,94.444,1327.778,916.667,L
240,-0.220,1.715,0.065,158.333,116.667,116.667,847.222,480.556,L
241,-0.100,1.770,0.045,161.111,108.333,108.333,802.778,44.444,L
242,-0.115,1.775,-0.040,177.778,108.333,108.333,783.333,19.444,L
243,-0.110,1.870,-0.055,158.333,111.111,400.000,733.333,50.000,L
244,-0.245,0.655,0.985,55.556,97.222,330.556,366.667,366.667,V
245,-0.080,1.970,-0.035,163.889,113.889,113.889,1105.556,738.889,L
246,0.120,2.020,0.150,55.556,105.556,105.556,775.000,330.556,L
247,0.030,1.865,0.110,186.111,116.667,119.444,797.222,22.222,L
248,0.015,1.800,0.205,83.333,105.556,119.444,800.000,2.778,L
249,-0.005,1.925,0.140,144.444,94.444,94.444,744.444,55.556,L
250,-0.165,1.930,-0.090,155.556,108.333,391.667,694.444,50.000,L
251,0.020,2.150,0.085,155.556,105.556,105.556,694.444,0.000,L
252,-0.105,0.880,0.440,105.556,86.111,311.111,455.556,238.889,V
253,-0.065,1.815,0.055,155.556,108.333,397.222,958.333,502.778,L
254,0.095,2.275,0.130,183.333,111.111,111.111,716.667,241.667,L
255,0.130,2.050,0.280,166.667,116.667,116.667,750.000,33.333,L
256,0.120,2.215,0.075,169.444,105.556,105.556,752.778,2.778,L
257,0.050,2.130,0.030,155.556,116.667,386.111,736.111,16.667,L
258,0.030,1.645,0.270,136.111,80.556,302.778,483.333,252.778,V
259,0.060,2.060,0.170,155.556,105.556,105.556,866.667,383.333,L
260,0.065,2.000,0.125,155.556,113.889,113.889,650.000,216.667,L
261,0.025,1.985,0.050,155.556,111.111,111.111,702.778,52.778,L
262,-0.030,1.845,0.140,150.000,116.667,116.667,691.667,11.111,L
263,0.000,2.025,0.035,166.667,105.556,105.556,722.222,30.556,L
264,0.065,2.115,0.105,177.778,108.333,108.333,705.556,16.667,L
265,-0.050,1.900,-0.025,175.000,111.111,111.111,730.556,25.000,L
266,0.005,1.370,0.040,166.667,116.667,119.444,694.444,36.111,L
267,-0.020,1.185,-0.040,58.333,116.667,116.667,688.889,5.556,L
268,-0.005,0.835,-0.005,55.556,113.889,113.889,655.556,33.333,L
269,-0.015,0.435,0.075,58.333,116.667,116.667,663.889,8.333,L
270,0.055,0.405,-0.005,58.333,116.667,116.667,716.667,52.778,L
271,0.360,1.575,-0.115,58.333,116.667,116.667,508.333,208.333,V
272,-0.020,1.390,0.005,194.444,113.889,113.889,1163.889,655.556,L
273,-0.080,1.210,-0.015,172.222,113.889,113.889,808.333,355.556,L
274,-0.110,1.220,-0.060,169.444,116.667,116.667,813.889,5.556,L
275,-0.145,1.195,-0.045,166.667,116.667,116.667,766.667,47.222,L
276,-0.170,1.500,-0.015,166.667,116.667,116.667,747.222,19.444,L
277,-0.155,1.235,-0.115,166.667,116.667,116.667,752.778,5.556,L
278,-0.035,-1.145,0.925,63.889,11.111,236.111,627.778,125.000,V
279,-0.095,0.685,-0.065,58.333,111.111,111.111,927.778,300.000,L
280,-0.215,1.310,-0.100,183.333,116.667,116.667,861.111,66.667,L
281,-0.165,1.690,-0.040,186.111,116.667,116.667,833.333,27.778,L
282,0.165,2.405,-0.245,58.333,116.667,386.111,488.889,344.444,V
283,-0.140,2.030,-0.030,136.111,116.667,116.667,1011.111,522.222,L
284,-0.125,2.015,-0.060,158.333,105.556,105.556,705.556,305.556,L
285,-0.090,2.095,-0.045,166.667,111.111,111.111,772.222,66.667,L
286,-0.110,1.840,0.030,191.667,113.889,113.889,777.778,5.556,L
287,-0.165,1.405,1.110,86.111,116.667,372.222,411.111,366.667,V
288,-0.275,1.910,-0.145,172.222,113.889,119.444,1200.000,788.889,L
289,-0.130,2.015,-0.045,186.111,116.667,116.667,833.333,366.667,L
290,-0.125,1.885,0.065,161.111,116.667,116.667,761.111,72.222,L
291,-0.130,1.855,-0.055,155.556,111.111,111.111,711.111,50.000,L
292,-0.060,1.980,0.070,155.556,105.556,105.556,716.667,5.556,L
293,-0.070,1.445,1.315,66.667,111.111,322.222,408.333,308.333,V
294,-0.110,2.000,0.085,152.778,108.333,108.333,1144.444,736.111,L
295,0.010,1.940,0.105,183.333,116.667,116.667,841.667,302.778,L
296,-0.115,2.025,-0.050,163.889,116.667,116.667,816.667,25.000,L
297,-0.095,1.785,-0.085,172.222,102.778,105.556,769.444,47.222,L
298,-0.130,1.760,-0.020,191.667,108.333,108.333,772.222,2.778,L
299,-0.130,1.840,-0.055,155.556,105.556,105.556,744.444,27.778,L
300,-0.160,1.950,-0.165,152.778,116.667,116.667,747.222,2.778,L
301,-0.090,1.985,-0.090,169.444,116.667,116.667,769.444,22.222,L
302,-0.090,1.960,0.015,175.000,108.333,108.333,822.222,52.778,L
303,-0.130,1.960,0.020,197.222,105.556,105.556,875.000,52.778,L
304,-0.115,2.015,0.005,66.667,116.667,116.667,900.000,25.000,L
305,-0.115,1.960,-0.025,166.667,116.667,116.667,816.667,83.333,L
306,-0.205,1.135,0.990,66.667,113.889,333.333,386.111,430.556,V
307,0.985,0.330,1.510,197.222,102.778,327.778,477.778,91.667,V
308,-0.210,1.820,-0.110,158.333,108.333,108.333,1413.889,936.111,L
309,-0.205,1.935,-0.140,144.444,100.000,380.556,819.444,594.444,L
310,-0.230,-0.315,1.510,175.000,100.000,194.444,680.556,138.889,|
311,-0.050,1.510,-0.245,180.556,102.778,394.444,141.667,538.889,L
312,-0.155,1.665,-0.155,177.778,116.667,405.556,811.111,669.444,L
313,-0.045,1.510,-0.100,180.556,116.667,116.667,816.667,5.556,L
314,-0.085,1.415,-0.110,188.889,108.333,108.333,775.000,41.667,L
315,-0.115,1.400,-0.005,161.111,105.556,111.111,736.111,38.889,L
316,-0.110,1.270,-0.070,172.222,116.667,116.667,730.556,5.556,L
317,-0.135,1.290,-0.050,191.667,108.333,108.333,802.778,72.222,L
318,-0.125,1.265,-0.090,183.333,116.667,116.667,808.333,5.556,L
319,-0.155,1.320,-0.095,172.222,100.000,105.556,808.333,0.000,L
320,-0.050,1.345,-0.030,166.667,116.667,116.667,791.667,16.667,L
321,-0.020,1.325,0.030,150.000,116.667,116.667,769.444,22.222,L
322,-0.060,1.325,0.060,172.222,116.667,116.667,719.444,50.000,L
323,-0.030,1.320,0.035,158.333,116.667,116.667,716.667,2.778,L
324,-0.020,1.485,0.045,169.444,116.667,116.667,697.222,19.444,L
325,-0.160,1.105,1.020,61.111,108.333,322.222,391.667,305.556,V
326,-0.200,1.260,0.005,180.556,111.111,111.111,1055.556,663.889,L
327,-0.115,1.435,0.050,175.000,108.333,108.333,794.444,261.111,L
328,-0.160,1.060,1.030,77.778,102.778,377.778,416.667,377.778,V
329,-0.155,1.520,-0.035,177.778,116.667,116.667,1080.556,663.889,L
330,-0.085,1.525,0.685,166.667,100.000,388.889,691.667,388.889,L
331,-0.130,1.160,1.020,61.111,100.000,325.000,363.889,327.778,V
332,-0.155,1.435,-0.035,163.889,108.333,108.333,1016.667,652.778,L
333,-0.095,1.405,0.045,147.222,113.889,113.889,733.333,283.333,L
334,-0.145,1.130,1.050,61.111,108.333,363.889,411.111,322.222,V
335,-0.210,1.515,-0.030,183.333,116.667,116.667,1161.111,750.000,L
336,-0.145,1.470,0.100,191.667,111.111,111.111,855.556,305.556,L
337,-0.140,1.555,0.035,169.444,116.667,119.444,827.778,27.778,L
338,-0.125,1.460,0.010,147.222,111.111,111.111,727.778,100.000,L
339,-0.120,1.515,-0.005,158.333,108.333,108.333,744.444,16.667,L
340,-0.095,1.540,0.075,158.333,108.333,108.333,750.000,5.556,L
341,-0.070,1.665,0.135,191.667,111.111,111.111,819.444,69.444,L
342,-0.065,1.580,0.115,172.222,111.111,111.111,863.889,44.444,L
343,-0.075,1.645,0.095,183.333,111.111,111.111,858.333,5.556,L
344,-0.035,1.510,1.095,97.222,113.889,369.444,433.333,425.000,V
345,-0.005,1.680,0.105,163.889,113.889,113.889,1300.000,866.667,L
346,0.000,1.595,0.120,161.111,113.889,113.889,783.333,516.667,L
347,-0.015,1.640,0.140,172.222,105.556,105.556,791.667,8.333,L
348,-0.035,1.260,0.255,147.222,91.667,336.111,475.000,316.667,V
349,-0.015,1.705,0.155,177.778,111.111,111.111,1263.889,788.889,L
350,-0.055,1.845,0.055,177.778,108.333,108.333,897.222,366.667,L
351,-0.010,1.710,0.105,180.556,111.111,111.111,869.444,27.778,L
352,-0.010,1.785,0.155,166.667,116.667,116.667,805.556,63.889,L
353,-0.015,1.340,1.045,61.111,111.111,338.889,397.222,408.333,V
354,-0.075,2.100,0.010,180.556,113.889,113.889,1200.000,802.778,L
355,-0.010,1.880,0.105,180.556,113.889,113.889,786.111,413.889,L
356,-0.010,2.130,0.095,172.222,116.667,116.667,822.222,36.111,L
357,0.035,2.180,0.170,186.111,108.333,111.111,830.556,8.333,L
358,0.065,2.190,0.255,180.556,116.667,116.667,894.444,63.889,L
359,0.030,2.185,0.025,152.778,116.667,116.667,822.222,72.222,L
360,0.025,2.195,0.095,158.333,108.333,108.333,772.222,50.000,L
361,0.005,2.020,0.065,180.556,113.889,113.889,788.889,16.667,L
362,-0.055,2.185,0.025,186.111,105.556,108.333,822.222,33.333,L
363,0.025,2.120,0.130,166.667,116.667,116.667,830.556,8.333,L
364,0.005,1.935,0.210,177.778,113.889,113.889,844.444,13.889,L
365,-0.020,1.910,0.115,169.444,113.889,113.889,852.778,8.333,L
366,-0.020,1.865,0.125,180.556,108.333,108.333,863.889,11.111,L
367,-0.010,1.990,0.030,161.111,116.667,116.667,786.111,77.778,L
368,0.005,2.015,0.045,158.333,111.111,111.111,713.889,72.222,L
369,-0.035,1.940,0.030,186.111,116.667,116.667,741.667,27.778,L
370,-0.080,1.785,0.010,180.556,111.111,111.111,811.111,69.444,L
371,-0.120,2.010,-0.005,163.889,113.889,113.889,816.667,5.556,L
372,-0.135,1.885,0.035,188.889,116.667,116.667,841.667,25.000,L
373,-0.140,1.780,-0.005,186.111,116.667,119.444,850.000,8.333,L
374,-0.135,1.795,0.005,175.000,111.111,111.111,788.889,61.111,L
375,-0.095,1.945,0.060,172.222,105.556,108.333,797.222,8.333,L
376,-0.110,1.710,0.035,172.222,102.778,102.778,780.556,16.667,L
377,-0.095,2.005,-0.015,177.778,100.000,100.000,794.444,13.889,L
378,-0.095,1.155,0.385,158.333,94.444,352.778,494.444,300.000,V
379,0.205,0.410,1.215,197.222,88.889,344.444,527.778,33.333,V
380,-0.150,2.025,-0.010,66.667,113.889,113.889,1544.444,1016.667,L
381,-0.170,1.720,-0.125,188.889,108.333,108.333,841.667,702.778,L
382,-0.245,-0.645,0.585,166.667,2.778,211.111,502.778,338.889,V
383,-0.090,1.745,-0.090,144.444,113.889,394.444,1033.333,530.556,L
384,-0.105,1.820,0.020,152.778,102.778,102.778,791.667,241.667,L
385,-0.125,1.685,0.025,155.556,105.556,105.556,752.778,38.889,L
386,-0.115,1.700,0.020,175.000,108.333,108.333,769.444,16.667,L
387,-0.120,1.755,0.025,183.333,116.667,116.667,811.111,41.667,L
388,-0.045,1.870,0.075,158.333,105.556,105.556,825.000,13.889,L
389,-0.085,1.930,-0.005,150.000,105.556,105.556,758.333,66.667,L
390,-0.055,1.880,-0.035,141.667,111.111,111.111,691.667,66.667,L
391,-0.045,1.875,0.055,166.667,102.778,102.778,725.000,33.333,L
392,-0.100,1.800,0.055,152.778,113.889,113.889,750.000,25.000,L
393,-0.090,1.920,0.095,186.111,108.333,108.333,816.667,66.667,L
394,-0.090,1.895,0.140,191.667,111.111,111.111,861.111,44.444,L
395,-0.125,1.845,0.070,155.556,105.556,105.556,841.667,19.444,L
396,-0.155,1.880,0.050,183.333,111.111,111.111,877.778,36.111,L
397,-0.150,1.900,0.005,172.222,111.111,111.111,825.000,52.778,L
398,-0.075,1.865,-0.030,158.333,102.778,102.778,766.667,58.333,L
399,-0.100,1.250,1.150,69.444,116.667,358.333,394.444,372.222,V
400,-0.150,2.030,0.095,169.444,111.111,111.111,1319.444,925.000,Q
401,-0.105,-0.130,-0.095,161.111,47.222,75.000,675.000,644.444,""""
402,0.545,1.885,0.510,58.333,116.667,116.667,811.111,136.111,Q
403,-0.110,1.880,0.055,169.444,116.667,116.667,1361.111,550.000,L
404,-0.105,1.955,0.050,158.333,102.778,102.778,791.667,569.444,L
405,-0.085,1.950,0.120,169.444,105.556,105.556,794.444,2.778,L
406,-0.125,1.915,0.025,188.889,102.778,102.778,852.778,58.333,L
407,-0.125,1.880,0.080,197.222,113.889,113.889,891.667,38.889,L
408,-0.150,1.185,1.105,66.667,116.667,361.111,402.778,488.889,V
409,-0.165,1.960,-0.075,152.778,105.556,105.556,1319.444,916.667,L
410,-0.100,1.820,0.050,175.000,108.333,108.333,838.889,480.556,L
411,-0.115,1.875,-0.005,158.333,102.778,102.778,797.222,41.667,L
412,-0.155,1.320,1.205,69.444,113.889,336.111,383.333,413.889,V
413,-0.140,1.855,-0.050,152.778,116.667,116.667,1130.556,747.222,L
414,-0.065,1.885,0.150,169.444,116.667,116.667,783.333,347.222,L
415,-0.045,2.050,0.115,163.889,111.111,111.111,844.444,61.111,L
416,-0.085,1.950,-0.040,161.111,108.333,108.333,816.667,27.778,L
417,-0.115,1.900,-0.015,138.889,105.556,108.333,791.667,25.000,L
418,-0.115,1.850,-0.045,161.111,111.111,111.111,788.889,2.778,L
419,-0.115,1.705,-0.040,161.111,111.111,111.111,766.667,22.222,L
420,-0.175,1.815,-0.100,163.889,111.111,111.111,752.778,13.889,L
421,-0.140,1.875,-0.025,172.222,108.333,108.333,775.000,22.222,L
422,0.265,2.370,-0.265,58.333,116.667,388.889,483.333,291.667,V
423,-0.100,1.980,0.040,172.222,116.667,116.667,1166.667,683.333,L
424,-0.045,2.090,0.075,180.556,111.111,111.111,861.111,305.556,L
425,-0.070,2.080,0.055,166.667,105.556,105.556,838.889,22.222,L
426,-0.105,2.075,0.025,144.444,113.889,113.889,741.667,97.222,L
427,-0.035,2.180,0.055,133.333,100.000,100.000,752.778,11.111,L
428,-0.125,2.010,-0.025,152.778,105.556,105.556,772.222,19.444,L
429,-0.135,1.920,0.060,158.333,102.778,105.556,800.000,27.778,L
430,-0.130,1.920,0.075,180.556,113.889,113.889,825.000,25.000,L
431,-0.180,1.925,0.040,172.222,105.556,105.556,825.000,0.000,L
432,-0.115,1.965,0.100,163.889,113.889,113.889,875.000,50.000,L
433,-0.155,1.845,0.000,169.444,116.667,116.667,838.889,36.111,L
434,-0.115,1.810,0.050,144.444,100.000,100.000,758.333,80.556,L
435,-0.175,0.935,1.205,58.333,108.333,325.000,380.556,377.778,V
436,1.140,-0.255,1.380,191.667,69.444,363.889,483.333,102.778,V
437,0.985,1.315,0.910,63.889,111.111,308.333,338.889,144.444,V
438,-0.220,1.770,-0.005,197.222,113.889,113.889,1505.556,1166.667,L
439,-0.175,1.660,0.030,183.333,105.556,105.556,847.222,658.333,L
440,-0.170,1.855,0.015,169.444,105.556,105.556,822.222,25.000,L
441,-0.220,1.800,-0.085,169.444,105.556,105.556,783.333,38.889,L
442,-0.190,1.905,-0.210,136.111,116.667,375.000,744.444,38.889,L
443,-0.210,1.380,0.020,141.667,94.444,313.889,458.333,286.111,V
444,-0.165,1.695,-0.130,172.222,108.333,108.333,1000.000,541.667,L
445,-0.130,1.595,-0.060,194.444,111.111,111.111,769.444,230.556,L
446,-0.245,1.315,-0.080,94.444,102.778,375.000,566.667,202.778,V
447,-0.260,1.485,-0.080,188.889,111.111,111.111,1063.889,497.222,L
448,-0.210,1.450,-0.090,169.444,116.667,116.667,797.222,266.667,L
449,-0.285,1.110,0.115,141.667,88.889,297.222,488.889,308.333,V
450,-0.275,1.800,-0.215,169.444,105.556,105.556,975.000,486.111,L
451,-0.190,1.595,-0.100,166.667,102.778,102.778,713.889,261.111,L
452,-0.250,1.630,-0.120,166.667,111.111,111.111,733.333,19.444,L
453,-0.175,1.830,0.000,147.222,113.889,113.889,716.667,16.667,L
454,-0.120,1.860,-0.005,186.111,116.667,116.667,769.444,52.778,L
455,-0.165,1.790,0.005,177.778,105.556,105.556,763.889,5.556,L
456,-0.190,0.845,0.335,113.889,97.222,338.889,527.778,236.111,V
457,-0.170,1.795,-0.130,155.556,105.556,105.556,1075.000,547.222,L
458,-0.165,1.640,0.740,163.889,116.667,405.556,697.222,377.778,L
459,-0.205,1.095,1.190,58.333,113.889,330.556,358.333,338.889,V
460,-0.160,1.905,0.020,177.778,113.889,113.889,1155.556,797.222,L
461,-0.155,1.660,0.095,155.556,108.333,108.333,794.444,361.111,L
462,-0.030,1.855,0.035,172.222,108.333,108.333,816.667,22.222,L
463,-0.020,1.910,0.170,180.556,113.889,113.889,805.556,11.111,L
464,0.020,1.925,0.160,172.222,116.667,116.667,808.333,2.778,L
465,0.030,1.740,0.205,158.333,105.556,105.556,786.111,22.222,L
466,-0.030,1.965,0.105,158.333,102.778,102.778,783.333,2.778,L
467,-0.060,1.900,0.120,169.444,102.778,102.778,775.000,8.333,L
468,-0.085,1.835,0.210,175.000,108.333,108.333,791.667,16.667,L
469,-0.010,1.955,0.295,63.889,111.111,111.111,922.222,130.556,L
470,-0.005,2.050,0.320,58.333,111.111,111.111,927.778,5.556,L
471,0.050,1.965,0.275,186.111,116.667,116.667,877.778,50.000,L
472,0.015,2.100,0.070,169.444,116.667,116.667,833.333,44.444,L
473,0.120,2.175,0.060,166.667,102.778,322.222,783.333,50.000,L
474,0.060,1.750,1.360,116.667,102.778,352.778,394.444,388.889,V
475,0.070,1.970,0.135,180.556,111.111,388.889,1333.333,938.889,L
476,0.000,1.435,0.085,169.444,116.667,116.667,869.444,463.889,L
477,-0.135,1.535,-0.050,197.222,88.889,108.333,966.667,97.222,L
478,-0.010,1.940,0.215,180.556,83.333,91.667,897.222,69.444,L
479,0.045,1.810,0.105,172.222,108.333,108.333,777.778,119.444,L
480,0.005,2.055,0.070,158.333,108.333,108.333,750.000,27.778,L
481,0.025,1.950,0.065,175.000,111.111,111.111,736.111,13.889,L
482,0.000,1.970,0.100,177.778,108.333,108.333,766.667,30.556,L
483,-0.040,2.170,0.055,172.222,108.333,108.333,780.556,13.889,L
484,-0.025,1.975,0.000,169.444,116.667,116.667,797.222,16.667,L
485,-0.070,2.145,0.030,191.667,116.667,116.667,797.222,0.000,L
486,-0.045,1.970,0.025,172.222,105.556,105.556,822.222,25.000,L
487,-0.080,1.925,0.030,155.556,105.556,105.556,730.556,91.667,L
488,-0.040,1.925,0.070,172.222,111.111,111.111,691.667,38.889,L
489,-0.020,1.845,0.090,186.111,105.556,105.556,725.000,33.333,L
490,-0.115,1.860,0.065,175.000,111.111,111.111,755.556,30.556,L
491,-0.120,1.850,0.095,194.444,113.889,113.889,838.889,83.333,L
492,-0.125,1.830,0.035,177.778,113.889,113.889,866.667,27.778,L
493,-0.155,1.780,0.015,152.778,116.667,116.667,852.778,13.889,L
494,-0.175,1.815,-0.015,180.556,105.556,105.556,833.333,19.444,L
495,-0.180,1.805,-0.045,163.889,111.111,111.111,813.889,19.444,L
496,-0.190,1.225,1.130,52.778,105.556,325.000,391.667,422.222,V
497,-0.255,1.830,-0.070,158.333,111.111,111.111,1222.222,830.556,L
498,-0.180,1.815,0.055,183.333,116.667,116.667,855.556,366.667,L
499,-0.105,2.015,0.180,175.000,111.111,111.111,911.111,55.556,L
500,0.020,1.305,0.925,58.333,97.222,361.111,572.222,338.889,V
501,-0.125,2.290,-0.040,61.111,113.889,113.889,1213.889,641.667,L
502,-0.075,2.050,0.085,172.222,116.667,116.667,825.000,388.889,L
503,-0.115,2.345,0.010,161.111,102.778,102.778,805.556,19.444,L
504,-0.060,2.295,0.025,180.556,116.667,116.667,822.222,16.667,L
505,-0.050,2.240,0.040,183.333,111.111,111.111,844.444,22.222,L
506,-0.095,2.340,-0.005,180.556,116.667,116.667,869.444,25.000,L
507,-0.030,2.225,0.100,188.889,111.111,111.111,911.111,41.667,L
508,-0.075,2.300,-0.035,163.889,108.333,108.333,888.889,22.222,L
509,-0.085,2.215,0.065,163.889,113.889,402.778,786.111,102.778,L
510,-0.100,1.890,1.245,61.111,102.778,336.111,380.556,405.556,V
511,-0.180,2.230,-0.155,177.778,111.111,111.111,1297.222,916.667,L
512,-0.135,2.085,-0.095,197.222,116.667,116.667,872.222,425.000,L
513,-0.195,2.045,-0.070,158.333,108.333,108.333,877.778,5.556,L
514,-0.125,2.020,-0.100,191.667,108.333,108.333,863.889,13.889,L
515,-0.130,1.970,-0.030,177.778,105.556,105.556,833.333,30.556,L
516,-0.165,2.120,-0.125,175.000,108.333,108.333,802.778,30.556,L
517,-0.130,1.955,-0.095,163.889,116.667,116.667,758.333,44.444,L
518,-0.185,1.965,-0.095,136.111,105.556,108.333,786.111,27.778,L
519,-0.210,0.435,1.585,52.778,100.000,375.000,552.778,233.333,V
520,-0.220,2.055,-0.085,166.667,116.667,116.667,1230.556,677.778,L
521,-0.145,2.145,-0.040,175.000,113.889,113.889,872.222,358.333,L
522,-0.130,2.130,-0.060,166.667,116.667,116.667,825.000,47.222,L
523,-0.145,1.700,1.160,63.889,113.889,322.222,433.333,391.667,V
524,-0.135,2.320,-0.065,150.000,113.889,113.889,1116.667,683.333,L
525,-0.085,2.095,-0.020,144.444,97.222,97.222,794.444,322.222,L
526,-0.110,2.310,0.000,166.667,108.333,108.333,783.333,11.111,L
527,-0.075,2.155,0.025,183.333,116.667,116.667,805.556,22.222,L
528,-0.100,2.210,0.105,180.556,116.667,116.667,897.222,91.667,L
529,-0.075,2.160,0.050,183.333,116.667,116.667,869.444,27.778,L
530,-0.080,2.090,0.015,152.778,108.333,108.333,802.778,66.667,L
531,-0.070,2.225,0.075,150.000,102.778,102.778,788.889,13.889,L
532,-0.070,2.110,0.050,183.333,111.111,111.111,805.556,16.667,L
533,-0.100,2.165,0.060,186.111,116.667,116.667,855.556,50.000,L
534,-0.145,2.120,-0.010,180.556,111.111,111.111,877.778,22.222,L
535,0.015,2.220,0.025,58.333,102.778,108.333,844.444,33.333,L
536,-0.100,-0.970,0.100,163.889,2.778,347.222,505.556,338.889,|
537,-0.150,1.775,-0.200,194.444,116.667,116.667,386.111,119.444,L
538,-0.065,1.740,-0.090,172.222,105.556,105.556,825.000,438.889,L
539,-0.130,1.655,1.035,61.111,105.556,341.667,405.556,419.444,V
540,-0.215,1.605,-0.150,147.222,116.667,394.444,1136.111,730.556,L
541,-0.150,1.580,-0.060,158.333,111.111,111.111,797.222,338.889,L
542,-0.150,1.630,-0.055,175.000,113.889,113.889,816.667,19.444,L
543,-0.140,1.460,0.010,180.556,116.667,116.667,852.778,36.111,L
544,-0.145,1.620,0.000,186.111,116.667,116.667,822.222,30.556,L
545,-0.205,1.605,-0.100,163.889,116.667,116.667,761.111,61.111,L
546,-0.165,1.735,-0.065,163.889,113.889,113.889,733.333,27.778,L
547,-0.105,1.570,-0.030,152.778,116.667,116.667,705.556,27.778,L
548,-0.195,1.780,-0.110,144.444,113.889,113.889,694.444,11.111,L
549,0.365,2.470,-0.325,58.333,116.667,397.222,466.667,227.778,V
550,-0.140,1.900,-0.080,180.556,116.667,116.667,936.111,469.444,L
551,-0.110,1.790,-0.055,186.111,105.556,105.556,722.222,213.889,L
552,-0.165,1.765,-0.055,188.889,111.111,111.111,766.667,44.444,L
553,-0.105,1.705,-0.025,163.889,116.667,116.667,777.778,11.111,L
554,-0.105,1.685,-0.060,152.778,102.778,102.778,719.444,58.333,L
555,-0.075,1.865,0.000,158.333,102.778,102.778,688.889,30.556,L
556,-0.005,1.870,0.070,166.667,113.889,113.889,741.667,52.778,L
557,-0.025,1.840,0.055,166.667,116.667,116.667,783.333,41.667,L
558,-0.070,1.670,0.010,161.111,108.333,108.333,813.889,30.556,L
559,-0.125,1.635,0.030,177.778,111.111,111.111,850.000,36.111,L
560,-0.140,1.595,0.035,180.556,113.889,113.889,866.667,16.667,L
561,-0.125,1.745,-0.015,169.444,108.333,108.333,861.111,5.556,L
562,-0.150,1.635,1.030,72.222,113.889,325.000,413.889,447.222,V
563,-0.230,1.625,-0.115,152.778,113.889,113.889,1202.778,788.889,L
564,-0.110,1.730,0.035,191.667,113.889,113.889,822.222,380.556,L
565,-0.100,1.805,0.025,186.111,113.889,113.889,888.889,66.667,L
566,-0.135,1.395,0.170,158.333,102.778,355.556,505.556,383.333,V
567,-0.125,1.670,-0.025,177.778,111.111,111.111,1238.889,733.333,L
568,-0.070,1.630,-0.030,177.778,113.889,113.889,836.111,402.778,L
569,-0.045,1.770,0.055,150.000,111.111,111.111,777.778,58.333,L
570,-0.020,2.270,0.010,147.222,111.111,111.111,738.889,38.889,L
571,-0.015,2.165,-0.055,177.778,113.889,113.889,730.556,8.333,L
572,-0.080,2.095,-0.075,175.000,108.333,108.333,747.222,16.667,L
573,0.650,2.480,-0.340,58.333,116.667,116.667,563.889,183.333,V
574,-0.085,1.990,-0.040,183.333,116.667,119.444,1194.444,630.556,L
575,-0.110,1.660,-0.085,169.444,116.667,116.667,883.333,311.111,L
576,-0.125,1.700,-0.035,175.000,111.111,111.111,844.444,38.889,L
577,-0.140,1.590,-0.010,166.667,116.667,116.667,791.667,52.778,L
578,-0.125,1.770,0.135,177.778,83.333,91.667,794.444,2.778,L
579,-0.080,1.765,0.035,172.222,105.556,105.556,841.667,47.222,L
580,-0.075,1.635,1.235,58.333,113.889,366.667,436.111,405.556,V
581,-0.125,1.965,-0.005,158.333,111.111,111.111,1266.667,830.556,L
582,-0.090,1.860,0.030,197.222,113.889,113.889,908.333,358.333,L
583,-0.110,1.905,-0.015,169.444,113.889,113.889,816.667,91.667,L
584,-0.130,1.710,-0.045,188.889,105.556,105.556,722.222,94.444,L
585,-0.180,1.910,-0.130,161.111,105.556,105.556,733.333,11.111,L
586,-0.225,1.380,0.070,141.667,83.333,327.778,452.778,280.556,V
587,-0.195,1.975,-0.020,191.667,116.667,116.667,1136.111,683.333,L
588,-0.155,1.785,0.040,194.444,111.111,111.111,866.667,269.444,L
589,-0.110,2.040,-0.100,150.000,111.111,122.222,819.444,47.222,L
590,-0.320,-0.945,0.100,108.333,0.000,347.222,450.000,369.444,|
591,-0.190,1.425,-0.200,125.000,108.333,400.000,377.778,72.222,L
592,-0.105,1.770,-0.100,172.222,105.556,105.556,763.889,386.111,L
593,-0.105,1.620,-0.125,161.111,108.333,108.333,738.889,25.000,L
594,-0.195,-2.380,1.705,163.889,8.333,272.222,458.333,280.556,V
595,-0.225,1.415,-0.170,166.667,116.667,116.667,1063.889,605.556,L
596,-0.160,1.475,-0.050,188.889,116.667,116.667,805.556,258.333,L
597,-0.155,1.580,0.075,186.111,91.667,102.778,830.556,25.000,L
598,-0.135,1.730,-0.025,188.889,108.333,108.333,802.778,27.778,L
599,-0.145,1.730,-0.105,161.111,113.889,113.889,741.667,61.111,L
600,-0.110,1.815,-0.070,161.111,108.333,108.333,716.667,25.000,L
601,-0.085,1.940,-0.065,144.444,116.667,116.667,697.222,19.444,L
602,-0.030,2.005,0.000,177.778,113.889,113.889,716.667,19.444,L
603,-0.040,1.915,0.070,175.000,108.333,108.333,713.889,2.778,L
604,0.580,2.545,-0.290,58.333,116.667,402.778,533.333,180.556,V
605,-0.035,2.025,0.050,183.333,113.889,113.889,1008.333,475.000,L
606,-0.050,1.710,0.065,194.444,111.111,111.111,811.111,197.222,L
607,-0.125,1.865,-0.010,169.444,116.667,116.667,794.444,16.667,L
608,-0.130,1.970,0.360,177.778,111.111,400.000,722.222,72.222,L
609,-0.185,1.480,1.195,63.889,116.667,325.000,372.222,350.000,V
610,-0.185,1.925,-0.135,175.000,102.778,105.556,1141.667,769.444,L
611,-0.210,1.730,-0.110,177.778,111.111,111.111,769.444,372.222,L
612,-0.185,1.805,-0.100,186.111,116.667,119.444,808.333,38.889,L
613,-0.205,1.860,-0.065,186.111,116.667,116.667,833.333,25.000,L
614,-0.205,1.840,-0.035,197.222,105.556,105.556,836.111,2.778,L
615,-0.170,1.795,-0.005,180.556,113.889,113.889,808.333,27.778,L
616,-0.180,1.710,-0.050,175.000,108.333,108.333,758.333,50.000,L
617,-0.180,1.895,-0.065,161.111,111.111,111.111,738.889,19.444,L
618,-0.175,1.870,0.030,177.778,111.111,111.111,816.667,77.778,L
619,-0.215,1.925,-0.075,180.556,113.889,113.889,886.111,69.444,L
620,-0.190,1.870,-0.100,183.333,100.000,100.000,886.111,0.000,L
621,-0.185,1.830,0.005,175.000,108.333,108.333,858.333,27.778,L
622,-0.185,2.095,-0.070,169.444,105.556,105.556,877.778,19.444,L
623,-0.225,2.185,-0.155,166.667,116.667,116.667,813.889,63.889,L
624,-0.205,1.960,-0.145,169.444,116.667,116.667,819.444,5.556,L
625,-0.230,1.870,-0.125,175.000,108.333,108.333,838.889,19.444,L
626,-0.135,1.970,0.095,191.667,108.333,108.333,866.667,27.778,L
627,-0.185,1.465,1.220,72.222,116.667,386.111,463.889,402.778,V
628,-0.265,2.040,-0.190,161.111,111.111,111.111,1388.889,925.000,L
629,-0.090,1.600,0.885,58.333,94.444,341.667,555.556,833.333,V
630,-0.235,1.990,-0.200,158.333,105.556,105.556,1041.667,486.111,L
631,-0.285,1.995,-0.250,158.333,108.333,108.333,750.000,291.667,L
632,-0.285,1.830,-0.300,158.333,111.111,111.111,769.444,19.444,L
633,-0.280,1.780,-0.245,175.000,116.667,116.667,780.556,11.111,L
634,-0.265,1.980,-0.140,177.778,113.889,113.889,788.889,8.333,L
635,-0.060,2.085,-0.180,188.889,116.667,116.667,827.778,38.889,L
636,-0.280,-1.020,1.650,105.556,0.000,347.222,469.444,358.333,|
637,-0.160,1.625,-0.170,175.000,116.667,400.000,344.444,125.000,L
638,-0.085,1.785,-0.080,152.778,111.111,111.111,763.889,419.444,L
639,-0.140,1.295,0.870,75.000,88.889,316.667,388.889,375.000,V
640,-0.335,1.695,-0.275,130.556,113.889,116.667,1061.111,672.222,L
641,-0.230,1.665,-0.240,163.889,111.111,111.111,761.111,300.000,L
642,-0.260,1.660,-0.245,175.000,111.111,113.889,794.444,33.333,L
643,-0.245,1.580,-0.165,186.111,102.778,108.333,780.556,13.889,L
644,-0.235,1.630,-0.185,180.556,113.889,113.889,758.333,22.222,L
645,-0.250,1.535,-0.205,191.667,108.333,108.333,777.778,19.444,L
646,-0.280,1.700,-0.270,163.889,105.556,105.556,727.778,50.000,L
647,-0.270,1.685,-0.285,175.000,111.111,111.111,688.889,38.889,L
648,-0.285,1.580,-0.285,155.556,116.667,116.667,663.889,25.000,L
649,0.290,2.225,-0.435,58.333,116.667,405.556,483.333,180.556,V
650,-0.240,1.740,-0.155,188.889,116.667,116.667,950.000,466.667,L
651,-0.175,1.530,-0.015,188.889,111.111,111.111,772.222,177.778,L
652,-0.195,1.640,-0.085,175.000,105.556,105.556,763.889,8.333,L
653,-0.230,1.965,-0.195,169.444,116.667,116.667,744.444,19.444,L
654,-0.200,1.745,-0.185,191.667,113.889,113.889,705.556,38.889,L
655,-0.195,1.800,-0.230,169.444,116.667,116.667,711.111,5.556,L
656,-0.245,1.635,-0.205,155.556,105.556,108.333,683.333,27.778,L
657,-0.255,1.730,-0.210,147.222,111.111,111.111,727.778,44.444,L
658,-0.260,1.545,-0.170,163.889,116.667,116.667,769.444,41.667,L
659,-0.250,1.550,-0.135,161.111,108.333,108.333,808.333,38.889,L
660,-0.220,1.565,-0.105,175.000,116.667,116.667,863.889,55.556,L
661,-0.220,1.370,-0.110,172.222,108.333,108.333,869.444,5.556,L
662,-0.205,1.600,-0.140,166.667,113.889,113.889,775.000,94.444,L
663,-0.180,1.480,-0.070,172.222,116.667,116.667,738.889,36.111,L
664,-0.150,1.515,0.005,183.333,116.667,116.667,780.556,41.667,L
665,-0.125,1.600,0.045,166.667,113.889,113.889,763.889,16.667,L
666,-0.125,1.560,0.040,158.333,111.111,111.111,780.556,16.667,L
667,-0.150,1.525,0.000,172.222,108.333,108.333,794.444,13.889,L
668,-0.150,1.550,-0.015,175.000,108.333,108.333,788.889,5.556,L
669,-0.085,1.655,0.005,166.667,102.778,102.778,775.000,13.889,L
670,-0.095,1.865,-0.020,163.889,108.333,108.333,741.667,33.333,L
671,-0.065,1.775,-0.005,155.556,105.556,105.556,680.556,61.111,L
672,-0.110,1.340,0.295,122.222,75.000,297.222,444.444,236.111,V
673,-0.055,2.155,0.035,163.889,108.333,108.333,975.000,530.556,L
674,0.015,2.000,0.025,180.556,113.889,113.889,786.111,188.889,L
675,-0.025,1.965,0.060,180.556,113.889,113.889,783.333,2.778,L
676,-0.045,2.065,0.080,194.444,111.111,111.111,763.889,19.444,L
677,-0.005,2.170,0.035,166.667,116.667,116.667,755.556,8.333,L
678,-0.015,1.595,0.350,138.889,86.111,311.111,455.556,300.000,V
679,-0.080,2.190,-0.085,141.667,113.889,394.444,972.222,516.667,L
680,-0.045,1.885,-0.065,188.889,116.667,116.667,711.111,261.111,L
681,-0.030,2.010,-0.035,161.111,111.111,111.111,738.889,27.778,L
682,-0.065,2.160,0.020,180.556,111.111,111.111,750.000,11.111,L
683,-0.005,2.340,0.020,186.111,116.667,116.667,841.667,91.667,L
684,-0.030,1.640,0.290,141.667,100.000,338.889,505.556,336.111,V
685,0.000,2.145,0.010,161.111,108.333,108.333,1136.111,630.556,L
686,-0.035,2.160,0.020,158.333,105.556,105.556,747.222,388.889,L
687,-0.020,2.225,-0.020,169.444,116.667,119.444,744.444,2.778,L
688,0.000,2.135,0.030,172.222,113.889,113.889,769.444,25.000,L
689,-0.090,2.230,0.030,177.778,108.333,108.333,805.556,36.111,L
690,-0.085,1.160,0.385,147.222,88.889,330.556,488.889,316.667,V
691,-0.055,2.050,0.005,175.000,105.556,108.333,1125.000,636.111,L
692,-0.125,2.075,0.010,194.444,108.333,108.333,883.333,241.667,L
693,-0.145,1.225,0.315,188.889,83.333,319.444,516.667,366.667,V
694,-0.065,2.035,-0.010,152.778,111.111,111.111,997.222,480.556,L
695,-0.080,1.920,-0.040,161.111,113.889,113.889,725.000,272.222,L
696,-0.145,1.540,0.210,150.000,88.889,311.111,486.111,238.889,V
697,-0.105,2.170,-0.125,175.000,108.333,108.333,1038.889,552.778,L
698,0.045,1.700,0.000,175.000,100.000,375.000,783.333,255.556,L
699,-0.065,1.795,-0.080,155.556,102.778,361.111,536.111,247.222,V
700,-0.090,1.765,-0.020,172.222,111.111,116.667,1000.000,463.889,L
701,-0.030,1.735,-0.050,180.556,113.889,113.889,758.333,241.667,L
702,-0.130,1.735,-0.095,158.333,105.556,108.333,694.444,63.889,L
703,-0.145,1.530,-0.140,144.444,108.333,108.333,669.444,25.000,L
704,-0.130,1.630,-0.115,155.556,116.667,116.667,697.222,27.778,L
705,-0.150,1.335,0.115,133.333,91.667,311.111,488.889,208.333,V
706,-0.250,1.770,-0.250,166.667,116.667,116.667,983.333,494.444,L
707,-0.170,1.775,-0.175,194.444,113.889,113.889,780.556,202.778,L
708,-0.295,1.850,-0.315,158.333,108.333,108.333,747.222,33.333,L
709,-0.250,1.925,-0.265,180.556,116.667,358.333,691.667,55.556,L
710,-0.215,1.825,-0.240,166.667,116.667,119.444,669.444,22.222,L
711,-0.265,1.265,0.095,125.000,88.889,313.889,475.000,194.444,V
712,-0.220,2.100,-0.205,180.556,113.889,113.889,919.444,444.444,L
713,-0.150,1.910,-0.095,161.111,108.333,108.333,680.556,238.889,L
714,-0.145,2.020,-0.045,180.556,111.111,111.111,736.111,55.556,L
715,-0.180,2.300,-0.145,175.000,105.556,111.111,744.444,8.333,L
716,-0.175,2.140,-0.220,183.333,116.667,116.667,777.778,33.333,L
717,-0.235,1.580,0.015,194.444,102.778,341.667,541.667,236.111,V
718,-0.235,2.090,-0.245,166.667,116.667,358.333,955.556,413.889,L
719,-0.245,1.835,-0.195,158.333,113.889,402.778,680.556,275.000,L
720,-0.285,1.525,1.100,80.556,113.889,358.333,386.111,294.444,V
721,-0.290,1.825,-0.255,175.000,113.889,394.444,1127.778,741.667,L
722,-0.225,1.710,-0.175,169.444,113.889,113.889,786.111,341.667,L
723,-0.180,1.855,-0.065,166.667,116.667,116.667,802.778,16.667,L
724,0.020,1.870,0.090,161.111,111.111,111.111,811.111,8.333,L
725,0.080,1.980,0.130,172.222,105.556,105.556,813.889,2.778,L
726,0.145,1.945,0.155,150.000,116.667,116.667,744.444,69.444,L
727,0.235,2.145,0.275,180.556,113.889,113.889,713.889,30.556,L
728,0.275,2.050,0.335,161.111,108.333,108.333,711.111,2.778,L
729,0.250,2.015,0.335,197.222,116.667,116.667,777.778,66.667,L
730,0.225,1.855,0.340,180.556,111.111,111.111,825.000,47.222,L
731,0.215,1.870,0.300,163.889,116.667,116.667,838.889,13.889,L
732,0.210,1.820,0.235,166.667,116.667,116.667,783.333,55.556,L
733,0.210,1.875,0.175,166.667,116.667,375.000,750.000,33.333,L
734,0.240,1.940,0.225,186.111,105.556,105.556,705.556,44.444,L
735,0.200,1.760,0.205,163.889,116.667,116.667,694.444,11.111,L
736,0.190,1.820,0.255,172.222,116.667,116.667,688.889,5.556,L
737,0.155,1.865,0.205,169.444,116.667,116.667,697.222,8.333,L
738,0.175,1.660,0.370,177.778,83.333,94.444,741.667,44.444,L
739,0.155,1.830,0.330,177.778,111.111,111.111,800.000,58.333,L
740,0.130,1.820,0.320,191.667,113.889,113.889,766.667,33.333,L
741,0.115,1.905,0.255,194.444,113.889,113.889,705.556,61.111,L
742,0.115,1.905,0.155,166.667,116.667,116.667,669.444,36.111,L
743,0.025,1.730,0.090,152.778,111.111,111.111,638.889,30.556,L
744,0.040,1.805,0.160,158.333,108.333,108.333,669.444,30.556,L
745,0.055,1.845,0.115,172.222,108.333,108.333,733.333,63.889,L
746,0.035,1.895,0.210,172.222,108.333,108.333,716.667,16.667,L
747,0.035,1.965,0.215,172.222,105.556,105.556,730.556,13.889,L
748,0.055,2.150,0.175,188.889,116.667,122.222,794.444,63.889,L
749,0.045,1.960,0.125,144.444,105.556,105.556,808.333,13.889,L
750,0.090,2.180,0.065,161.111,113.889,113.889,738.889,69.444,L
751,0.055,2.340,0.025,163.889,102.778,102.778,686.111,52.778,L
752,0.030,2.320,0.080,158.333,102.778,102.778,725.000,38.889,L
753,0.030,2.585,0.075,152.778,116.667,116.667,744.444,19.444,L
754,-0.035,1.760,0.445,144.444,100.000,336.111,475.000,269.444,V
755,-0.080,2.655,-0.015,183.333,111.111,111.111,1191.667,716.667,L
756,-0.035,2.540,0.000,169.444,116.667,116.667,780.556,411.111,L
757,-0.050,2.420,0.075,183.333,111.111,111.111,847.222,66.667,L
758,-0.150,2.480,-0.145,152.778,116.667,119.444,772.222,75.000,L
759,-0.085,2.190,-0.110,144.444,111.111,358.333,725.000,47.222,L
760,-0.085,2.235,-0.025,191.667,105.556,105.556,750.000,25.000,L
761,-0.130,2.355,-0.105,158.333,100.000,105.556,780.556,30.556,L
762,-0.080,2.125,0.035,194.444,111.111,111.111,836.111,55.556,L
763,-0.090,2.135,-0.025,175.000,108.333,108.333,866.667,30.556,L
764,-0.050,2.230,-0.035,180.556,113.889,113.889,822.222,44.444,L
765,-0.055,2.020,-0.015,186.111,108.333,111.111,772.222,50.000,L
766,-0.110,2.160,-0.060,161.111,113.889,113.889,775.000,2.778,L
767,-0.065,2.105,-0.020,172.222,105.556,105.556,761.111,13.889,L
768,-0.110,2.190,-0.085,155.556,108.333,108.333,758.333,2.778,L
769,-0.110,2.230,-0.055,183.333,116.667,116.667,786.111,27.778,L
770,-0.065,2.110,-0.005,183.333,116.667,116.667,813.889,27.778,L
771,-0.115,2.360,-0.075,166.667,113.889,113.889,833.333,19.444,L
772,-0.100,2.140,-0.110,166.667,116.667,116.667,836.111,2.778,L
773,-0.145,2.190,-0.135,163.889,116.667,116.667,763.889,72.222,L
774,-0.175,2.070,-0.140,158.333,113.889,113.889,719.444,44.444,L
775,-0.120,1.965,-0.060,186.111,116.667,116.667,786.111,66.667,L
776,-0.085,1.295,0.860,58.333,94.444,363.889,558.333,227.778,V
777,-0.120,2.140,-0.045,158.333,111.111,113.889,1047.222,488.889,L
778,-0.150,1.945,-0.065,180.556,113.889,113.889,822.222,225.000,L
779,-0.195,2.090,-0.100,158.333,108.333,108.333,811.111,11.111,L
780,-0.150,1.990,-0.080,172.222,105.556,105.556,813.889,2.778,L
781,-0.210,2.025,-0.145,155.556,116.667,116.667,747.222,66.667,L
782,-0.190,1.930,-0.175,152.778,100.000,100.000,733.333,13.889,L
783,-0.190,1.955,-0.130,166.667,111.111,111.111,763.889,30.556,L
784,-0.140,2.040,-0.100,183.333,105.556,105.556,836.111,72.222,L
785,-0.165,1.945,-0.050,197.222,111.111,111.111,863.889,27.778,L
786,-0.215,1.985,-0.080,194.444,111.111,111.111,827.778,36.111,L
787,-0.175,1.820,-0.045,180.556,111.111,111.111,855.556,27.778,L
788,-0.185,1.930,-0.055,180.556,108.333,108.333,811.111,44.444,L
789,-0.135,2.000,-0.040,177.778,116.667,116.667,788.889,22.222,L
790,-0.130,1.970,-0.020,177.778,111.111,111.111,794.444,5.556,L
791,-0.155,1.885,-0.070,166.667,113.889,113.889,808.333,13.889,L
792,-0.165,1.925,-0.030,197.222,111.111,111.111,877.778,69.444,L
793,-0.220,1.120,1.165,69.444,116.667,366.667,458.333,419.444,V
794,-0.225,2.000,-0.110,161.111,113.889,113.889,1358.333,900.000,L
795,-0.205,1.910,-0.115,186.111,102.778,102.778,825.000,533.333,L
796,-0.170,2.100,-0.040,152.778,100.000,100.000,766.667,58.333,L
797,-0.135,2.015,-0.005,177.778,108.333,108.333,808.333,41.667,L
798,-0.165,2.130,-0.030,186.111,100.000,102.778,827.778,19.444,L
799,-0.150,1.355,1.330,69.444,116.667,372.222,413.889,413.889,V
800,-0.195,2.095,-0.055,183.333,108.333,108.333,1333.333,919.444,L
801,-0.195,2.080,-0.005,191.667,108.333,108.333,905.556,427.778,L
802,-0.140,1.980,0.025,175.000,116.667,405.556,819.444,86.111,L
803,-0.155,1.450,1.395,55.556,100.000,325.000,377.778,441.667,V
804,-0.255,2.250,-0.185,161.111,105.556,105.556,1191.667,813.889,L
805,-0.155,2.140,-0.060,177.778,113.889,113.889,783.333,408.333,L
806,-0.140,2.205,0.050,191.667,111.111,111.111,877.778,94.444,L
807,-0.165,2.275,-0.060,172.222,116.667,116.667,847.222,30.556,L
808,-0.125,2.100,-0.015,186.111,113.889,113.889,866.667,19.444,L
809,-0.170,2.135,-0.030,175.000,108.333,108.333,855.556,11.111,L
810,-0.145,2.205,-0.105,161.111,113.889,113.889,786.111,69.444,L
811,-0.130,2.015,-0.150,155.556,105.556,105.556,777.778,8.333,L
812,-0.170,2.115,-0.110,172.222,108.333,108.333,786.111,8.333,L
813,-0.130,2.135,-0.085,194.444,108.333,108.333,838.889,52.778,L
814,-0.190,2.050,-0.060,188.889,108.333,108.333,875.000,36.111,L
815,-0.130,2.130,-0.080,186.111,105.556,105.556,897.222,22.222,L
816,-0.150,1.890,-0.100,166.667,102.778,102.778,847.222,50.000,L
817,-0.175,2.215,-0.105,163.889,116.667,116.667,783.333,63.889,L
818,-0.100,2.020,-0.030,172.222,102.778,102.778,805.556,22.222,L
819,-0.255,1.190,1.060,72.222,105.556,341.667,383.333,422.222,V
820,-0.415,1.855,-0.330,169.444,113.889,116.667,1230.556,847.222,L
821,-0.390,1.740,-0.300,186.111,116.667,116.667,850.000,380.556,L
822,-0.405,1.870,-0.285,183.333,113.889,113.889,813.889,36.111,L
823,-0.425,1.290,-0.070,138.889,97.222,355.556,508.333,305.556,V
824,-0.435,1.900,-0.370,150.000,113.889,113.889,1141.667,633.333,L
825,-0.335,1.875,-0.330,150.000,100.000,100.000,716.667,425.000,L
826,-0.410,1.170,0.055,111.111,83.333,322.222,530.556,186.111,V
827,-0.405,1.850,-0.355,144.444,105.556,108.333,1013.889,483.333,L
828,-0.355,1.865,-0.325,186.111,111.111,111.111,794.444,219.444,L
829,-0.445,1.060,0.055,155.556,94.444,347.222,516.667,277.778,V
830,-0.430,1.895,-0.420,186.111,105.556,105.556,1116.667,600.000,L
831,-0.380,1.855,-0.365,180.556,113.889,113.889,777.778,338.889,L
832,-0.490,1.060,0.090,138.889,88.889,319.444,472.222,305.556,V
833,-0.450,2.110,-0.360,155.556,111.111,397.222,1022.222,550.000,L
834,-0.335,1.700,-0.460,183.333,113.889,377.778,702.778,319.444,L
835,-0.460,1.475,-0.205,138.889,94.444,341.667,461.111,241.667,V
836,-0.320,2.010,-0.300,155.556,111.111,111.111,1105.556,644.444,L
837,-0.345,1.765,-0.315,197.222,113.889,113.889,822.222,283.333,L
838,-0.380,1.670,-0.290,194.444,111.111,111.111,794.444,27.778,L
839,-0.305,1.770,-0.215,177.778,111.111,111.111,780.556,13.889,L
840,-0.275,1.760,-0.230,172.222,111.111,111.111,716.667,63.889,L
841,-0.285,1.655,-0.270,172.222,113.889,113.889,719.444,2.778,L
842,-0.315,1.800,-0.225,169.444,116.667,116.667,741.667,22.222,L
843,-0.305,1.845,-0.230,158.333,105.556,105.556,736.111,5.556,L
844,-0.200,1.800,-0.085,191.667,111.111,111.111,802.778,66.667,L
845,0.405,2.355,-0.500,58.333,116.667,405.556,558.333,244.444,V
846,-0.175,2.125,-0.125,180.556,108.333,108.333,1213.889,655.556,L
847,-0.140,1.980,-0.080,161.111,108.333,108.333,763.889,450.000,L
848,-0.165,1.795,-0.105,161.111,111.111,111.111,769.444,5.556,L
849,-0.165,1.875,-0.095,169.444,105.556,105.556,755.556,13.889,L
850,-0.205,1.975,-0.070,194.444,108.333,108.333,825.000,69.444,L
851,-0.225,1.805,-0.020,191.667,111.111,111.111,833.333,8.333,L
852,-0.225,1.775,-0.070,197.222,116.667,116.667,858.333,25.000,L
853,-0.220,1.920,0.065,197.222,108.333,108.333,908.333,50.000,L
854,-0.270,1.915,-0.010,177.778,105.556,105.556,880.556,27.778,L
855,-0.250,1.675,-0.085,172.222,105.556,105.556,800.000,80.556,L
856,-0.300,1.285,1.165,69.444,116.667,327.778,380.556,419.444,V
857,-0.320,1.955,-0.200,183.333,116.667,116.667,1297.222,916.667,L
858,-0.305,1.820,-0.050,194.444,111.111,111.111,911.111,386.111,L
859,-0.270,1.895,-0.055,197.222,116.667,116.667,938.889,27.778,L
860,-0.220,1.630,0.015,191.667,105.556,105.556,911.111,27.778,L
861,-0.205,1.820,-0.015,186.111,108.333,108.333,911.111,0.000,L
862,-0.165,1.800,0.010,161.111,108.333,108.333,822.222,88.889,L
863,-0.180,2.155,-0.015,177.778,108.333,108.333,800.000,22.222,L
864,-0.160,1.995,-0.005,188.889,108.333,108.333,830.556,30.556,L
865,-0.165,1.585,1.070,61.111,102.778,358.333,402.778,427.778,V
866,-0.170,2.140,-0.065,186.111,116.667,116.667,1427.778,1025.000,L
867,-0.090,1.955,0.040,183.333,113.889,113.889,877.778,550.000,L
868,-0.095,1.975,0.045,155.556,102.778,102.778,805.556,72.222,L
869,-0.095,2.090,-0.020,155.556,116.667,116.667,766.667,38.889,L
870,-0.060,2.160,-0.025,166.667,116.667,116.667,763.889,2.778,L
871,-0.055,1.975,-0.020,158.333,108.333,108.333,791.667,27.778,L
872,-0.075,2.175,-0.005,136.111,113.889,113.889,808.333,16.667,L
873,-0.110,1.700,1.190,63.889,116.667,361.111,447.222,361.111,V
874,-0.240,2.060,-0.145,180.556,111.111,111.111,1302.778,855.556,L
875,-0.170,2.065,-0.125,144.444,111.111,111.111,844.444,458.333,L
876,-0.080,2.035,-0.065,155.556,116.667,116.667,777.778,66.667,L
877,-0.080,2.035,-0.040,163.889,105.556,105.556,747.222,30.556,L
878,-0.060,2.160,-0.020,163.889,116.667,116.667,811.111,63.889,L
879,-0.065,1.570,0.370,130.556,86.111,341.667,466.667,344.444,V
880,-0.060,2.225,-0.010,172.222,108.333,111.111,1161.111,694.444,L
881,-0.025,2.035,0.055,183.333,113.889,113.889,808.333,352.778,L
882,0.000,2.070,0.085,191.667,111.111,111.111,825.000,16.667,L
883,-0.070,2.160,-0.020,166.667,108.333,108.333,783.333,41.667,L
884,-0.055,2.150,-0.045,169.444,105.556,105.556,730.556,52.778,L
885,-0.055,2.135,-0.090,141.667,105.556,105.556,719.444,11.111,L
886,-0.070,2.280,-0.030,152.778,105.556,105.556,761.111,41.667,L
887,-0.030,2.200,-0.010,183.333,116.667,116.667,850.000,88.889,L
888,-0.095,2.135,-0.055,188.889,111.111,111.111,844.444,5.556,L
889,-0.035,2.205,0.005,191.667,105.556,105.556,811.111,33.333,L
890,-0.020,2.175,0.020,175.000,116.667,116.667,841.667,30.556,L
891,-0.025,2.355,0.045,155.556,105.556,105.556,775.000,66.667,L
892,0.015,2.235,0.070,177.778,108.333,108.333,788.889,13.889,L
893,-0.070,1.765,1.230,66.667,116.667,350.000,388.889,400.000,V
894,-0.130,2.275,-0.045,163.889,111.111,111.111,1213.889,825.000,L
895,-0.070,1.980,0.120,188.889,111.111,111.111,875.000,338.889,L
896,-0.065,2.340,0.035,163.889,111.111,111.111,877.778,2.778,L
897,-0.095,1.685,1.380,86.111,116.667,352.778,452.778,425.000,V
898,-0.130,2.235,-0.095,166.667,105.556,105.556,1163.889,711.111,L
899,-0.120,1.785,-0.050,158.333,111.111,111.111,744.444,419.444,L
900,-0.100,1.945,0.025,161.111,108.333,108.333,747.222,2.778,L
901,-0.110,2.030,-0.025,152.778,102.778,102.778,777.778,30.556,L
902,-0.090,2.110,-0.005,158.333,111.111,111.111,758.333,19.444,L
903,-0.125,1.510,1.360,61.111,116.667,361.111,402.778,355.556,V
904,-0.200,2.090,-0.025,188.889,111.111,111.111,1194.444,791.667,L
905,-0.135,2.040,-0.035,152.778,102.778,102.778,797.222,397.222,L
906,-0.125,2.085,-0.075,138.889,108.333,108.333,719.444,77.778,L
907,-0.120,1.955,-0.090,175.000,105.556,105.556,702.778,16.667,L
908,-0.160,2.145,-0.155,155.556,102.778,102.778,725.000,22.222,L
909,-0.130,1.995,-0.040,150.000,116.667,116.667,750.000,25.000,L
910,-0.095,1.920,0.080,183.333,116.667,116.667,813.889,63.889,L
911,-0.120,2.005,0.030,191.667,111.111,111.111,811.111,2.778,L
912,-0.135,2.150,-0.030,166.667,113.889,113.889,805.556,5.556,L
913,-0.120,1.630,1.230,63.889,116.667,361.111,436.111,369.444,V
914,-0.130,2.375,-0.105,138.889,102.778,102.778,1205.556,769.444,L
915,-0.070,2.115,-0.110,147.222,100.000,100.000,744.444,461.111,L
916,-0.105,2.190,-0.005,150.000,116.667,116.667,766.667,22.222,L
917,-0.110,2.155,-0.030,158.333,105.556,105.556,791.667,25.000,L
918,-0.075,2.170,0.010,177.778,113.889,113.889,838.889,47.222,L
919,-0.105,2.015,0.030,175.000,108.333,108.333,861.111,22.222,L
920,-0.105,2.330,-0.050,183.333,116.667,116.667,844.444,16.667,L
921,-0.045,2.255,0.030,172.222,102.778,102.778,786.111,58.333,L
922,-0.090,2.075,0.030,180.556,105.556,105.556,791.667,5.556,L
923,-0.065,2.300,0.040,150.000,111.111,111.111,769.444,22.222,L
924,-0.030,2.115,0.125,163.889,105.556,105.556,788.889,19.444,L
925,-0.060,2.315,0.065,177.778,111.111,111.111,825.000,36.111,L
926,-0.030,2.140,0.020,186.111,111.111,111.111,838.889,13.889,L
927,-0.080,2.125,-0.010,186.111,116.667,116.667,869.444,30.556,L
928,-0.080,2.195,-0.095,169.444,116.667,116.667,816.667,52.778,L
929,-0.020,2.155,-0.045,158.333,111.111,111.111,738.889,77.778,L
930,-0.055,2.135,-0.025,191.667,108.333,108.333,733.333,5.556,L
931,-0.125,1.550,1.195,66.667,116.667,375.000,408.333,325.000,V
932,-0.145,2.155,-0.040,180.556,111.111,111.111,1197.222,788.889,L
933,-0.105,2.170,0.010,175.000,108.333,108.333,794.444,402.778,L
934,-0.135,2.180,-0.030,180.556,108.333,108.333,805.556,11.111,L
935,-0.070,2.075,0.030,186.111,108.333,108.333,808.333,2.778,L
936,-0.115,2.055,-0.035,172.222,102.778,105.556,783.333,25.000,L
937,-0.060,2.010,-0.035,152.778,105.556,105.556,733.333,50.000,L
938,-0.060,2.055,-0.025,161.111,113.889,113.889,741.667,8.333,L
939,-0.155,2.130,-0.075,163.889,113.889,113.889,766.667,25.000,L
940,-0.145,1.975,-0.080,177.778,108.333,108.333,847.222,80.556,L
941,-0.180,1.990,-0.065,191.667,113.889,113.889,880.556,33.333,L
942,-0.220,2.025,-0.045,177.778,116.667,116.667,841.667,38.889,L
943,-0.140,2.025,-0.045,180.556,108.333,108.333,850.000,8.333,L
944,-0.135,2.005,-0.005,180.556,111.111,111.111,780.556,69.444,L
945,-0.060,2.110,0.020,180.556,102.778,102.778,788.889,8.333,L
946,-0.065,1.960,0.050,177.778,111.111,111.111,811.111,22.222,L
947,-0.065,2.060,0.070,175.000,111.111,111.111,813.889,2.778,L
948,-0.065,2.005,0.170,194.444,111.111,111.111,902.778,88.889,L
949,-0.090,2.060,0.145,191.667,111.111,111.111,916.667,13.889,L
950,-0.040,2.140,0.035,166.667,102.778,102.778,875.000,41.667,L
951,-0.050,2.025,0.055,183.333,111.111,111.111,827.778,47.222,L
952,-0.065,2.130,0.060,163.889,116.667,116.667,786.111,41.667,L
953,-0.015,2.155,0.185,177.778,111.111,111.111,861.111,75.000,L
954,0.005,2.025,0.250,175.000,113.889,113.889,886.111,25.000,L
955,-0.010,2.150,0.225,175.000,105.556,105.556,894.444,8.333,L
956,0.020,2.115,0.230,188.889,108.333,108.333,913.889,19.444,L
957,-0.025,2.180,0.085,177.778,102.778,102.778,927.778,13.889,L
958,-0.065,2.085,-0.020,163.889,113.889,113.889,813.889,113.889,L
959,-0.045,2.060,0.115,172.222,100.000,100.000,808.333,5.556,L
960,-0.110,2.025,0.070,183.333,105.556,105.556,844.444,36.111,L
961,-0.140,-1.860,1.255,163.889,2.778,252.778,550.000,294.444,V
962,-0.160,1.920,0.060,188.889,105.556,105.556,1322.222,772.222,L
963,-0.210,2.035,-0.090,186.111,105.556,105.556,883.333,438.889,L
964,-0.170,2.075,-0.030,197.222,111.111,111.111,877.778,5.556,L
965,-0.130,1.910,-0.030,169.444,105.556,105.556,819.444,58.333,L
966,-0.180,1.260,1.195,58.333,111.111,325.000,394.444,425.000,V
967,-0.145,2.245,-0.060,161.111,111.111,111.111,1183.333,788.889,L
968,-0.135,2.140,-0.050,186.111,105.556,105.556,825.000,358.333,L
969,-0.115,2.285,-0.005,172.222,108.333,113.889,836.111,11.111,L
970,-0.015,2.115,0.085,172.222,108.333,108.333,850.000,13.889,L
971,-0.080,2.195,-0.050,172.222,102.778,102.778,800.000,50.000,L
972,-0.085,2.275,-0.040,158.333,108.333,108.333,736.111,63.889,L
973,-0.025,2.350,0.045,169.444,116.667,116.667,763.889,27.778,L
974,-0.085,2.300,0.000,180.556,116.667,116.667,763.889,0.000,L
975,-0.100,2.335,0.000,172.222,108.333,108.333,738.889,25.000,L
976,-0.070,2.210,0.095,186.111,116.667,116.667,811.111,72.222,L
977,-0.095,2.300,0.025,186.111,116.667,116.667,816.667,5.556,L
978,-0.150,1.690,1.225,80.556,116.667,377.778,447.222,369.444,V
979,-0.165,2.160,-0.105,166.667,116.667,116.667,1200.000,752.778,L
980,-0.115,2.140,-0.060,136.111,108.333,108.333,727.778,472.222,L
981,-0.050,2.250,-0.010,166.667,116.667,116.667,722.222,5.556,L
982,-0.045,2.090,-0.025,169.444,116.667,116.667,788.889,66.667,L
983,-0.110,2.015,0.015,158.333,108.333,108.333,786.111,2.778,L
984,-0.035,2.055,0.045,183.333,116.667,116.667,791.667,5.556,L
985,-0.125,2.015,0.025,186.111,108.333,108.333,825.000,33.333,L
986,-0.120,2.095,-0.040,191.667,108.333,108.333,819.444,5.556,L
987,-0.170,2.100,-0.075,172.222,105.556,394.444,813.889,5.556,L
988,-0.285,1.420,1.230,69.444,113.889,341.667,380.556,433.333,V
989,-0.305,2.200,-0.170,161.111,111.111,111.111,1144.444,763.889,L
990,-0.285,1.990,-0.155,177.778,108.333,108.333,800.000,344.444,L
991,-0.340,1.185,0.185,144.444,88.889,333.333,513.889,286.111,V
992,-0.225,2.235,-0.105,144.444,108.333,108.333,1216.667,702.778,L
993,-0.175,2.200,-0.080,158.333,105.556,105.556,813.889,402.778,L
994,-0.155,2.220,-0.085,144.444,113.889,113.889,805.556,8.333,L
995,-0.125,2.160,-0.025,175.000,108.333,108.333,777.778,27.778,L
996,-0.130,2.240,-0.085,136.111,102.778,102.778,763.889,13.889,L
997,-0.095,2.340,-0.075,144.444,113.889,402.778,791.667,27.778,L
998,-0.100,1.325,1.405,50.000,102.778,347.222,386.111,405.556,V
999,-0.210,2.280,-0.115,172.222,108.333,111.111,1358.333,972.222,L
1000,-0.165,2.085,-0.030,183.333,111.111,111.111,872.222,486.111,L
1001,-0.175,2.305,-0.065,175.000,111.111,111.111,852.778,19.444,L
1002,-0.105,2.300,-0.020,172.222,105.556,105.556,788.889,63.889,L
1003,-0.055,2.255,0.025,177.778,111.111,111.111,775.000,13.889,L
1004,-0.080,1.385,0.445,122.222,83.333,327.778,461.111,313.889,V
1005,-0.095,2.275,0.025,175.000,108.333,108.333,1202.778,741.667,L
1006,-0.090,2.210,0.130,197.222,105.556,105.556,825.000,377.778,L
1007,-0.040,2.315,0.230,197.222,116.667,116.667,916.667,91.667,L
1008,-0.010,2.430,0.160,194.444,111.111,111.111,875.000,41.667,L
1009,0.010,2.240,0.195,158.333,102.778,102.778,800.000,75.000,L
1010,-0.005,2.480,0.095,172.222,105.556,105.556,783.333,16.667,L
1011,-0.010,2.460,0.160,183.333,113.889,113.889,791.667,8.333,L
1012,-0.065,1.280,0.590,141.667,83.333,330.556,491.667,300.000,V
1013,-0.075,2.410,0.070,183.333,113.889,113.889,1291.667,800.000,L
1014,-0.050,2.285,0.140,180.556,113.889,113.889,866.667,425.000,L
1015,-0.065,2.330,0.025,183.333,113.889,113.889,883.333,16.667,L
1016,-0.045,2.310,0.010,163.889,113.889,113.889,830.556,52.778,L
1017,-0.070,2.150,-0.085,138.889,108.333,108.333,777.778,52.778,L
1018,-0.070,2.125,0.005,158.333,111.111,111.111,766.667,11.111,L
1019,-0.080,2.180,-0.030,166.667,116.667,116.667,808.333,41.667,L
1020,-0.145,1.360,1.235,61.111,116.667,361.111,433.333,375.000,V
1021,-0.205,2.105,-0.150,147.222,105.556,105.556,1316.667,883.333,L
1022,-0.125,1.760,-0.035,175.000,108.333,108.333,844.444,472.222,L
1023,-0.165,2.065,-0.115,147.222,113.889,113.889,775.000,69.444,L
1024,-0.110,2.115,-0.070,177.778,111.111,111.111,780.556,5.556,L
1025,-0.140,2.070,-0.090,152.778,116.667,116.667,738.889,41.667,L
1026,-0.205,1.390,1.245,63.889,111.111,322.222,394.444,344.444,V
1027,-0.210,2.170,-0.205,197.222,111.111,111.111,1102.778,708.333,L
1028,-0.155,1.915,-0.070,191.667,111.111,111.111,775.000,327.778,L
1029,-0.190,1.930,-0.095,172.222,111.111,111.111,797.222,22.222,L
1030,-0.200,2.130,-0.120,175.000,113.889,113.889,788.889,8.333,L
1031,-0.195,2.060,-0.190,166.667,116.667,116.667,738.889,50.000,L
1032,-0.270,2.005,-0.205,155.556,102.778,102.778,705.556,33.333,L
1033,-0.265,1.975,-0.195,150.000,113.889,113.889,730.556,25.000,L
1034,-0.260,1.895,-0.185,166.667,116.667,116.667,766.667,36.111,L
1035,-0.305,1.980,-0.280,141.667,102.778,102.778,772.222,5.556,L
1036,-0.275,2.010,-0.230,183.333,108.333,108.333,794.444,22.222,L
1037,-0.260,2.030,-0.160,152.778,105.556,105.556,822.222,27.778,L
1038,-0.200,1.980,-0.085,161.111,102.778,102.778,825.000,2.778,L
1039,-0.160,1.940,-0.100,152.778,116.667,116.667,822.222,2.778,L
1040,-0.200,1.145,1.200,69.444,116.667,338.889,383.333,438.889,V
1041,-0.200,2.010,-0.080,175.000,108.333,108.333,1208.333,825.000,L
1042,-0.190,2.060,-0.005,186.111,111.111,111.111,838.889,369.444,L
1043,-0.145,2.125,0.035,197.222,108.333,108.333,866.667,27.778,L
1044,-0.145,2.085,0.125,180.556,113.889,113.889,830.556,36.111,L
1045,-0.075,2.120,0.180,188.889,116.667,116.667,855.556,25.000,L
1046,-0.080,0.965,0.590,86.111,80.556,316.667,466.667,388.889,V
1047,-0.010,2.290,0.120,166.667,102.778,102.778,1183.333,716.667,L
1048,-0.035,2.140,0.130,172.222,105.556,105.556,788.889,394.444,L
1049,-0.035,2.225,0.130,163.889,113.889,113.889,794.444,5.556,L
1050,-0.035,2.155,0.155,183.333,108.333,108.333,850.000,55.556,L
1051,-0.065,1.405,1.410,63.889,113.889,358.333,463.889,386.111,V
1052,-0.115,2.200,0.000,163.889,105.556,105.556,1322.222,858.333,L
1053,-0.085,2.145,0.005,161.111,111.111,111.111,791.667,530.556,L
1054,-0.060,2.205,0.015,158.333,102.778,105.556,780.556,11.111,L
1055,-0.045,2.110,0.050,141.667,105.556,105.556,783.333,2.778,L
1056,-0.040,2.250,0.000,147.222,113.889,113.889,805.556,22.222,L
1057,-0.025,2.270,0.030,172.222,116.667,116.667,822.222,16.667,L
1058,-0.010,1.975,0.090,186.111,102.778,102.778,836.111,13.889,L
1059,-0.050,1.370,1.310,66.667,116.667,397.222,444.444,391.667,V
1060,0.860,1.080,0.280,197.222,94.444,325.000,591.667,147.222,V
1061,0.280,1.175,1.295,111.111,111.111,355.556,391.667,200.000,V
1062,-0.080,2.140,0.010,144.444,111.111,391.667,1363.889,972.222,L
1063,-0.015,2.090,0.020,158.333,116.667,116.667,744.444,619.444,L
1064,-0.015,2.090,0.065,175.000,111.111,111.111,772.222,27.778,L
1065,-0.085,2.030,0.045,183.333,116.667,116.667,805.556,33.333,L
1066,-0.045,2.055,0.045,169.444,108.333,108.333,791.667,13.889,L
1067,-0.115,1.195,0.375,152.778,97.222,341.667,527.778,263.889,V
1068,-0.170,1.905,-0.105,177.778,116.667,400.000,1058.333,530.556,L
1069,-0.035,1.905,-0.055,183.333,116.667,116.667,744.444,313.889,L
1070,-0.075,1.800,-0.045,155.556,102.778,102.778,733.333,11.111,L
1071,-0.060,1.955,-0.035,163.889,113.889,113.889,691.667,41.667,L
1072,-0.030,2.125,-0.050,180.556,113.889,113.889,736.111,44.444,L
1073,-0.095,2.015,0.010,180.556,111.111,111.111,747.222,11.111,L
1074,-0.075,2.120,0.065,177.778,113.889,113.889,813.889,66.667,L
1075,-0.055,2.070,0.040,197.222,113.889,113.889,805.556,8.333,L
1076,-0.105,1.980,-0.010,150.000,113.889,113.889,800.000,5.556,L
1077,-0.095,2.105,-0.040,175.000,111.111,111.111,775.000,25.000,L
1078,-0.155,1.350,1.320,58.333,111.111,330.556,402.778,372.222,V
1079,1.300,-2.485,1.610,191.667,0.000,227.778,486.111,83.333,V
1080,-0.245,2.140,-0.115,150.000,113.889,113.889,1286.111,800.000,L
1081,-0.140,2.095,0.015,180.556,113.889,113.889,819.444,466.667,L
1082,-0.150,1.955,0.095,188.889,116.667,116.667,838.889,19.444,L
1083,-0.140,2.050,0.025,197.222,113.889,113.889,875.000,36.111,L
1084,-0.140,2.040,-0.030,158.333,108.333,108.333,811.111,63.889,L
1085,-0.145,1.980,0.020,161.111,113.889,113.889,758.333,52.778,L
1086,0.395,-2.100,1.340,36.111,2.778,250.000,536.111,222.222,V
1087,-0.160,1.910,0.020,172.222,105.556,105.556,1138.889,602.778,L
1088,-0.095,1.820,0.100,166.667,116.667,116.667,825.000,313.889,L
1089,-0.110,2.110,0.165,194.444,111.111,111.111,883.333,58.333,L
1090,-0.105,2.085,0.150,188.889,111.111,111.111,872.222,11.111,L
1091,-0.120,1.140,1.370,63.889,113.889,355.556,444.444,427.778,V
1092,-0.155,1.975,0.055,172.222,102.778,102.778,1294.444,850.000,L
1093,-0.080,1.895,0.070,169.444,105.556,105.556,780.556,513.889,L
1094,-0.080,1.825,0.195,188.889,105.556,105.556,833.333,52.778,L
1095,-0.105,1.835,0.195,172.222,102.778,102.778,883.333,50.000,L
1096,-0.125,1.890,0.070,175.000,108.333,108.333,888.889,5.556,L
1097,-0.100,2.010,0.150,186.111,113.889,113.889,875.000,13.889,L
1098,-0.125,1.895,0.105,172.222,105.556,105.556,872.222,2.778,L
1099,-0.145,1.940,0.040,183.333,116.667,116.667,827.778,44.444,L
1100,-0.095,1.890,0.065,169.444,102.778,102.778,802.778,25.000,L
1101,-0.075,2.050,-0.035,169.444,102.778,102.778,816.667,13.889,L
1102,-0.120,1.345,1.250,63.889,116.667,375.000,397.222,419.444,V
1103,-0.135,2.050,-0.005,155.556,105.556,105.556,1372.222,975.000,L
1104,-0.145,1.725,-0.015,161.111,111.111,111.111,855.556,516.667,L
1105,-0.160,2.050,-0.060,158.333,105.556,105.556,797.222,58.333,L
1106,-0.085,2.095,-0.115,138.889,116.667,116.667,747.222,50.000,L
1107,-0.120,1.940,-0.080,155.556,105.556,105.556,750.000,2.778,L
1108,-0.130,2.160,-0.080,147.222,111.111,111.111,775.000,25.000,L
1109,-0.035,2.095,0.005,175.000,105.556,105.556,780.556,5.556,L
1110,-0.080,1.325,0.460,119.444,88.889,327.778,491.667,288.889,V
1111,-0.025,2.225,0.060,177.778,108.333,108.333,1191.667,700.000,L
1112,0.000,2.030,0.090,194.444,111.111,111.111,852.778,338.889,L
1113,-0.065,1.175,0.440,130.556,80.556,291.667,500.000,352.778,V
1114,-0.040,2.255,-0.015,150.000,102.778,102.778,1022.222,522.222,L
1115,0.000,2.075,0.045,172.222,105.556,105.556,727.778,294.444,L
1116,-0.060,2.135,0.025,150.000,108.333,108.333,755.556,27.778,L
1117,0.005,2.165,0.055,169.444,105.556,108.333,755.556,0.000,L
1118,0.035,2.140,0.125,177.778,108.333,108.333,788.889,33.333,L
1119,0.015,2.230,0.115,163.889,105.556,105.556,791.667,2.778,L
1120,0.050,2.220,0.105,194.444,113.889,113.889,830.556,38.889,L
1121,0.020,2.165,0.060,177.778,111.111,111.111,763.889,66.667,L
1122,-0.055,2.020,0.105,161.111,108.333,397.222,711.111,52.778,L
1123,-0.135,1.395,1.230,63.889,116.667,341.667,377.778,333.333,V
1124,-0.150,1.985,0.010,172.222,116.667,116.667,1102.778,725.000,L
1125,-0.130,1.990,0.045,186.111,116.667,116.667,800.000,302.778,L
1126,-0.080,2.125,0.070,155.556,108.333,108.333,822.222,22.222,L
1127,-0.085,2.015,0.010,177.778,111.111,111.111,822.222,0.000,L
1128,-0.120,2.155,-0.050,166.667,113.889,113.889,822.222,0.000,L
1129,-0.100,2.120,-0.025,141.667,105.556,105.556,805.556,16.667,L
1130,-0.100,2.015,0.010,172.222,105.556,105.556,783.333,22.222,L
1131,-0.095,2.050,0.055,163.889,113.889,113.889,808.333,25.000,L
1132,-0.105,2.135,0.045,194.444,102.778,102.778,847.222,38.889,L
1133,-0.115,2.065,0.130,194.444,105.556,105.556,883.333,36.111,L
1134,-0.090,2.190,0.100,186.111,116.667,116.667,941.667,58.333,L
1135,-0.060,2.135,0.125,183.333,100.000,100.000,900.000,41.667,L
1136,-0.080,2.070,0.170,169.444,105.556,105.556,838.889,61.111,L
1137,-0.090,0.930,0.615,102.778,77.778,311.111,463.889,375.000,V
1138,-0.025,2.235,0.120,175.000,102.778,102.778,1313.889,850.000,L
1139,0.020,2.070,0.190,180.556,113.889,113.889,863.889,450.000,L
1140,-0.060,2.070,0.135,186.111,105.556,105.556,922.222,58.333,L
1141,0.040,1.080,1.100,58.333,100.000,377.778,541.667,380.556,V
1142,-0.055,2.105,0.105,169.444,100.000,100.000,1341.667,800.000,L
1143,-0.085,2.020,0.045,163.889,97.222,97.222,811.111,530.556,L
1144,-0.105,2.120,0.140,175.000,100.000,100.000,794.444,16.667,L
1145,-0.060,2.135,0.095,191.667,108.333,108.333,886.111,91.667,L
1146,-0.120,1.970,0.090,191.667,108.333,108.333,866.667,19.444,L
1147,-0.130,1.950,0.035,183.333,105.556,105.556,858.333,8.333,L
1148,-0.120,2.155,-0.050,183.333,113.889,113.889,883.333,25.000,L
1149,-0.145,1.175,1.225,52.778,105.556,361.111,405.556,477.778,V
1150,-0.155,2.040,-0.130,163.889,113.889,113.889,1261.111,855.556,L
1151,-0.155,2.120,-0.110,141.667,105.556,105.556,758.333,502.778,L
1152,-0.095,2.080,-0.075,152.778,102.778,102.778,763.889,5.556,L
1153,-0.125,1.610,1.185,58.333,113.889,375.000,425.000,338.889,V
1154,-0.180,2.070,-0.115,175.000,108.333,108.333,1280.556,855.556,L
1155,-0.130,1.915,-0.130,169.444,116.667,119.444,811.111,469.444,L
1156,-0.180,1.840,-0.100,172.222,116.667,116.667,816.667,5.556,L
1157,-0.215,2.030,-0.190,158.333,116.667,119.444,786.111,30.556,L
1158,-0.175,1.940,-0.195,161.111,108.333,108.333,758.333,27.778,L
1159,-0.180,1.950,-0.195,172.222,116.667,116.667,775.000,16.667,L
1160,-0.140,1.905,-0.125,169.444,116.667,116.667,763.889,11.111,L
1161,-0.180,2.080,-0.120,155.556,105.556,108.333,755.556,8.333,L
1162,-0.150,1.965,-0.100,166.667,111.111,111.111,808.333,52.778,L
1163,-0.145,1.995,-0.065,180.556,108.333,108.333,808.333,0.000,L
1164,-0.160,2.160,-0.145,133.333,116.667,116.667,761.111,47.222,L
1165,-0.150,1.940,-0.150,163.889,116.667,116.667,716.667,44.444,L
1166,-0.215,1.980,-0.230,152.778,111.111,111.111,716.667,0.000,L
1167,-0.185,1.955,-0.100,155.556,116.667,116.667,722.222,5.556,L
1168,-0.155,1.990,-0.050,183.333,108.333,108.333,780.556,58.333,L
1169,-0.175,1.910,-0.055,191.667,113.889,113.889,811.111,30.556,L
1170,-0.225,1.330,1.050,55.556,108.333,358.333,427.778,383.333,V
1171,-0.240,1.970,-0.080,188.889,111.111,111.111,1252.778,825.000,L
1172,-0.230,1.850,-0.150,161.111,111.111,111.111,822.222,430.556,L
1173,-0.205,2.040,-0.160,161.111,113.889,113.889,766.667,55.556,L
1174,-0.190,1.870,-0.055,169.444,116.667,116.667,755.556,11.111,L
1175,-0.205,2.000,-0.085,155.556,105.556,105.556,802.778,47.222,L
1176,-0.225,1.000,0.355,133.333,86.111,325.000,561.111,241.667,V
1177,-0.195,2.015,-0.010,172.222,108.333,108.333,1158.333,597.222,L
1178,-0.175,1.930,0.055,194.444,111.111,111.111,869.444,288.889,L
1179,-0.160,1.880,0.070,183.333,105.556,105.556,838.889,30.556,L
1180,-0.175,1.940,0.015,172.222,102.778,102.778,838.889,0.000,L
1181,-0.195,1.870,0.045,166.667,102.778,102.778,800.000,38.889,L
1182,-0.160,1.795,0.035,177.778,105.556,105.556,805.556,5.556,L
1183,-0.130,1.985,0.065,186.111,102.778,102.778,861.111,55.556,L
1184,-0.110,1.870,0.155,191.667,105.556,105.556,908.333,47.222,L
1185,-0.125,1.900,0.170,194.444,102.778,102.778,952.778,44.444,L
1186,0.435,2.420,-0.240,58.333,116.667,402.778,508.333,444.444,V
1187,-0.110,2.165,0.105,155.556,102.778,102.778,1283.333,775.000,L
1188,-0.100,2.020,0.090,180.556,111.111,111.111,861.111,422.222,L
1189,-0.145,2.030,0.050,177.778,113.889,113.889,883.333,22.222,L
1190,-0.180,1.990,0.020,172.222,102.778,102.778,858.333,25.000,L
1191,-0.190,0.895,0.435,125.000,86.111,338.889,505.556,352.778,V
1192,-0.185,1.990,0.065,172.222,102.778,105.556,1377.778,872.222,L
1193,-0.170,2.080,-0.060,158.333,105.556,105.556,886.111,491.667,L
1194,-0.165,1.950,-0.030,169.444,116.667,116.667,797.222,88.889,L
1195,-0.165,1.980,0.065,175.000,108.333,108.333,788.889,8.333,L
1196,-0.200,2.040,-0.045,161.111,108.333,108.333,838.889,50.000,L
1197,-0.170,2.070,0.030,172.222,113.889,113.889,841.667,2.778,L
1198,-0.130,1.945,0.005,177.778,111.111,111.111,841.667,0.000,L
1199,-0.190,2.005,-0.130,169.444,116.667,116.667,855.556,13.889,L
1200,-0.165,2.025,-0.090,172.222,102.778,102.778,836.111,19.444,L
1201,-0.170,1.845,-0.090,163.889,102.778,102.778,808.333,27.778,L
1202,-0.160,2.000,-0.165,150.000,116.667,116.667,755.556,52.778,L
1203,-0.075,1.975,-0.045,166.667,116.667,116.667,766.667,11.111,L
1204,-0.120,1.260,0.360,150.000,88.889,344.444,513.889,252.778,V
1205,-0.165,1.915,-0.050,175.000,111.111,111.111,1227.778,713.889,L
1206,-0.080,1.790,-0.010,172.222,116.667,119.444,847.222,380.556,L
1207,-0.200,1.725,-0.115,183.333,111.111,111.111,827.778,19.444,L
1208,-0.190,1.970,-0.175,163.889,113.889,113.889,750.000,77.778,L
1209,-0.170,1.750,-0.140,166.667,116.667,116.667,736.111,13.889,L
1210,-0.190,1.685,-0.155,136.111,116.667,116.667,750.000,13.889,L
1211,-0.235,1.855,-0.185,161.111,105.556,108.333,758.333,8.333,L
1212,-0.200,1.895,-0.115,191.667,108.333,108.333,783.333,25.000,L
1213,-0.230,1.600,0.020,197.222,113.889,113.889,872.222,88.889,L
1214,-0.230,1.765,-0.070,152.778,116.667,116.667,838.889,33.333,L
1215,-0.175,1.800,-0.075,172.222,108.333,108.333,786.111,52.778,L
1216,-0.205,1.775,-0.105,172.222,108.333,108.333,752.778,33.333,L
1217,-0.185,1.825,-0.055,144.444,105.556,105.556,722.222,30.556,L
1218,-0.180,1.235,1.170,55.556,102.778,341.667,411.111,311.111,V
1219,-0.195,1.910,-0.060,152.778,116.667,116.667,1213.889,802.778,L
1220,-0.140,1.930,-0.025,172.222,105.556,105.556,816.667,397.222,L
1221,-0.115,1.975,0.090,180.556,113.889,113.889,847.222,30.556,L
1222,-0.120,1.815,0.030,183.333,116.667,116.667,886.111,38.889,L
1223,-0.120,2.005,-0.055,144.444,108.333,108.333,791.667,94.444,L
1224,-0.090,1.985,-0.025,161.111,113.889,113.889,736.111,55.556,L
1225,-0.085,1.945,-0.025,150.000,116.667,116.667,775.000,38.889,L
1226,-0.085,2.100,0.065,158.333,113.889,113.889,808.333,33.333,L
1227,-0.005,2.035,0.230,194.444,111.111,111.111,883.333,75.000,L
1228,-0.050,1.145,1.305,58.333,108.333,375.000,430.556,452.778,V
1229,-0.120,1.955,0.110,191.667,111.111,111.111,1386.111,955.556,L
1230,-0.070,1.790,0.175,191.667,108.333,108.333,866.667,519.444,L
1231,-0.030,1.960,0.110,183.333,102.778,102.778,811.111,55.556,L
1232,-0.025,1.955,0.200,175.000,105.556,105.556,769.444,41.667,L
1233,-0.060,2.060,0.195,186.111,105.556,105.556,833.333,63.889,L
1234,-0.070,2.035,0.145,72.222,108.333,108.333,883.333,50.000,L
1235,-0.065,2.050,0.180,186.111,113.889,113.889,913.889,30.556,L
1236,-0.065,1.955,0.110,194.444,108.333,108.333,911.111,2.778,L
1237,-0.055,2.165,0.155,58.333,111.111,111.111,833.333,77.778,L
1238,-0.045,1.445,1.235,55.556,105.556,341.667,408.333,425.000,V
1239,-0.110,2.175,0.060,161.111,108.333,108.333,1258.333,850.000,L
1240,-0.050,2.120,0.115,161.111,113.889,113.889,786.111,472.222,L
1241,-0.045,2.025,0.140,163.889,113.889,113.889,850.000,63.889,L
1242,-0.130,0.970,1.240,58.333,108.333,361.111,411.111,438.889,V
1243,1.210,0.425,1.655,197.222,113.889,358.333,527.778,116.667,V
1244,-0.215,2.215,-0.160,144.444,105.556,105.556,1461.111,933.333,L
1245,-0.145,1.945,-0.060,158.333,105.556,105.556,763.889,697.222,L
1246,-0.140,1.995,-0.065,147.222,102.778,102.778,738.889,25.000,L
1247,-0.095,2.085,-0.070,163.889,116.667,116.667,750.000,11.111,L
1248,-0.070,2.030,-0.020,183.333,116.667,116.667,755.556,5.556,L
1249,-0.105,2.120,-0.055,166.667,113.889,113.889,761.111,5.556,L
1250,-0.115,2.340,-0.055,172.222,111.111,111.111,777.778,16.667,L
1251,-0.080,2.195,0.005,197.222,113.889,113.889,777.778,0.000,L
1252,-0.130,2.110,-0.075,158.333,108.333,108.333,791.667,13.889,L
1253,-0.095,2.235,-0.100,163.889,108.333,108.333,722.222,69.444,L
1254,-0.095,1.970,-0.085,158.333,116.667,116.667,708.333,13.889,L
1255,-0.145,1.985,-0.060,172.222,102.778,108.333,733.333,25.000,L
1256,-0.125,2.140,-0.060,194.444,108.333,108.333,805.556,72.222,L
1257,-0.105,1.920,0.040,188.889,116.667,116.667,811.111,5.556,L
1258,-0.105,2.180,0.000,180.556,116.667,116.667,797.222,13.889,L
1259,-0.085,1.905,0.060,186.111,113.889,113.889,819.444,22.222,L
1260,-0.100,1.980,-0.040,169.444,116.667,116.667,783.333,36.111,L
1261,-0.090,2.145,0.025,155.556,105.556,105.556,769.444,13.889,L
1262,-0.060,1.925,0.055,161.111,111.111,111.111,758.333,11.111,L
1263,-0.105,1.970,-0.035,147.222,102.778,102.778,783.333,25.000,L
1264,-0.080,2.070,0.085,180.556,111.111,111.111,836.111,52.778,L
1265,-0.110,1.475,1.180,77.778,116.667,394.444,480.556,355.556,V
1266,-0.225,2.170,-0.135,150.000,102.778,102.778,1355.556,875.000,L
1267,-0.145,2.040,-0.050,169.444,102.778,102.778,819.444,536.111,L
1268,-0.195,1.840,-0.110,147.222,111.111,111.111,791.667,27.778,L
1269,-0.190,2.075,-0.030,163.889,97.222,97.222,769.444,22.222,L
1270,-0.150,2.005,-0.045,166.667,116.667,116.667,836.111,66.667,L
1271,-0.135,1.845,0.070,180.556,102.778,102.778,830.556,5.556,L
1272,-0.140,1.960,0.115,163.889,105.556,105.556,838.889,8.333,L
1273,-0.115,1.990,0.115,188.889,113.889,113.889,919.444,80.556,L
1274,-0.160,1.905,0.025,177.778,108.333,108.333,872.222,47.222,L
1275,-0.145,1.885,-0.010,158.333,105.556,105.556,783.333,88.889,L
1276,-0.175,1.850,-0.035,161.111,113.889,113.889,788.889,5.556,L
1277,-0.135,1.980,0.030,172.222,105.556,105.556,791.667,2.778,L
1278,-0.030,2.115,0.140,163.889,111.111,111.111,841.667,50.000,L
1279,-0.090,0.995,0.560,136.111,88.889,336.111,522.222,319.444,V
1280,-0.075,2.195,0.025,150.000,105.556,108.333,1250.000,727.778,L
1281,-0.095,2.065,0.065,183.333,105.556,105.556,836.111,413.889,L
1282,-0.140,1.155,0.420,136.111,86.111,305.556,500.000,336.111,V
1283,-0.070,2.250,-0.070,133.333,116.667,116.667,1094.444,594.444,L
1284,-0.025,2.205,0.035,166.667,102.778,102.778,736.111,358.333,L
1285,-0.100,2.075,-0.010,175.000,116.667,116.667,783.333,47.222,L
1286,-0.050,2.175,0.025,188.889,116.667,116.667,788.889,5.556,L
1287,-0.045,2.040,0.130,191.667,108.333,108.333,855.556,66.667,L
1288,-0.105,1.305,1.355,58.333,111.111,361.111,450.000,405.556,V
1289,-0.185,2.095,-0.075,141.667,102.778,102.778,1238.889,788.889,L
1290,-0.090,2.030,-0.060,163.889,111.111,111.111,766.667,472.222,L
1291,-0.125,1.975,-0.060,136.111,102.778,102.778,772.222,5.556,L
1292,-0.145,2.095,-0.120,144.444,111.111,111.111,775.000,2.778,L
1293,-0.095,2.015,0.005,172.222,108.333,108.333,766.667,8.333,L
1294,-0.105,1.305,0.420,133.333,100.000,341.667,505.556,261.111,V
1295,-0.090,2.200,-0.045,158.333,111.111,111.111,1147.222,641.667,L
1296,-0.045,2.025,-0.035,197.222,113.889,113.889,819.444,327.778,L
1297,-0.130,2.130,-0.035,150.000,108.333,108.333,755.556,63.889,L
1298,-0.060,2.130,-0.030,138.889,102.778,102.778,702.778,52.778,L
1299,-0.090,1.950,-0.005,183.333,113.889,113.889,744.444,41.667,L
1300,-0.145,2.125,-0.030,144.444,111.111,111.111,777.778,33.333,L
1301,-0.105,2.080,0.030,152.778,108.333,108.333,780.556,2.778,L
1302,-0.075,2.210,0.000,180.556,113.889,113.889,791.667,11.111,L
1303,-0.150,2.060,-0.045,155.556,108.333,108.333,825.000,33.333,L
1304,-0.085,2.020,0.005,177.778,108.333,108.333,805.556,19.444,L
1305,-0.085,2.055,-0.030,152.778,102.778,102.778,775.000,30.556,L
1306,-0.120,2.165,-0.030,163.889,113.889,113.889,744.444,30.556,L
1307,-0.060,2.160,0.055,150.000,102.778,102.778,775.000,30.556,L
1308,-0.145,1.130,1.240,66.667,116.667,358.333,400.000,375.000,V
1309,-0.165,2.050,0.010,175.000,108.333,108.333,1352.778,952.778,L
1310,-0.140,1.960,0.050,169.444,102.778,102.778,861.111,491.667,L
1311,-0.175,2.050,-0.010,180.556,111.111,111.111,880.556,19.444,L
1312,-0.165,1.930,0.000,147.222,108.333,108.333,816.667,63.889,L
1313,-0.110,1.985,0.035,158.333,105.556,105.556,830.556,13.889,L
1314,-0.165,0.835,0.455,163.889,80.556,322.222,519.444,311.111,V
1315,-0.105,2.260,0.105,172.222,105.556,105.556,1227.778,708.333,L
1316,-0.095,1.905,0.175,197.222,113.889,113.889,911.111,316.667,L
1317,-0.095,1.895,0.195,191.667,111.111,111.111,961.111,50.000,L
1318,-0.075,1.880,0.115,172.222,102.778,102.778,894.444,66.667,L
1319,-0.115,2.010,0.015,169.444,116.667,116.667,833.333,61.111,L
1320,-0.140,1.745,0.080,169.444,100.000,100.000,816.667,16.667,L
1321,-0.120,1.865,0.125,194.444,111.111,111.111,891.667,75.000,L
1322,-0.180,1.820,0.025,188.889,108.333,108.333,894.444,2.778,L
1323,-0.195,1.845,0.040,177.778,108.333,108.333,905.556,11.111,L
1324,-0.155,2.015,0.065,197.222,113.889,113.889,986.111,80.556,L
1325,0.655,-2.020,0.955,47.222,2.778,272.222,700.000,286.111,V
1326,-0.235,2.145,-0.075,52.778,100.000,100.000,1086.111,386.111,L
1327,-0.185,1.835,-0.065,183.333,102.778,102.778,836.111,250.000,L
1328,-0.175,1.970,-0.060,183.333,113.889,113.889,830.556,5.556,L
1329,-0.145,2.145,0.060,183.333,108.333,108.333,872.222,41.667,L
1330,-0.130,1.975,-0.025,169.444,116.667,116.667,883.333,11.111,L
1331,-0.270,0.845,1.155,61.111,116.667,369.444,416.667,466.667,V
1332,-0.210,2.110,-0.025,158.333,105.556,105.556,1355.556,938.889,L
1333,-0.170,1.975,-0.110,172.222,105.556,105.556,780.556,575.000,L
1334,-0.195,2.080,-0.060,150.000,105.556,108.333,733.333,47.222,L
1335,-0.090,2.145,0.005,161.111,113.889,113.889,775.000,41.667,L
1336,-0.075,2.080,0.040,163.889,113.889,113.889,800.000,25.000,L
1337,-0.135,1.970,0.005,180.556,116.667,116.667,852.778,52.778,L
1338,-0.090,2.105,0.035,161.111,111.111,111.111,866.667,13.889,L
1339,-0.125,2.070,-0.115,166.667,105.556,111.111,836.111,30.556,L
1340,-0.060,1.980,-0.185,163.889,113.889,391.667,780.556,55.556,L
1341,-0.040,1.715,-0.220,158.333,100.000,369.444,763.889,16.667,L
1342,-0.160,1.860,-0.190,155.556,102.778,338.889,730.556,33.333,L
1343,-0.195,1.715,-0.210,177.778,105.556,111.111,752.778,22.222,L
1344,-0.215,1.555,-0.255,183.333,116.667,116.667,791.667,38.889,L
1345,-0.225,1.560,-0.175,194.444,113.889,113.889,797.222,5.556,L
1346,-0.250,1.730,-0.215,188.889,108.333,108.333,825.000,27.778,L
1347,-0.240,1.730,-0.255,177.778,111.111,111.111,772.222,52.778,L
1348,-0.210,1.640,-0.200,158.333,111.111,111.111,683.333,88.889,L
1349,-0.180,1.840,-0.250,161.111,116.667,125.000,688.889,5.556,L
1350,-0.200,1.785,-0.230,186.111,116.667,116.667,736.111,47.222,L
1351,-0.225,1.820,-0.235,186.111,116.667,116.667,733.333,2.778,L
1352,-0.245,1.570,-0.160,191.667,108.333,108.333,705.556,27.778,L
1353,-0.290,1.955,-0.255,163.889,108.333,108.333,738.889,33.333,L
1354,-0.235,1.720,-0.185,194.444,111.111,111.111,733.333,5.556,L
1355,-0.285,1.795,-0.205,180.556,116.667,116.667,733.333,0.000,L
1356,-0.275,1.855,-0.290,161.111,111.111,111.111,700.000,33.333,L
1357,-0.230,1.660,-0.320,169.444,116.667,116.667,661.111,38.889,L
1358,-0.275,1.625,-0.280,161.111,111.111,111.111,641.667,19.444,L
1359,-0.245,1.530,-0.190,177.778,113.889,113.889,716.667,75.000,L
1360,-0.245,1.570,-0.175,169.444,116.667,116.667,752.778,36.111,L
1361,-0.185,1.680,-0.125,166.667,116.667,119.444,786.111,33.333,L
1362,-0.140,1.765,-0.095,175.000,113.889,113.889,763.889,22.222,L
1363,-0.105,1.685,-0.110,172.222,102.778,102.778,791.667,27.778,L
1364,-0.140,1.700,-0.105,166.667,116.667,116.667,744.444,47.222,L
1365,-0.180,1.565,-0.100,163.889,113.889,113.889,730.556,13.889,L
1366,-0.235,1.830,-0.145,133.333,116.667,116.667,686.111,44.444,L
1367,-0.210,1.745,-0.235,158.333,105.556,105.556,708.333,22.222,L
1368,-0.185,1.785,-0.045,172.222,102.778,102.778,747.222,38.889,L
1369,-0.230,1.765,-0.095,163.889,105.556,105.556,811.111,63.889,L
1370,-0.215,1.790,-0.085,188.889,108.333,108.333,808.333,2.778,L
1371,-0.230,1.645,-0.115,186.111,116.667,116.667,780.556,27.778,L
1372,-0.260,1.770,-0.070,175.000,111.111,111.111,758.333,22.222,L
1373,-0.205,1.725,-0.080,158.333,105.556,105.556,730.556,27.778,L
1374,-0.265,0.865,1.740,105.556,94.444,127.778,563.889,166.667,V
1375,-0.215,1.820,-0.095,163.889,108.333,108.333,975.000,411.111,L
1376,-0.220,1.815,-0.105,147.222,116.667,116.667,772.222,202.778,L
1377,-0.230,1.795,-0.030,163.889,113.889,113.889,827.778,55.556,L
1378,-0.220,1.885,-0.080,172.222,108.333,108.333,861.111,33.333,L
1379,-0.240,1.790,-0.130,169.444,105.556,105.556,833.333,27.778,L
1380,-0.265,1.550,-0.180,152.778,116.667,116.667,763.889,69.444,L
1381,-0.325,1.185,0.970,55.556,108.333,327.778,386.111,377.778,V
1382,-0.360,1.740,-0.200,144.444,100.000,100.000,1208.333,822.222,L
1383,-0.265,1.865,-0.205,183.333,102.778,102.778,838.889,369.444,L
1384,-0.275,1.750,-0.095,177.778,111.111,111.111,844.444,5.556,L
1385,-0.270,1.770,-0.055,180.556,108.333,108.333,838.889,5.556,L
1386,-0.225,1.880,-0.020,197.222,111.111,111.111,897.222,58.333,L
1387,-0.230,1.380,0.705,55.556,86.111,325.000,427.778,469.444,V
1388,-0.230,2.160,-0.170,169.444,105.556,105.556,1180.556,752.778,L
1389,-0.175,2.125,-0.010,158.333,105.556,105.556,752.778,427.778,L
1390,-0.150,2.215,0.085,180.556,108.333,108.333,808.333,55.556,L
1391,-0.165,2.410,0.010,186.111,113.889,113.889,883.333,75.000,L
1392,-0.170,2.435,0.030,188.889,111.111,111.111,861.111,22.222,L
1393,-0.200,1.210,0.550,91.667,86.111,316.667,500.000,361.111,V
1394,-0.175,2.515,-0.095,180.556,108.333,108.333,1227.778,727.778,L
1395,-0.155,2.460,-0.105,152.778,102.778,102.778,786.111,441.667,L
1396,-0.195,1.380,0.495,133.333,80.556,302.778,463.889,322.222,V
1397,-0.135,2.325,-0.050,138.889,102.778,102.778,1119.444,655.556,L
1398,-0.090,2.245,-0.065,150.000,102.778,102.778,802.778,316.667,L
1399,-0.145,1.300,0.315,158.333,94.444,336.111,552.778,250.000,V
1400,-0.110,1.955,-0.050,186.111,113.889,113.889,1161.111,608.333,L
1401,-0.095,1.940,-0.120,172.222,105.556,105.556,786.111,375.000,L
1402,-0.095,1.925,-0.115,163.889,116.667,116.667,727.778,58.333,L
1403,-0.115,1.895,-0.075,191.667,108.333,108.333,744.444,16.667,L
1404,-0.140,1.970,-0.105,144.444,116.667,116.667,763.889,19.444,L
1405,-0.120,1.640,1.280,55.556,108.333,333.333,416.667,347.222,V
1406,-0.165,2.180,-0.100,180.556,105.556,105.556,1175.000,758.333,L
1407,-0.065,2.280,-0.065,147.222,113.889,113.889,800.000,375.000,L
1408,-0.045,2.250,0.015,177.778,108.333,108.333,830.556,30.556,L
1409,-0.085,2.210,-0.055,161.111,102.778,102.778,805.556,25.000,L
1410,-0.070,2.075,-0.070,161.111,113.889,113.889,730.556,75.000,L
1411,-0.090,2.005,-0.090,169.444,105.556,105.556,711.111,19.444,L
1412,-0.135,2.075,-0.100,147.222,116.667,116.667,791.667,80.556,L
1413,-0.115,1.985,-0.080,180.556,116.667,116.667,836.111,44.444,L
1414,-0.180,1.365,0.295,155.556,97.222,325.000,522.222,313.889,V
1415,-0.190,1.970,-0.150,177.778,111.111,111.111,1172.222,650.000,L
1416,-0.170,1.785,-0.100,172.222,105.556,105.556,830.556,341.667,L
1417,-0.200,1.795,-0.150,141.667,102.778,102.778,800.000,30.556,L
1418,-0.150,1.825,-0.125,158.333,105.556,105.556,769.444,30.556,L
1419,-0.190,1.820,-0.145,161.111,111.111,111.111,805.556,36.111,L
1420,-0.145,1.965,0.010,197.222,116.667,116.667,802.778,2.778,L
1421,-0.185,1.275,0.290,125.000,97.222,372.222,527.778,275.000,V
1422,-0.180,2.075,-0.090,188.889,116.667,116.667,1311.111,783.333,L
1423,-0.130,1.985,-0.025,188.889,108.333,108.333,838.889,472.222,L
1424,-0.130,1.770,0.000,177.778,108.333,108.333,836.111,2.778,L
1425,-0.140,1.970,-0.060,169.444,105.556,105.556,791.667,44.444,L
1426,-0.115,1.950,0.030,180.556,116.667,116.667,830.556,38.889,L
1427,-0.120,2.020,0.035,186.111,102.778,102.778,852.778,22.222,L
1428,-0.110,2.125,0.105,50.000,105.556,105.556,863.889,11.111,L
1429,-0.085,2.110,0.180,197.222,116.667,116.667,936.111,72.222,L
1430,-0.085,1.985,0.140,191.667,108.333,108.333,925.000,11.111,L
1431,-0.140,2.035,0.065,172.222,108.333,108.333,847.222,77.778,L
1432,-0.110,1.900,0.060,61.111,111.111,111.111,838.889,8.333,L
1433,-0.090,1.915,0.045,191.667,108.333,108.333,866.667,27.778,L
1434,-0.125,1.840,0.100,188.889,108.333,108.333,913.889,47.222,L
1435,-0.125,1.875,0.075,55.556,105.556,105.556,930.556,16.667,L
1436,-0.130,1.815,0.120,186.111,108.333,108.333,916.667,13.889,L
1437,-0.180,2.150,-0.100,186.111,116.667,116.667,950.000,33.333,L
1438,-0.130,1.040,0.965,58.333,94.444,352.778,580.556,369.444,V
1439,0.965,-2.520,1.455,119.444,8.333,216.667,413.889,166.667,V
1440,-0.250,2.050,-0.195,158.333,111.111,391.667,1347.222,933.333,L
1441,-0.220,1.825,-0.065,188.889,108.333,108.333,850.000,497.222,L
1442,-0.165,2.070,-0.015,186.111,113.889,113.889,891.667,41.667,L
1443,-0.075,2.160,0.005,177.778,111.111,111.111,827.778,63.889,L
1444,-0.060,1.990,0.045,177.778,111.111,111.111,816.667,11.111,L
1445,-0.115,2.105,0.005,163.889,113.889,113.889,800.000,16.667,L
1446,-0.070,2.090,-0.065,150.000,102.778,102.778,755.556,44.444,L
1447,-0.060,1.995,-0.020,155.556,113.889,113.889,738.889,16.667,L
1448,-0.060,2.110,-0.020,163.889,111.111,111.111,741.667,2.778,L
1449,-0.070,1.985,0.040,141.667,108.333,108.333,777.778,36.111,L
1450,0.010,2.095,0.120,163.889,113.889,113.889,808.333,30.556,L
1451,0.060,2.080,0.060,191.667,111.111,111.111,811.111,2.778,L
1452,0.005,2.075,-0.020,180.556,111.111,111.111,752.778,58.333,L
1453,-0.055,1.935,-0.035,161.111,111.111,111.111,697.222,55.556,L
1454,-0.125,1.955,-0.045,155.556,108.333,108.333,730.556,33.333,L
1455,0.180,2.330,-0.225,58.333,116.667,397.222,469.444,261.111,V
1456,-0.070,2.135,-0.065,144.444,100.000,100.000,1022.222,552.778,L
1457,-0.130,1.990,-0.070,147.222,111.111,111.111,783.333,238.889,L
1458,-0.155,2.005,-0.110,169.444,105.556,105.556,805.556,22.222,L
1459,-0.150,2.125,-0.155,183.333,113.889,113.889,813.889,8.333,L
1460,-0.190,2.185,-0.225,163.889,116.667,116.667,816.667,2.778,L
1461,-0.260,1.210,-0.005,122.222,88.889,327.778,461.111,355.556,V
1462,-0.175,1.875,-0.170,166.667,113.889,375.000,988.889,527.778,L
1463,-0.180,1.720,-0.160,194.444,111.111,111.111,794.444,194.444,L
1464,-0.275,1.710,-0.190,175.000,113.889,113.889,802.778,8.333,L
1465,-0.250,1.575,-0.160,177.778,111.111,111.111,816.667,13.889,L
1466,-0.215,1.910,-0.125,133.333,113.889,113.889,819.444,2.778,L
1467,-0.170,1.720,-0.105,177.778,83.333,369.444,788.889,30.556,L
1468,-0.090,1.855,-0.125,141.667,102.778,375.000,755.556,33.333,L
1469,-0.180,1.665,-0.185,166.667,116.667,358.333,725.000,30.556,L
1470,-0.185,1.675,-0.165,169.444,116.667,391.667,702.778,22.222,L
1471,-0.030,1.915,-0.045,161.111,105.556,111.111,708.333,5.556,L
1472,-0.095,1.820,-0.055,180.556,116.667,116.667,775.000,66.667,L
1473,-0.105,1.790,-0.145,186.111,113.889,113.889,783.333,8.333,L
1474,-0.155,1.690,-0.180,161.111,111.111,113.889,755.556,27.778,L
1475,-0.215,1.575,-0.260,183.333,113.889,113.889,738.889,16.667,L
1476,-0.370,1.450,-0.420,150.000,116.667,388.889,722.222,16.667,L
1477,-0.310,1.360,-0.260,177.778,111.111,355.556,677.778,44.444,L
1478,-0.205,1.500,-0.130,163.889,113.889,113.889,669.444,8.333,L
1479,-0.150,1.730,0.010,175.000,105.556,105.556,677.778,8.333,L
1480,-0.010,1.165,1.785,58.333,86.111,111.111,591.667,86.111,V
1481,0.020,2.140,0.080,188.889,105.556,105.556,772.222,180.556,L
1482,0.040,2.065,0.085,191.667,108.333,108.333,769.444,2.778,L
1483,0.015,1.930,0.125,188.889,113.889,113.889,733.333,36.111,L
1484,0.025,1.790,0.120,155.556,108.333,108.333,686.111,47.222,L
1485,0.030,2.060,0.090,138.889,116.667,116.667,663.889,22.222,L
1486,0.060,2.120,0.065,152.778,102.778,102.778,647.222,16.667,L
1487,0.045,2.150,0.050,144.444,102.778,102.778,647.222,0.000,L
1488,0.525,2.800,-0.100,58.333,116.667,397.222,494.444,152.778,V
1489,0.095,2.190,0.145,177.778,113.889,113.889,886.111,391.667,L
1490,0.135,2.055,0.170,169.444,116.667,119.444,708.333,177.778,L
1491,0.080,1.965,0.185,177.778,111.111,111.111,738.889,30.556,L
1492,0.060,1.690,0.175,180.556,111.111,111.111,786.111,47.222,L
1493,-0.015,1.760,0.075,166.667,116.667,116.667,736.111,50.000,L
1494,0.005,1.940,0.060,166.667,105.556,105.556,686.111,50.000,L
1495,0.190,2.590,-0.115,58.333,116.667,394.444,480.556,205.556,V
1496,0.060,2.110,0.130,150.000,100.000,100.000,922.222,441.667,L
1497,0.135,2.165,0.150,166.667,116.667,116.667,747.222,175.000,L
1498,0.010,2.185,0.005,166.667,116.667,116.667,783.333,36.111,L
1499,0.015,2.215,0.030,155.556,108.333,108.333,775.000,8.333,L
1500,-0.010,2.110,0.105,180.556,116.667,116.667,777.778,2.778,L
1501,-0.015,2.215,0.055,147.222,102.778,102.778,800.000,22.222,L
1502,-0.005,1.520,0.425,138.889,75.000,294.444,475.000,325.000,V
1503,-0.030,2.385,0.010,150.000,116.667,116.667,1094.444,619.444,L
1504,0.015,2.280,0.095,175.000,102.778,108.333,755.556,338.889,L
1505,-0.050,2.195,0.080,175.000,108.333,108.333,816.667,61.111,L
1506,-0.040,1.610,1.140,55.556,108.333,344.444,450.000,366.667,V
1507,-0.110,2.275,-0.025,61.111,108.333,108.333,1338.889,888.889,L
1508,-0.095,2.025,-0.005,172.222,111.111,111.111,863.889,475.000,L
1509,-0.125,2.095,-0.030,177.778,102.778,102.778,816.667,47.222,L
1510,-0.095,2.195,-0.075,163.889,116.667,116.667,805.556,11.111,L
1511,-0.115,2.060,-0.100,177.778,108.333,108.333,833.333,27.778,L
1512,-0.200,1.025,0.310,177.778,91.667,322.222,544.444,288.889,V
1513,-0.140,2.100,-0.085,166.667,116.667,116.667,1175.000,630.556,L
1514,-0.120,2.015,0.045,186.111,108.333,108.333,905.556,269.444,L
1515,-0.050,2.020,0.075,172.222,102.778,105.556,886.111,19.444,L
1516,-0.055,2.095,0.020,155.556,102.778,102.778,816.667,69.444,L
1517,-0.060,2.170,0.065,158.333,111.111,111.111,772.222,44.444,L
1518,-0.060,2.100,0.095,194.444,111.111,111.111,850.000,77.778,L
1519,-0.085,1.110,0.410,136.111,91.667,336.111,461.111,388.889,V
1520,-0.090,2.150,-0.010,169.444,108.333,108.333,1266.667,805.556,L
1521,-0.095,2.085,-0.005,188.889,105.556,105.556,883.333,383.333,L
1522,-0.065,2.040,0.075,194.444,108.333,108.333,858.333,25.000,L
1523,-0.070,2.070,0.060,175.000,105.556,105.556,847.222,11.111,L
1524,-0.070,2.065,0.010,169.444,102.778,102.778,777.778,69.444,L
1525,-0.110,1.990,0.005,161.111,108.333,108.333,791.667,13.889,L
1526,-0.155,1.985,0.030,197.222,113.889,113.889,886.111,94.444,L
1527,-0.180,2.020,0.005,186.111,116.667,116.667,905.556,19.444,L
1528,-0.220,1.885,0.005,180.556,111.111,111.111,911.111,5.556,L
1529,-0.215,1.035,0.365,130.556,86.111,325.000,502.778,408.333,V
1530,-0.195,2.035,-0.065,155.556,105.556,105.556,1308.333,805.556,L
1531,-0.185,2.060,-0.030,175.000,105.556,105.556,850.000,458.333,L
1532,-0.145,2.035,-0.035,172.222,105.556,105.556,850.000,0.000,L
1533,-0.160,1.970,-0.030,183.333,105.556,105.556,847.222,2.778,L
1534,-0.140,1.995,0.030,194.444,113.889,113.889,944.444,97.222,L
1535,-0.165,2.005,0.035,63.889,111.111,111.111,952.778,8.333,L
1536,-0.145,1.140,0.425,116.667,83.333,308.333,486.111,466.667,V
1537,-0.160,2.090,-0.090,172.222,108.333,108.333,1275.000,788.889,L
1538,-0.145,1.960,-0.070,161.111,102.778,102.778,805.556,469.444,L
1539,-0.145,1.970,-0.030,186.111,108.333,108.333,872.222,66.667,L
1540,-0.150,2.010,-0.045,194.444,108.333,108.333,875.000,2.778,L
1541,-0.155,2.125,-0.050,180.556,116.667,116.667,858.333,16.667,L
1542,-0.155,2.115,0.045,197.222,113.889,113.889,961.111,102.778,L
1543,-0.090,2.180,-0.025,169.444,102.778,102.778,875.000,86.111,L
1544,-0.100,2.015,-0.060,175.000,111.111,111.111,808.333,66.667,L
1545,-0.125,1.925,-0.065,169.444,102.778,102.778,825.000,16.667,L
1546,-0.155,2.005,-0.060,175.000,105.556,105.556,822.222,2.778,L
1547,-0.190,1.895,-0.010,188.889,113.889,113.889,900.000,77.778,L
1548,-0.130,1.195,0.680,58.333,94.444,400.000,569.444,330.556,V
1549,-0.280,1.930,-0.235,180.556,113.889,113.889,1222.222,652.778,L
1550,-0.300,0.125,1.035,158.333,80.556,333.333,513.889,708.333,V
1551,-0.275,1.895,-0.255,158.333,105.556,105.556,1166.667,652.778,L
1552,-0.215,1.750,-0.225,150.000,111.111,111.111,747.222,419.444,L
1553,-0.175,1.890,-0.130,163.889,111.111,111.111,772.222,25.000,L
1554,-0.125,1.800,-0.120,172.222,116.667,116.667,777.778,5.556,L
1555,-0.165,1.860,-0.085,158.333,111.111,111.111,836.111,58.333,L
1556,-0.215,1.470,0.990,75.000,116.667,391.667,463.889,372.222,V
1557,-0.215,1.990,-0.205,169.444,102.778,102.778,1213.889,750.000,L
1558,-0.230,1.760,-0.165,161.111,111.111,111.111,741.667,472.222,L
1559,-0.170,2.010,-0.135,163.889,113.889,113.889,736.111,5.556,L
1560,-0.085,2.080,-0.110,177.778,111.111,111.111,733.333,2.778,L
1561,-0.150,2.075,-0.105,152.778,113.889,113.889,733.333,0.000,L
1562,-0.125,2.050,-0.050,175.000,111.111,111.111,763.889,30.556,L
1563,-0.105,1.940,-0.055,183.333,113.889,113.889,791.667,27.778,L
1564,-0.100,2.070,0.045,188.889,108.333,108.333,825.000,33.333,L
1565,-0.100,2.120,-0.075,197.222,102.778,102.778,808.333,16.667,L
1566,-0.125,1.915,-0.080,147.222,116.667,116.667,716.667,91.667,L
1567,-0.035,2.080,-0.010,152.778,116.667,116.667,688.889,27.778,L
1568,-0.010,1.950,0.065,177.778,116.667,116.667,741.667,52.778,L
1569,0.400,2.500,-0.160,58.333,116.667,397.222,502.778,238.889,V
1570,0.025,2.075,0.110,155.556,108.333,108.333,1058.333,555.556,L
1571,0.025,1.925,0.165,175.000,105.556,105.556,800.000,258.333,L
1572,-0.010,1.955,0.100,183.333,102.778,102.778,830.556,30.556,L
1573,0.030,2.035,0.115,180.556,108.333,108.333,827.778,2.778,L
1574,-0.010,1.395,0.390,130.556,83.333,288.889,497.222,330.556,V
1575,0.015,1.845,0.075,144.444,111.111,111.111,1019.444,522.222,L
1576,0.040,2.015,0.145,177.778,113.889,113.889,769.444,250.000,L
1577,-0.020,1.365,0.410,113.889,94.444,352.778,497.222,272.222,V
1578,-0.010,1.940,0.105,155.556,113.889,113.889,1194.444,697.222,L
1579,-0.010,1.960,0.095,183.333,116.667,116.667,813.889,380.556,L
1580,-0.065,1.230,0.355,130.556,88.889,347.222,494.444,319.444,V
1581,-0.025,1.855,0.080,163.889,102.778,102.778,1072.222,577.778,L
1582,-0.005,1.890,0.085,169.444,113.889,116.667,733.333,338.889,L
1583,-0.010,1.905,0.080,155.556,116.667,116.667,700.000,33.333,L
1584,-0.015,2.025,0.055,161.111,108.333,108.333,727.778,27.778,L
1585,0.030,1.895,0.150,180.556,116.667,116.667,738.889,11.111,L
1586,-0.020,1.330,0.310,161.111,97.222,355.556,527.778,211.111,V
1587,0.000,1.805,0.145,177.778,108.333,108.333,1086.111,558.333,L
1588,-0.005,1.780,0.070,197.222,113.889,113.889,752.778,333.333,L
1589,0.005,2.025,0.135,138.889,102.778,102.778,719.444,33.333,L
1590,0.040,1.890,0.110,161.111,108.333,108.333,675.000,44.444,L
1591,0.005,2.075,0.140,166.667,105.556,105.556,694.444,19.444,L
1592,0.010,1.250,0.485,94.444,94.444,316.667,488.889,205.556,V
1593,0.515,2.495,-0.065,58.333,116.667,402.778,413.889,75.000,V
1594,0.075,2.135,0.195,155.556,102.778,105.556,1252.778,838.889,L
1595,0.060,2.140,0.110,188.889,111.111,111.111,816.667,436.111,L
1596,-0.020,1.850,1.365,61.111,97.222,358.333,452.778,363.889,V
1597,-0.110,2.150,-0.085,158.333,105.556,105.556,1130.556,677.778,L
1598,-0.090,2.140,-0.080,147.222,111.111,111.111,688.889,441.667,L
1599,-0.090,1.785,1.270,55.556,105.556,313.889,391.667,297.222,V
1600,-0.095,2.140,-0.045,161.111,108.333,108.333,1052.778,661.111,L
1601,-0.060,2.105,-0.015,177.778,116.667,116.667,758.333,294.444,L
1602,-0.075,1.585,1.270,58.333,111.111,361.111,411.111,347.222,V
1603,-0.090,2.070,-0.020,172.222,108.333,108.333,1113.889,702.778,L
1604,-0.030,2.005,0.030,169.444,116.667,116.667,797.222,316.667,L
1605,-0.025,2.125,-0.075,147.222,113.889,377.778,744.444,52.778,L
1606,-0.005,1.925,-0.045,147.222,116.667,116.667,686.111,58.333,L
1607,-0.030,2.100,-0.100,158.333,111.111,111.111,677.778,8.333,L
1608,-0.085,2.050,-0.060,147.222,113.889,113.889,722.222,44.444,L
1609,-0.035,2.155,-0.010,186.111,116.667,116.667,752.778,30.556,L
1610,-0.040,2.120,0.030,183.333,113.889,113.889,816.667,63.889,L
1611,-0.070,2.090,0.010,172.222,116.667,119.444,822.222,5.556,L
1612,-0.020,2.175,0.030,180.556,111.111,111.111,825.000,2.778,L
1613,-0.015,2.165,0.030,172.222,105.556,105.556,827.778,2.778,L
1614,-0.030,2.180,0.000,161.111,116.667,116.667,780.556,47.222,L
1615,0.005,2.265,0.020,175.000,108.333,108.333,786.111,5.556,L
1616,-0.020,2.060,0.085,186.111,105.556,105.556,797.222,11.111,L
1617,-0.015,2.230,0.080,183.333,111.111,111.111,830.556,33.333,L
1618,-0.035,2.110,0.155,197.222,116.667,116.667,913.889,83.333,L
1619,-0.065,2.120,0.055,186.111,111.111,111.111,905.556,8.333,L
1620,-0.080,2.140,0.015,180.556,102.778,102.778,850.000,55.556,L
1621,-0.100,1.890,0.020,183.333,102.778,102.778,816.667,33.333,L
1622,-0.140,1.890,-0.025,183.333,100.000,100.000,836.111,19.444,L
1623,-0.135,2.000,0.005,180.556,113.889,113.889,861.111,25.000,L
1624,-0.150,1.920,0.035,172.222,105.556,105.556,861.111,0.000,L
1625,-0.185,1.920,0.020,175.000,105.556,105.556,900.000,38.889,L
1626,-0.160,1.935,0.115,186.111,111.111,111.111,930.556,30.556,L
1627,-0.165,1.890,-0.005,169.444,102.778,102.778,897.222,33.333,L
1628,-0.150,1.895,0.000,172.222,100.000,100.000,805.556,91.667,L
1629,-0.155,1.970,0.075,177.778,102.778,102.778,805.556,0.000,L
1630,-0.115,2.005,0.025,180.556,105.556,105.556,869.444,63.889,L
1631,-0.190,1.325,1.225,63.889,113.889,377.778,416.667,452.778,V
1632,-0.200,2.090,-0.145,166.667,108.333,108.333,1322.222,905.556,L
1633,-0.135,1.985,-0.035,186.111,105.556,105.556,833.333,488.889,L
1634,-0.170,1.920,-0.020,166.667,102.778,102.778,797.222,36.111,L
1635,-0.150,1.940,0.005,163.889,111.111,111.111,763.889,33.333,L
1636,-0.100,2.055,-0.010,141.667,102.778,102.778,727.778,36.111,L
1637,-0.195,1.405,1.165,69.444,116.667,336.111,397.222,330.556,V
1638,-0.175,1.990,-0.040,155.556,108.333,111.111,1152.778,755.556,L
1639,-0.175,1.935,-0.060,144.444,108.333,108.333,825.000,327.778,L
1640,-0.135,2.015,-0.090,155.556,105.556,105.556,811.111,13.889,L
1641,-0.160,2.075,-0.060,158.333,108.333,108.333,786.111,25.000,L
1642,-0.180,1.970,-0.160,147.222,108.333,108.333,772.222,13.889,L
1643,-0.155,2.075,-0.135,163.889,105.556,105.556,730.556,41.667,L
1644,-0.120,2.100,-0.110,169.444,108.333,111.111,758.333,27.778,L
1645,-0.100,2.095,-0.040,166.667,111.111,111.111,763.889,5.556,L
1646,-0.140,2.050,-0.120,144.444,105.556,105.556,775.000,11.111,L
1647,-0.140,2.110,-0.095,186.111,113.889,113.889,816.667,41.667,L
1648,0.455,2.420,-0.315,58.333,116.667,400.000,555.556,261.111,V
1649,-0.070,2.180,-0.060,150.000,113.889,113.889,1102.778,547.222,L
1650,-0.055,2.100,-0.125,175.000,105.556,108.333,713.889,388.889,L
1651,-0.145,1.775,1.130,86.111,113.889,338.889,391.667,322.222,V
1652,-0.145,2.005,-0.160,175.000,108.333,108.333,991.667,600.000,L
1653,-0.145,1.940,-0.140,186.111,105.556,108.333,711.111,280.556,L
1654,-0.140,1.925,-0.075,175.000,113.889,113.889,758.333,47.222,L
1655,-0.145,1.925,-0.140,175.000,105.556,105.556,744.444,13.889,L
1656,-0.095,2.025,-0.050,161.111,111.111,111.111,736.111,8.333,L
1657,-0.080,2.020,0.115,191.667,111.111,111.111,800.000,63.889,L
1658,-0.090,2.145,-0.110,155.556,108.333,108.333,730.556,69.444,L
1659,-0.045,2.070,-0.080,150.000,116.667,375.000,694.444,36.111,L
1660,-0.050,2.000,0.015,141.667,108.333,108.333,725.000,30.556,L
1661,-0.020,2.005,0.025,158.333,102.778,105.556,769.444,44.444,L
1662,0.025,1.910,0.105,177.778,111.111,111.111,836.111,66.667,L
1663,-0.035,1.850,0.020,166.667,116.667,116.667,902.778,66.667,L
1664,-0.075,1.995,-0.010,172.222,105.556,108.333,888.889,13.889,L
1665,-0.110,2.000,-0.025,188.889,108.333,108.333,852.778,36.111,L
1666,-0.190,1.955,-0.085,177.778,100.000,100.000,858.333,5.556,L
1667,-0.130,1.930,-0.050,172.222,102.778,102.778,808.333,50.000,L
1668,-0.140,2.035,-0.025,175.000,108.333,108.333,852.778,44.444,L
1669,-0.135,2.120,0.010,177.778,105.556,105.556,905.556,52.778,L
1670,-0.135,0.215,1.595,63.889,116.667,377.778,602.778,302.778,V
1671,-0.230,2.110,-0.085,180.556,108.333,108.333,1333.333,730.556,L
1672,-0.210,1.875,-0.045,163.889,111.111,111.111,863.889,469.444,L
1673,-0.190,2.000,-0.020,172.222,105.556,105.556,861.111,2.778,L
1674,-0.205,1.990,-0.085,172.222,105.556,105.556,883.333,22.222,L
1675,-0.160,1.975,-0.010,172.222,102.778,102.778,886.111,2.778,L
1676,-0.165,2.080,0.035,175.000,108.333,108.333,900.000,13.889,L
1677,-0.125,2.030,0.165,191.667,108.333,108.333,950.000,50.000,L
1678,-0.110,2.045,0.115,186.111,113.889,113.889,977.778,27.778,L
1679,-0.080,2.085,0.065,166.667,102.778,102.778,869.444,108.333,L
1680,-0.035,1.995,0.105,175.000,113.889,113.889,841.667,27.778,L
1681,0.015,1.960,0.265,177.778,113.889,113.889,902.778,61.111,L
1682,0.035,2.080,0.280,194.444,111.111,111.111,950.000,47.222,L
1683,0.035,2.095,0.250,197.222,111.111,111.111,933.333,16.667,L
1684,-0.055,2.030,0.195,188.889,105.556,105.556,975.000,41.667,L
1685,0.000,2.180,0.110,175.000,105.556,105.556,922.222,52.778,L
1686,-0.030,2.140,0.035,166.667,113.889,113.889,888.889,33.333,L
1687,-0.085,2.150,0.005,163.889,108.333,108.333,850.000,38.889,L
1688,-0.080,2.275,0.090,177.778,111.111,111.111,880.556,30.556,L
1689,-0.030,2.280,0.275,191.667,111.111,111.111,1013.889,133.333,L
1690,-0.030,2.180,0.125,197.222,111.111,111.111,1005.556,8.333,L
1691,-0.010,2.225,0.115,177.778,113.889,113.889,919.444,86.111,L
1692,0.020,2.150,0.165,163.889,108.333,108.333,880.556,38.889,L
1693,0.020,2.195,0.090,175.000,108.333,108.333,847.222,33.333,L
1694,0.035,2.220,0.100,169.444,116.667,116.667,858.333,11.111,L
1695,0.060,2.055,0.210,177.778,108.333,108.333,877.778,19.444,L
1696,0.020,2.225,0.120,194.444,116.667,116.667,922.222,44.444,L
1697,0.020,2.115,0.170,175.000,105.556,105.556,941.667,19.444,L
1698,0.010,2.075,0.110,166.667,102.778,102.778,897.222,44.444,L
1699,0.015,2.120,0.090,161.111,111.111,111.111,788.889,108.333,L
1700,0.055,2.105,0.080,155.556,108.333,108.333,747.222,41.667,L
1701,0.085,2.180,0.165,172.222,116.667,116.667,797.222,50.000,L
1702,-0.005,2.110,0.050,163.889,108.333,108.333,822.222,25.000,L
1703,-0.040,1.460,1.365,58.333,108.333,375.000,433.333,388.889,V
1704,-0.100,1.995,0.040,158.333,111.111,111.111,1216.667,783.333,L
1705,-0.105,1.990,-0.015,172.222,105.556,105.556,866.667,350.000,L
1706,-0.080,2.090,-0.020,147.222,111.111,111.111,772.222,94.444,L
1707,-0.025,2.065,0.010,152.778,105.556,105.556,725.000,47.222,L
1708,-0.065,1.975,0.050,177.778,111.111,111.111,755.556,30.556,L
1709,-0.050,2.050,0.080,169.444,116.667,116.667,775.000,19.444,L
1710,-0.045,1.935,0.165,194.444,113.889,113.889,861.111,86.111,L
1711,-0.080,1.920,0.080,175.000,108.333,108.333,880.556,19.444,L
1712,-0.075,2.165,0.040,175.000,108.333,108.333,866.667,13.889,L
1713,-0.090,1.920,0.090,175.000,108.333,108.333,900.000,33.333,L
1714,-0.145,1.995,-0.060,169.444,105.556,105.556,844.444,55.556,L
1715,-0.105,2.155,0.050,169.444,105.556,105.556,800.000,44.444,L
1716,-0.080,2.135,0.145,183.333,116.667,116.667,883.333,83.333,L
1717,-0.090,2.110,0.180,197.222,108.333,108.333,930.556,47.222,L
1718,-0.135,2.125,0.100,188.889,111.111,111.111,975.000,44.444,L
1719,-0.145,2.245,0.155,186.111,105.556,105.556,933.333,41.667,L
1720,-0.125,2.160,0.105,169.444,116.667,116.667,880.556,52.778,L
1721,-0.145,2.240,-0.065,180.556,105.556,105.556,894.444,13.889,L
1722,-0.130,2.115,0.100,175.000,102.778,102.778,861.111,33.333,L
1723,-0.085,2.070,0.140,186.111,105.556,105.556,880.556,19.444,L
1724,-0.125,1.990,0.125,177.778,102.778,105.556,938.889,58.333,L
1725,-0.065,2.090,0.210,180.556,111.111,111.111,936.111,2.778,L
1726,-0.030,2.175,0.155,169.444,102.778,102.778,944.444,8.333,L
1727,-0.075,2.035,0.065,172.222,102.778,102.778,850.000,94.444,L
1728,-0.005,2.080,0.165,158.333,105.556,105.556,802.778,47.222,L
1729,0.005,1.200,1.475,69.444,116.667,358.333,411.111,391.667,V
1730,-0.060,2.055,0.060,175.000,111.111,111.111,1258.333,847.222,L
1731,-0.055,1.995,0.000,166.667,116.667,116.667,805.556,452.778,L
1732,-0.030,2.150,-0.010,175.000,108.333,108.333,811.111,5.556,L
1733,-0.055,2.090,0.050,197.222,113.889,113.889,808.333,2.778,L
1734,-0.115,2.025,0.005,158.333,108.333,108.333,775.000,33.333,L
1735,-0.095,2.140,-0.030,150.000,102.778,102.778,711.111,63.889,L
1736,-0.030,2.210,-0.015,155.556,105.556,105.556,719.444,8.333,L
1737,-0.110,2.130,-0.090,155.556,102.778,102.778,752.778,33.333,L
1738,-0.085,2.075,-0.055,172.222,105.556,105.556,800.000,47.222,L
1739,-0.120,2.020,-0.135,197.222,116.667,116.667,825.000,25.000,L
1740,-0.170,2.065,-0.180,188.889,105.556,105.556,777.778,47.222,L
1741,-0.125,2.025,-0.125,183.333,116.667,119.444,791.667,13.889,L
1742,-0.185,1.000,0.295,138.889,91.667,322.222,455.556,336.111,V
1743,-0.125,2.070,-0.115,147.222,94.444,377.778,1005.556,550.000,L
1744,-0.055,2.070,-0.080,166.667,105.556,105.556,711.111,294.444,L
1745,-0.150,1.485,1.105,75.000,102.778,327.778,402.778,308.333,V
1746,-0.235,1.905,-0.200,177.778,108.333,108.333,1069.444,666.667,L
1747,-0.145,1.870,-0.200,183.333,113.889,388.889,822.222,247.222,L
1748,-0.190,1.785,-0.210,194.444,111.111,116.667,775.000,47.222,L
1749,-0.170,2.040,-0.195,172.222,116.667,397.222,722.222,52.778,L
1750,-0.145,2.000,-0.195,155.556,108.333,108.333,697.222,25.000,L
1751,-0.170,1.885,-0.175,177.778,94.444,97.222,669.444,27.778,L
1752,-0.180,2.085,-0.185,141.667,105.556,108.333,680.556,11.111,L
1753,-0.100,1.995,-0.095,180.556,102.778,105.556,738.889,58.333,L
1754,-0.100,1.895,-0.065,166.667,108.333,111.111,738.889,0.000,L
1755,-0.160,1.685,-0.055,158.333,108.333,108.333,788.889,50.000,L
1756,-0.185,1.745,-0.050,194.444,113.889,113.889,869.444,80.556,L
1757,-0.190,0.245,1.530,161.111,102.778,363.889,550.000,319.444,V
1758,0.020,0.795,1.420,197.222,94.444,122.222,611.111,61.111,V
1759,-0.125,2.140,-0.035,158.333,108.333,375.000,1222.222,611.111,L
1760,-0.050,1.995,-0.040,166.667,116.667,116.667,741.667,480.556,L
1761,-0.090,2.145,-0.005,175.000,111.111,111.111,777.778,36.111,L
1762,-0.055,2.120,-0.050,180.556,105.556,105.556,838.889,61.111,L
1763,-0.110,2.145,-0.045,183.333,116.667,116.667,819.444,19.444,L
1764,-0.060,2.050,0.025,188.889,105.556,105.556,822.222,2.778,L
1765,-0.090,2.010,-0.025,186.111,105.556,105.556,863.889,41.667,L
1766,-0.100,2.190,-0.060,144.444,108.333,108.333,788.889,75.000,L
1767,-0.035,2.155,0.030,152.778,116.667,116.667,791.667,2.778,L
1768,-0.045,1.870,0.075,177.778,116.667,116.667,847.222,55.556,L
1769,-0.110,1.820,0.050,183.333,113.889,113.889,866.667,19.444,L
1770,-0.090,2.150,0.025,183.333,113.889,113.889,916.667,50.000,L
1771,0.060,2.055,0.215,172.222,111.111,111.111,930.556,13.889,L
1772,0.020,1.990,0.125,175.000,108.333,108.333,863.889,66.667,L
1773,-0.075,1.825,0.055,177.778,116.667,116.667,838.889,25.000,L
1774,-0.115,1.870,0.030,166.667,102.778,102.778,838.889,0.000,L
1775,-0.125,1.990,-0.075,150.000,116.667,116.667,800.000,38.889,L
1776,-0.065,2.110,0.045,155.556,116.667,119.444,819.444,19.444,L
1777,-0.030,1.915,0.060,172.222,108.333,108.333,833.333,13.889,L
1778,-0.075,1.945,0.120,177.778,111.111,111.111,872.222,38.889,L
1779,-0.090,1.780,-0.065,155.556,105.556,105.556,861.111,11.111,L
1780,-0.155,1.645,-0.080,141.667,105.556,105.556,769.444,91.667,L
1781,-0.145,1.650,0.040,138.889,97.222,97.222,750.000,19.444,L
1782,-0.130,1.650,0.010,183.333,102.778,102.778,813.889,63.889,L
1783,-0.215,0.800,0.895,66.667,113.889,369.444,400.000,413.889,V
1784,-0.180,1.895,-0.080,155.556,108.333,108.333,1186.111,786.111,L
1785,-0.060,1.605,0.085,188.889,116.667,116.667,800.000,386.111,L
1786,-0.105,1.245,0.225,136.111,86.111,341.667,497.222,302.778,V
1787,-0.155,1.905,-0.130,155.556,105.556,105.556,1002.778,505.556,L
1788,-0.075,1.650,-0.155,158.333,105.556,347.222,683.333,319.444,L
1789,-0.100,1.750,-0.125,158.333,108.333,108.333,669.444,13.889,L
1790,-0.160,1.825,-0.120,166.667,116.667,116.667,661.111,8.333,L
1791,-0.055,1.755,-0.040,177.778,113.889,113.889,711.111,50.000,L
1792,-0.095,1.775,0.040,180.556,111.111,111.111,750.000,38.889,L
1793,-0.110,1.680,-0.070,194.444,108.333,108.333,780.556,30.556,L
1794,-0.155,1.655,-0.040,166.667,116.667,116.667,772.222,8.333,L
1795,-0.110,1.725,-0.045,169.444,116.667,116.667,788.889,16.667,L
1796,-0.155,1.610,-0.015,161.111,105.556,105.556,738.889,50.000,L
1797,-0.110,1.735,0.020,147.222,116.667,116.667,738.889,0.000,L
1798,-0.215,0.980,0.230,147.222,86.111,325.000,452.778,286.111,V
1799,-0.220,1.645,-0.100,163.889,111.111,111.111,1047.222,594.444,L
1800,-0.150,1.840,-0.005,188.889,108.333,108.333,794.444,252.778,L
1801,-0.160,1.990,-0.060,152.778,116.667,116.667,811.111,16.667,L
1802,-0.145,2.025,-0.110,155.556,105.556,105.556,802.778,8.333,L
1803,-0.215,1.745,-0.095,163.889,116.667,116.667,730.556,72.222,L
1804,-0.185,1.350,0.230,141.667,94.444,311.111,455.556,275.000,V
1805,-0.220,1.870,-0.215,166.667,116.667,116.667,1061.111,605.556,L
1806,-0.200,1.655,-0.035,188.889,105.556,105.556,788.889,272.222,L
1807,-0.290,1.815,-0.155,180.556,111.111,111.111,772.222,16.667,L
1808,-0.270,2.055,-0.190,177.778,102.778,105.556,761.111,11.111,L
1809,-0.190,2.135,-0.095,194.444,113.889,113.889,838.889,77.778,L
1810,-0.190,1.375,0.200,150.000,94.444,325.000,541.667,297.222,V
1811,-0.280,2.115,-0.270,138.889,102.778,369.444,1105.556,563.889,L
1812,-0.190,2.050,-0.190,155.556,108.333,108.333,716.667,388.889,L
1813,-0.230,1.415,0.080,197.222,83.333,308.333,508.333,208.333,V
1814,-0.185,2.030,-0.085,172.222,108.333,108.333,1175.000,666.667,L
1815,-0.165,1.850,-0.040,158.333,108.333,108.333,886.111,288.889,L
1816,-0.230,2.090,-0.125,188.889,108.333,108.333,866.667,19.444,L
1817,-0.150,1.955,-0.025,188.889,108.333,108.333,900.000,33.333,L
1818,-0.155,1.910,-0.090,163.889,116.667,116.667,875.000,25.000,L
1819,-0.175,1.340,0.255,191.667,83.333,300.000,525.000,350.000,V
1820,-0.145,2.060,-0.015,155.556,116.667,116.667,1091.667,566.667,L
1821,-0.150,2.100,0.005,161.111,105.556,105.556,811.111,280.556,L
1822,-0.150,2.115,-0.085,169.444,113.889,113.889,888.889,77.778,L
1823,-0.115,1.890,0.020,194.444,105.556,105.556,897.222,8.333,L
1824,-0.215,1.490,1.175,125.000,116.667,372.222,472.222,425.000,V
1825,-0.135,2.130,-0.105,141.667,100.000,108.333,1205.556,733.333,L
1826,-0.090,2.195,-0.055,147.222,116.667,122.222,761.111,444.444,L
1827,-0.110,2.210,-0.045,197.222,116.667,116.667,763.889,2.778,L
1828,-0.040,2.020,-0.035,169.444,113.889,116.667,755.556,8.333,L
1829,-0.025,2.065,0.010,161.111,116.667,116.667,811.111,55.556,L
1830,-0.080,1.920,0.030,161.111,111.111,111.111,830.556,19.444,L
1831,-0.150,2.165,-0.070,197.222,111.111,111.111,869.444,38.889,L
1832,-0.125,2.225,-0.050,169.444,111.111,111.111,800.000,69.444,L
1833,-0.120,2.095,-0.170,188.889,111.111,344.444,747.222,52.778,L
1834,-0.055,2.100,-0.090,136.111,113.889,388.889,758.333,11.111,L
1835,-0.110,2.145,-0.020,197.222,108.333,113.889,830.556,72.222,L
1836,-0.040,2.270,-0.060,163.889,113.889,113.889,797.222,33.333,L
1837,-0.045,2.180,0.000,88.889,108.333,108.333,827.778,30.556,L
1838,-0.025,1.980,-0.065,158.333,105.556,391.667,866.667,38.889,L
1839,-0.045,2.185,-0.040,69.444,102.778,102.778,863.889,2.778,L
1840,-0.060,2.140,-0.135,172.222,113.889,113.889,861.111,2.778,L
1841,-0.080,2.145,-0.090,136.111,113.889,355.556,769.444,91.667,L
1842,-0.050,2.145,-0.080,188.889,108.333,108.333,805.556,36.111,L
1843,-0.120,1.905,-0.030,183.333,116.667,116.667,897.222,91.667,L
1844,-0.165,2.070,-0.115,61.111,105.556,105.556,891.667,5.556,L
1845,-0.115,2.110,-0.050,197.222,113.889,113.889,838.889,52.778,L
1846,-0.125,1.560,1.240,66.667,116.667,375.000,436.111,402.778,V
