id,Pamp,Ramp,Tamp,PR,QRS,QT,RRI,dRRI,label
1,-0.560,1.390,-0.435,97.222,66.667,336.111,844.444,13.889,N
2,-0.530,1.160,-0.390,88.889,63.889,344.444,825.000,19.444,N
3,-0.525,1.195,-0.330,102.778,72.222,350.000,847.222,22.222,N
4,-0.530,1.325,-0.380,100.000,69.444,350.000,827.778,19.444,N
5,-0.525,1.540,-0.385,108.333,77.778,358.333,847.222,19.444,N
6,-0.505,1.365,-0.355,105.556,63.889,327.778,841.667,5.556,N
7,-0.485,1.565,-0.295,105.556,77.778,347.222,830.556,11.111,N
8,-0.475,1.495,-0.345,91.667,63.889,352.778,841.667,11.111,N
9,-0.480,1.430,-0.355,102.778,72.222,350.000,844.444,2.778,N
10,-0.505,1.460,-0.410,94.444,75.000,344.444,813.889,30.556,N
11,-0.510,1.580,-0.330,97.222,77.778,355.556,838.889,25.000,N
12,-0.515,1.495,-0.370,91.667,61.111,341.667,833.333,5.556,N
13,-0.455,1.470,-0.340,108.333,80.556,363.889,850.000,16.667,N
14,-0.450,1.455,-0.335,102.778,77.778,350.000,836.111,13.889,N
15,-0.465,1.510,-0.330,111.111,61.111,322.222,822.222,13.889,N
16,-0.425,1.350,-0.270,108.333,77.778,355.556,850.000,27.778,N
17,-0.425,1.375,-0.275,97.222,66.667,347.222,852.778,2.778,N
18,-0.435,1.175,-0.305,97.222,80.556,350.000,813.889,38.889,N
19,-0.460,1.325,-0.330,102.778,63.889,347.222,850.000,36.111,N
20,-0.460,1.095,-0.305,100.000,66.667,341.667,827.778,22.222,N
21,-0.440,1.365,-0.265,97.222,66.667,338.889,844.444,16.667,N
22,-0.420,1.585,-0.300,102.778,75.000,341.667,838.889,5.556,N
23,-0.420,1.540,-0.315,102.778,75.000,341.667,811.111,27.778,N
24,-0.455,1.530,-0.325,102.778,63.889,338.889,847.222,36.111,N
25,-0.470,1.550,-0.280,100.000,72.222,350.000,838.889,8.333,N
26,-0.460,1.575,-0.320,100.000,58.333,322.222,825.000,13.889,N
27,-0.470,1.375,-0.315,108.333,61.111,322.222,830.556,5.556,N
28,-0.470,1.485,-0.340,102.778,77.778,344.444,830.556,0.000,N
29,-0.475,1.635,-0.295,100.000,72.222,327.778,847.222,16.667,N
30,-0.460,1.615,-0.290,97.222,58.333,327.778,819.444,27.778,N
31,-0.415,1.600,-0.320,105.556,75.000,350.000,822.222,2.778,N
32,-0.450,1.520,-0.340,100.000,61.111,327.778,844.444,22.222,N
33,-0.455,1.475,-0.300,102.778,75.000,347.222,830.556,13.889,N
34,-0.440,1.615,-0.265,102.778,72.222,338.889,825.000,5.556,N
35,-0.430,1.455,-0.245,102.778,66.667,327.778,847.222,22.222,N
36,-0.390,1.600,-0.275,102.778,69.444,341.667,827.778,19.444,N
37,-0.405,1.520,-0.310,97.222,61.111,313.889,850.000,22.222,N
38,-0.425,1.600,-0.235,91.667,58.333,322.222,825.000,25.000,N
39,-0.420,1.635,-0.290,97.222,72.222,350.000,819.444,5.556,N
40,-0.420,1.650,-0.310,102.778,69.444,347.222,861.111,41.667,N
41,-0.450,1.500,-0.325,102.778,77.778,350.000,841.667,19.444,N
42,-0.450,1.620,-0.280,100.000,72.222,341.667,822.222,19.444,N
43,-0.465,1.485,-0.285,102.778,72.222,333.333,850.000,27.778,N
44,-0.490,1.365,-0.365,100.000,69.444,344.444,825.000,25.000,N
45,-0.530,1.495,-0.400,97.222,61.111,327.778,855.556,30.556,N
46,-0.565,1.355,-0.350,94.444,58.333,322.222,827.778,27.778,N
47,-0.545,1.290,-0.340,97.222,80.556,366.667,836.111,8.333,N
48,-0.530,1.480,-0.395,102.778,66.667,327.778,866.667,30.556,N
49,-0.515,1.415,-0.395,94.444,63.889,327.778,833.333,33.333,N
50,-0.490,1.375,-0.320,100.000,75.000,347.222,813.889,19.444,N
51,-0.530,1.540,-0.295,97.222,75.000,344.444,841.667,27.778,N
52,-0.540,1.560,-0.360,97.222,66.667,341.667,825.000,16.667,N
53,-0.560,1.490,-0.385,94.444,66.667,330.556,813.889,11.111,N
54,-0.560,1.500,-0.335,97.222,66.667,338.889,816.667,2.778,N
55,-0.590,1.455,-0.350,105.556,58.333,350.000,816.667,0.000,N
56,-0.590,1.600,-0.400,94.444,69.444,341.667,841.667,25.000,N
57,-0.605,1.435,-0.420,94.444,63.889,325.000,830.556,11.111,N
58,-0.425,1.490,-0.370,130.556,41.667,283.333,538.889,291.667,A
59,-0.625,1.680,-0.390,94.444,66.667,344.444,977.778,438.889,N
60,-0.585,1.625,-0.405,97.222,66.667,350.000,861.111,116.667,N
61,-0.530,1.650,-0.375,91.667,66.667,330.556,861.111,0.000,N
62,-0.515,1.645,-0.375,94.444,66.667,341.667,855.556,5.556,N
63,-0.530,1.605,-0.315,94.444,66.667,350.000,850.000,5.556,N
64,-0.555,1.590,-0.330,100.000,66.667,338.889,880.556,30.556,N
65,-0.500,1.675,-0.360,94.444,72.222,350.000,855.556,25.000,N
66,-0.530,1.545,-0.445,94.444,55.556,338.889,819.444,36.111,N
67,-0.550,1.545,-0.405,97.222,72.222,350.000,827.778,8.333,N
68,-0.560,1.590,-0.410,100.000,72.222,358.333,852.778,25.000,N
69,-0.550,1.535,-0.445,100.000,69.444,347.222,838.889,13.889,N
70,-0.600,1.415,-0.510,100.000,72.222,347.222,816.667,22.222,N
71,-0.660,1.400,-0.560,102.778,63.889,350.000,838.889,22.222,N
72,-0.710,1.465,-0.575,97.222,66.667,341.667,841.667,2.778,N
73,-0.745,1.360,-0.585,94.444,80.556,366.667,819.444,22.222,N
74,-0.675,1.335,-0.580,102.778,55.556,338.889,833.333,13.889,N
75,-0.640,1.545,-0.545,102.778,66.667,350.000,844.444,11.111,N
76,-0.620,1.460,-0.450,105.556,77.778,361.111,852.778,8.333,N
77,-0.545,1.565,-0.380,97.222,66.667,338.889,847.222,5.556,N
78,-0.495,1.680,-0.390,100.000,75.000,358.333,836.111,11.111,N
79,-0.475,1.515,-0.370,105.556,66.667,347.222,866.667,30.556,N
80,-0.465,1.565,-0.335,105.556,77.778,344.444,850.000,16.667,N
81,-0.505,1.585,-0.350,102.778,77.778,347.222,833.333,16.667,N
82,-0.515,1.525,-0.405,97.222,63.889,338.889,847.222,13.889,N
83,-0.515,1.595,-0.420,102.778,72.222,347.222,847.222,0.000,N
84,-0.540,1.490,-0.385,94.444,66.667,344.444,850.000,2.778,N
85,-0.520,1.625,-0.375,102.778,75.000,347.222,850.000,0.000,N
86,-0.545,1.515,-0.410,105.556,58.333,330.556,847.222,2.778,N
87,-0.515,1.500,-0.425,100.000,75.000,347.222,855.556,8.333,N
88,-0.520,1.560,-0.425,94.444,63.889,341.667,852.778,2.778,N
89,-0.515,1.540,-0.345,100.000,72.222,350.000,844.444,8.333,N
90,-0.535,1.645,-0.415,105.556,72.222,352.778,844.444,0.000,N
91,-0.500,1.605,-0.395,108.333,77.778,355.556,863.889,19.444,N
92,-0.510,1.605,-0.420,102.778,61.111,330.556,844.444,19.444,N
93,-0.535,1.615,-0.365,91.667,63.889,338.889,825.000,19.444,N
94,-0.515,1.635,-0.380,100.000,75.000,358.333,861.111,36.111,N
95,-0.520,1.545,-0.440,100.000,58.333,322.222,844.444,16.667,N
96,-0.515,1.480,-0.410,94.444,72.222,350.000,816.667,27.778,N
97,-0.550,1.485,-0.395,102.778,72.222,341.667,833.333,16.667,N
98,-0.565,1.650,-0.400,105.556,80.556,350.000,822.222,11.111,N
99,-0.560,1.660,-0.410,105.556,69.444,344.444,838.889,16.667,N
100,-0.530,1.410,-0.430,102.778,66.667,330.556,822.222,16.667,N
101,-0.530,1.485,-0.440,100.000,77.778,363.889,802.778,19.444,N
102,-0.535,1.615,-0.365,105.556,75.000,352.778,861.111,58.333,N
103,-0.495,1.690,-0.325,100.000,75.000,350.000,855.556,5.556,N
104,-0.515,1.725,-0.395,100.000,77.778,347.222,819.444,36.111,N
105,-0.540,1.475,-0.405,105.556,72.222,333.333,836.111,16.667,N
106,-0.525,1.570,-0.355,108.333,77.778,350.000,825.000,11.111,N
107,-0.525,1.635,-0.310,111.111,58.333,322.222,838.889,13.889,N
108,-0.500,1.685,-0.350,105.556,77.778,344.444,827.778,11.111,N
109,-0.535,1.690,-0.360,105.556,75.000,355.556,819.444,8.333,N
110,-0.470,1.420,-0.345,102.778,75.000,341.667,838.889,19.444,N
111,-0.480,1.540,-0.290,102.778,69.444,325.000,827.778,11.111,N
112,-0.525,1.570,-0.325,97.222,75.000,338.889,811.111,16.667,N
113,-0.525,1.430,-0.380,97.222,69.444,330.556,827.778,16.667,N
114,-0.560,1.590,-0.415,97.222,72.222,347.222,833.333,5.556,N
115,-0.595,1.610,-0.375,94.444,66.667,327.778,858.333,25.000,N
116,-0.590,1.490,-0.400,100.000,75.000,338.889,850.000,8.333,N
117,-0.620,1.560,-0.470,111.111,72.222,350.000,850.000,0.000,N
118,-0.605,1.535,-0.480,97.222,69.444,338.889,866.667,16.667,N
119,-0.595,1.435,-0.410,100.000,75.000,338.889,852.778,13.889,N
120,-0.595,1.545,-0.415,91.667,63.889,350.000,844.444,8.333,N
121,-0.570,1.370,-0.435,97.222,75.000,355.556,847.222,2.778,N
122,-0.585,1.555,-0.470,108.333,72.222,352.778,866.667,19.444,N
123,-0.605,1.260,-0.455,102.778,61.111,338.889,855.556,11.111,N
124,-0.560,1.445,-0.370,97.222,69.444,347.222,850.000,5.556,N
125,-0.535,1.505,-0.410,100.000,77.778,361.111,863.889,13.889,N
126,-0.540,1.345,-0.430,91.667,61.111,341.667,855.556,8.333,N
127,-0.505,1.420,-0.405,94.444,69.444,350.000,841.667,13.889,N
128,-0.535,1.345,-0.375,111.111,63.889,344.444,858.333,16.667,N
129,-0.505,1.405,-0.400,100.000,75.000,350.000,847.222,11.111,N
130,-0.525,1.365,-0.440,97.222,72.222,350.000,858.333,11.111,N
131,-0.515,1.300,-0.475,102.778,72.222,347.222,847.222,11.111,N
132,-0.560,1.295,-0.430,100.000,77.778,355.556,841.667,5.556,N
133,-0.555,1.200,-0.465,111.111,80.556,361.111,866.667,25.000,N
134,-0.565,1.195,-0.490,105.556,58.333,330.556,836.111,30.556,N
135,-0.555,1.220,-0.495,105.556,72.222,341.667,825.000,11.111,N
136,-0.565,1.205,-0.435,97.222,72.222,350.000,855.556,30.556,N
137,-0.590,1.220,-0.440,100.000,75.000,344.444,844.444,11.111,N
138,-0.565,1.120,-0.470,100.000,66.667,330.556,841.667,2.778,N
139,-0.535,1.040,-0.470,105.556,75.000,338.889,827.778,13.889,N
140,-0.520,1.100,-0.420,102.778,72.222,347.222,825.000,2.778,N
141,-0.545,1.130,-0.400,100.000,66.667,344.444,852.778,27.778,N
142,-0.515,1.215,-0.455,97.222,69.444,341.667,838.889,13.889,N
143,-0.570,1.180,-0.475,94.444,61.111,330.556,827.778,11.111,N
144,-0.550,1.125,-0.500,100.000,69.444,355.556,838.889,11.111,N
145,-0.570,1.080,-0.430,100.000,69.444,347.222,850.000,11.111,N
146,-0.560,1.150,-0.430,94.444,66.667,341.667,852.778,2.778,N
147,-0.560,1.240,-0.480,94.444,66.667,344.444,833.333,19.444,N
148,-0.545,1.030,-0.485,102.778,72.222,350.000,833.333,0.000,N
149,-0.575,1.085,-0.445,97.222,72.222,344.444,861.111,27.778,N
150,-0.540,1.280,-0.390,100.000,75.000,352.778,847.222,13.889,N
151,-0.510,1.215,-0.410,94.444,66.667,350.000,827.778,19.444,N
152,-0.480,1.080,-0.425,88.889,61.111,352.778,825.000,2.778,N
153,-0.470,1.160,-0.355,97.222,58.333,352.778,830.556,5.556,N
154,-0.450,1.170,-0.340,91.667,61.111,330.556,838.889,8.333,N
155,-0.460,1.260,-0.350,94.444,72.222,336.111,822.222,16.667,N
156,-0.440,1.315,-0.375,100.000,75.000,352.778,825.000,2.778,N
157,-0.445,1.155,-0.370,94.444,61.111,333.333,852.778,27.778,N
158,-0.470,1.285,-0.335,100.000,63.889,322.222,838.889,13.889,N
159,-0.465,1.250,-0.345,97.222,69.444,352.778,833.333,5.556,N
160,-0.455,1.120,-0.370,88.889,58.333,344.444,827.778,5.556,N
161,-0.455,1.265,-0.415,97.222,72.222,355.556,850.000,22.222,N
162,-0.505,1.260,-0.360,94.444,63.889,347.222,855.556,5.556,N
163,-0.470,1.270,-0.370,94.444,66.667,344.444,836.111,19.444,N
164,-0.480,1.255,-0.405,108.333,80.556,361.111,850.000,13.889,N
165,-0.520,1.075,-0.420,94.444,58.333,336.111,844.444,5.556,N
166,-0.530,1.015,-0.405,100.000,55.556,322.222,827.778,16.667,N
167,-0.525,1.135,-0.400,97.222,69.444,344.444,827.778,0.000,N
168,-0.540,1.155,-0.435,97.222,77.778,369.444,836.111,8.333,N
169,-0.550,1.210,-0.415,97.222,77.778,369.444,841.667,5.556,N
170,-0.535,1.210,-0.420,100.000,63.889,347.222,841.667,0.000,N
171,-0.530,1.235,-0.390,97.222,69.444,352.778,836.111,5.556,N
172,-0.515,1.235,-0.420,102.778,75.000,358.333,847.222,11.111,N
173,-0.510,1.285,-0.385,100.000,66.667,347.222,852.778,5.556,N
174,-0.470,1.275,-0.360,97.222,61.111,344.444,830.556,22.222,N
175,-0.455,1.235,-0.355,100.000,72.222,341.667,844.444,13.889,N
176,-0.490,1.230,-0.355,102.778,66.667,344.444,858.333,13.889,N
177,-0.475,1.285,-0.365,105.556,66.667,336.111,855.556,2.778,N
178,-0.460,1.185,-0.370,105.556,75.000,344.444,827.778,27.778,N
179,-0.470,1.150,-0.385,105.556,72.222,352.778,822.222,5.556,N
180,-0.475,1.005,-0.320,97.222,63.889,338.889,858.333,36.111,N
181,-0.420,1.345,-0.295,105.556,77.778,350.000,850.000,8.333,N
182,-0.415,1.305,-0.340,97.222,63.889,344.444,819.444,30.556,N
183,-0.415,1.045,-0.365,88.889,58.333,319.444,827.778,8.333,N
184,-0.420,1.340,-0.295,100.000,66.667,347.222,844.444,16.667,N
185,-0.450,1.270,-0.305,97.222,72.222,341.667,850.000,5.556,N
186,-0.450,1.315,-0.310,100.000,77.778,344.444,830.556,19.444,N
187,-0.440,1.295,-0.365,108.333,75.000,358.333,830.556,0.000,N
188,-0.445,1.130,-0.375,97.222,69.444,347.222,861.111,30.556,N
189,-0.475,1.165,-0.335,97.222,72.222,344.444,841.667,19.444,N
190,-0.505,1.210,-0.390,94.444,72.222,369.444,830.556,11.111,N
191,-0.500,1.155,-0.405,102.778,75.000,355.556,841.667,11.111,N
192,-0.490,1.190,-0.355,105.556,63.889,350.000,841.667,0.000,N
193,-0.455,1.290,-0.330,102.778,77.778,355.556,836.111,5.556,N
194,-0.470,1.295,-0.325,97.222,63.889,325.000,833.333,2.778,N
195,-0.490,1.200,-0.345,108.333,63.889,350.000,830.556,2.778,N
196,-0.470,1.370,-0.360,100.000,63.889,341.667,836.111,5.556,N
197,-0.465,1.215,-0.320,91.667,52.778,322.222,825.000,11.111,N
198,-0.460,1.310,-0.285,100.000,75.000,355.556,822.222,2.778,N
199,-0.485,1.320,-0.315,100.000,77.778,355.556,841.667,19.444,N
200,-0.450,1.445,-0.325,100.000,72.222,347.222,858.333,16.667,N
201,-0.450,1.455,-0.320,100.000,66.667,344.444,830.556,27.778,N
202,-0.470,1.385,-0.350,100.000,75.000,347.222,838.889,8.333,N
203,-0.490,1.440,-0.310,102.778,72.222,347.222,866.667,27.778,N
204,-0.510,1.380,-0.415,111.111,80.556,366.667,850.000,16.667,N
205,-0.520,1.380,-0.365,102.778,77.778,344.444,827.778,22.222,N
206,-0.465,1.475,-0.360,102.778,75.000,341.667,830.556,2.778,N
207,-0.485,1.330,-0.305,100.000,58.333,336.111,841.667,11.111,N
208,-0.450,1.350,-0.300,100.000,72.222,336.111,861.111,19.444,N
209,-0.400,1.400,-0.325,97.222,63.889,330.556,816.667,44.444,N
210,-0.430,1.315,-0.320,100.000,66.667,352.778,827.778,11.111,N
211,-0.395,1.400,-0.235,100.000,72.222,344.444,855.556,27.778,N
212,-0.390,1.420,-0.225,100.000,66.667,330.556,836.111,19.444,N
213,-0.385,1.445,-0.285,102.778,75.000,344.444,827.778,8.333,N
214,-0.395,1.455,-0.300,94.444,66.667,341.667,827.778,0.000,N
215,-0.370,1.300,-0.310,94.444,75.000,355.556,833.333,5.556,N
216,-0.425,1.315,-0.285,88.889,69.444,344.444,852.778,19.444,N
217,-0.430,1.475,-0.360,100.000,66.667,330.556,833.333,19.444,N
218,-0.495,1.300,-0.390,108.333,80.556,366.667,836.111,2.778,N
219,-0.505,1.310,-0.415,100.000,77.778,347.222,861.111,25.000,N
220,-0.505,1.360,-0.340,97.222,72.222,338.889,827.778,33.333,N
221,-0.480,1.265,-0.375,91.667,63.889,344.444,825.000,2.778,N
222,-0.475,1.395,-0.375,97.222,66.667,352.778,830.556,5.556,N
223,-0.490,1.380,-0.405,100.000,75.000,355.556,838.889,8.333,N
224,-0.470,1.245,-0.320,97.222,69.444,344.444,836.111,2.778,N
225,-0.435,1.340,-0.300,94.444,66.667,344.444,825.000,11.111,N
226,-0.430,1.440,-0.350,105.556,77.778,355.556,841.667,16.667,N
227,-0.450,1.310,-0.350,102.778,61.111,347.222,847.222,5.556,N
228,-0.480,1.225,-0.400,102.778,72.222,344.444,827.778,19.444,N
229,-0.485,1.400,-0.345,97.222,72.222,358.333,830.556,2.778,N
230,-0.490,1.310,-0.355,94.444,63.889,352.778,841.667,11.111,N
231,-0.495,1.330,-0.385,100.000,66.667,352.778,841.667,0.000,N
232,-0.485,1.475,-0.400,97.222,69.444,352.778,836.111,5.556,N
233,-0.485,1.515,-0.330,102.778,69.444,347.222,830.556,5.556,N
234,-0.495,1.525,-0.360,108.333,75.000,352.778,850.000,19.444,N
235,-0.505,1.305,-0.390,100.000,72.222,350.000,825.000,25.000,N
236,-0.525,1.400,-0.420,97.222,83.333,355.556,819.444,5.556,N
237,-0.500,1.400,-0.350,105.556,77.778,341.667,833.333,13.889,N
238,-0.490,1.340,-0.335,105.556,63.889,341.667,830.556,2.778,N
239,-0.480,1.430,-0.355,91.667,63.889,344.444,841.667,11.111,N
240,-0.465,1.460,-0.335,94.444,80.556,344.444,825.000,16.667,N
241,-0.405,1.490,-0.370,97.222,75.000,355.556,816.667,8.333,N
242,-0.460,1.595,-0.315,102.778,75.000,350.000,872.222,55.556,N
243,-0.500,1.420,-0.380,97.222,75.000,341.667,847.222,25.000,N
244,-0.470,1.485,-0.385,108.333,80.556,350.000,825.000,22.222,N
245,-0.485,1.265,-0.405,105.556,61.111,322.222,844.444,19.444,N
246,-0.490,1.430,-0.330,102.778,63.889,344.444,838.889,5.556,N
247,-0.495,1.470,-0.375,108.333,63.889,333.333,861.111,22.222,N
248,-0.490,1.435,-0.415,94.444,58.333,327.778,836.111,25.000,N
249,-0.485,1.370,-0.415,97.222,69.444,352.778,813.889,22.222,N
250,-0.465,1.450,-0.325,102.778,69.444,341.667,869.444,55.556,N
251,-0.460,1.435,-0.335,100.000,72.222,350.000,855.556,13.889,N
252,-0.445,1.500,-0.330,102.778,63.889,336.111,830.556,25.000,N
253,-0.400,1.495,-0.330,100.000,66.667,327.778,838.889,8.333,N
254,-0.385,1.395,-0.330,97.222,66.667,344.444,844.444,5.556,N
255,-0.390,1.495,-0.270,97.222,72.222,341.667,869.444,25.000,N
256,-0.415,1.425,-0.320,94.444,72.222,344.444,838.889,30.556,N
257,-0.455,1.365,-0.385,102.778,63.889,344.444,841.667,2.778,N
258,-0.470,1.275,-0.320,97.222,58.333,333.333,861.111,19.444,N
259,-0.445,1.500,-0.315,102.778,72.222,344.444,858.333,2.778,N
260,-0.450,1.460,-0.360,97.222,75.000,369.444,833.333,25.000,N
261,-0.450,1.475,-0.340,94.444,72.222,355.556,852.778,19.444,N
262,-0.440,1.460,-0.280,102.778,58.333,341.667,858.333,5.556,N
263,-0.415,1.345,-0.310,91.667,66.667,352.778,841.667,16.667,N
264,-0.445,1.370,-0.360,94.444,72.222,347.222,847.222,5.556,N
265,-0.485,1.300,-0.395,102.778,75.000,366.667,863.889,16.667,N
266,-0.470,1.500,-0.345,100.000,75.000,358.333,872.222,8.333,N
267,-0.450,1.480,-0.310,100.000,72.222,347.222,866.667,5.556,N
268,-0.450,1.035,-0.350,102.778,72.222,358.333,875.000,8.333,N
269,-0.470,0.930,-0.365,102.778,83.333,377.778,861.111,13.889,N
270,-0.490,0.990,-0.310,94.444,66.667,330.556,875.000,13.889,N
271,-0.515,1.030,-0.345,113.889,69.444,327.778,833.333,41.667,N
272,-0.550,0.935,-0.415,108.333,77.778,358.333,830.556,2.778,N
273,-0.535,0.975,-0.405,94.444,77.778,347.222,886.111,55.556,N
274,-0.545,0.940,-0.450,94.444,69.444,336.111,855.556,30.556,N
275,-0.585,1.200,-0.375,97.222,72.222,344.444,852.778,2.778,N
276,-0.560,1.140,-0.410,100.000,69.444,347.222,861.111,8.333,N
277,-0.550,1.055,-0.425,83.333,66.667,352.778,852.778,8.333,N
278,-0.555,1.175,-0.425,100.000,69.444,341.667,886.111,33.333,N
279,-0.555,1.230,-0.345,88.889,75.000,338.889,872.222,13.889,N
280,-0.545,1.180,-0.395,97.222,69.444,361.111,861.111,11.111,N
281,-0.535,1.295,-0.415,94.444,63.889,344.444,888.889,27.778,N
282,-0.560,1.090,-0.420,88.889,61.111,344.444,869.444,19.444,N
283,-0.560,1.240,-0.400,102.778,72.222,355.556,877.778,8.333,N
284,-0.535,1.170,-0.355,91.667,66.667,350.000,883.333,5.556,N
285,-0.535,1.280,-0.400,100.000,72.222,352.778,916.667,33.333,N
286,-0.540,1.110,-0.390,88.889,66.667,347.222,891.667,25.000,N
287,-0.550,1.175,-0.380,91.667,66.667,350.000,894.444,2.778,N
288,-0.545,1.260,-0.435,113.889,72.222,344.444,927.778,33.333,N
289,-0.560,1.210,-0.415,105.556,72.222,344.444,891.667,36.111,N
290,-0.555,1.290,-0.410,105.556,72.222,347.222,861.111,30.556,N
291,-0.570,1.230,-0.375,91.667,58.333,358.333,875.000,13.889,N
292,-0.545,1.175,-0.420,97.222,72.222,375.000,888.889,13.889,N
293,-0.565,1.170,-0.420,86.111,63.889,350.000,880.556,8.333,N
294,-0.550,1.255,-0.435,86.111,61.111,344.444,866.667,13.889,N
295,-0.545,1.340,-0.345,91.667,69.444,355.556,883.333,16.667,N
296,-0.535,1.245,-0.390,94.444,72.222,355.556,863.889,19.444,N
297,-0.560,1.095,-0.430,105.556,75.000,350.000,850.000,13.889,N
298,-0.540,1.210,-0.450,94.444,63.889,330.556,855.556,5.556,N
299,-0.590,1.245,-0.385,102.778,63.889,338.889,844.444,11.111,N
300,-0.600,1.185,-0.400,86.111,69.444,341.667,869.444,25.000,N
301,-0.590,1.315,-0.455,94.444,69.444,341.667,852.778,16.667,N
302,-0.615,1.105,-0.455,97.222,61.111,350.000,858.333,5.556,N
303,-0.595,1.180,-0.360,97.222,63.889,338.889,880.556,22.222,N
304,-0.555,1.420,-0.365,94.444,63.889,336.111,866.667,13.889,N
305,-0.520,1.485,-0.390,102.778,69.444,352.778,861.111,5.556,N
306,-0.505,1.330,-0.355,100.000,61.111,352.778,855.556,5.556,N
307,-0.455,1.365,-0.320,100.000,55.556,341.667,866.667,11.111,N
308,-0.475,1.505,-0.340,97.222,61.111,344.444,872.222,5.556,N
309,-0.520,1.475,-0.390,100.000,77.778,358.333,847.222,25.000,N
310,-0.515,1.260,-0.435,102.778,75.000,355.556,863.889,16.667,N
311,-0.500,1.505,-0.440,105.556,72.222,352.778,872.222,8.333,N
312,-0.535,1.310,-0.365,100.000,63.889,347.222,850.000,22.222,N
313,-0.535,1.415,-0.390,100.000,75.000,347.222,880.556,30.556,N
314,-0.535,1.150,-0.415,102.778,72.222,352.778,861.111,19.444,N
315,-0.500,1.010,-0.435,97.222,72.222,347.222,875.000,13.889,N
316,-0.510,1.270,-0.315,97.222,66.667,341.667,866.667,8.333,N
317,-0.490,1.480,-0.360,111.111,75.000,366.667,877.778,11.111,N
318,-0.485,1.395,-0.365,97.222,66.667,347.222,883.333,5.556,N
319,-0.480,1.335,-0.390,94.444,72.222,350.000,872.222,11.111,N
320,-0.505,1.550,-0.325,105.556,80.556,369.444,877.778,5.556,N
321,-0.450,1.415,-0.330,97.222,66.667,350.000,880.556,2.778,N
322,-0.455,1.485,-0.360,105.556,61.111,344.444,927.778,47.222,N
323,-0.470,1.530,-0.360,94.444,63.889,347.222,905.556,22.222,N
324,-0.470,1.590,-0.335,105.556,72.222,352.778,913.889,8.333,N
325,-0.460,1.575,-0.325,100.000,69.444,347.222,969.444,55.556,N
326,-0.500,1.415,-0.365,94.444,61.111,347.222,916.667,52.778,N
327,-0.525,1.555,-0.365,97.222,69.444,363.889,905.556,11.111,N
328,-0.530,1.320,-0.335,105.556,66.667,361.111,911.111,5.556,N
329,-0.525,1.505,-0.335,88.889,66.667,361.111,913.889,2.778,N
330,-0.530,1.375,-0.390,97.222,66.667,358.333,911.111,2.778,N
331,-0.535,1.425,-0.395,108.333,69.444,363.889,883.333,27.778,N
332,-0.525,1.515,-0.345,100.000,72.222,352.778,919.444,36.111,N
333,-0.520,1.420,-0.335,91.667,58.333,341.667,883.333,36.111,N
334,-0.535,1.365,-0.370,80.556,63.889,333.333,863.889,19.444,N
335,-0.520,1.525,-0.345,86.111,61.111,341.667,875.000,11.111,N
336,-0.500,1.505,-0.345,91.667,63.889,355.556,863.889,11.111,N
337,-0.545,1.500,-0.285,88.889,63.889,341.667,875.000,11.111,N
338,-0.550,1.585,-0.335,91.667,63.889,350.000,861.111,13.889,N
339,-0.560,1.620,-0.370,111.111,75.000,372.222,858.333,2.778,N
340,-0.560,1.515,-0.385,88.889,55.556,338.889,869.444,11.111,N
341,-0.535,1.585,-0.335,100.000,69.444,347.222,852.778,16.667,N
342,-0.540,1.600,-0.370,97.222,72.222,375.000,836.111,16.667,N
343,-0.535,1.660,-0.380,102.778,69.444,355.556,863.889,27.778,N
344,-0.510,1.485,-0.385,102.778,77.778,355.556,872.222,8.333,N
345,-0.485,1.545,-0.415,100.000,58.333,344.444,847.222,25.000,N
346,-0.505,1.530,-0.330,100.000,72.222,358.333,852.778,5.556,N
347,-0.490,1.715,-0.315,105.556,63.889,352.778,894.444,41.667,N
348,-0.500,1.555,-0.385,102.778,80.556,355.556,880.556,13.889,N
349,-0.525,1.550,-0.385,97.222,72.222,350.000,861.111,19.444,N
350,-0.525,1.675,-0.340,97.222,66.667,347.222,858.333,2.778,N
351,-0.540,1.635,-0.335,94.444,72.222,352.778,872.222,13.889,N
352,-0.545,1.515,-0.405,91.667,66.667,333.333,888.889,16.667,N
353,-0.590,1.465,-0.430,83.333,61.111,333.333,852.778,36.111,N
354,-0.575,1.600,-0.425,116.667,75.000,363.889,877.778,25.000,N
355,-0.570,1.500,-0.365,91.667,72.222,355.556,891.667,13.889,N
356,-0.565,1.620,-0.380,88.889,63.889,338.889,872.222,19.444,N
357,-0.540,1.665,-0.395,91.667,69.444,363.889,869.444,2.778,N
358,-0.555,1.565,-0.395,111.111,69.444,358.333,869.444,0.000,N
359,-0.540,1.645,-0.350,105.556,75.000,372.222,858.333,11.111,N
360,-0.545,1.580,-0.310,91.667,66.667,352.778,847.222,11.111,N
361,-0.515,1.630,-0.385,88.889,63.889,347.222,836.111,11.111,N
362,-0.525,1.545,-0.395,97.222,69.444,369.444,844.444,8.333,N
363,-0.535,1.570,-0.420,91.667,69.444,352.778,858.333,13.889,N
364,-0.465,1.450,-0.515,111.111,41.667,330.556,819.444,38.889,N
365,-0.570,1.555,-0.250,102.778,69.444,344.444,855.556,36.111,N
366,-0.565,1.740,-0.275,91.667,66.667,347.222,855.556,0.000,N
367,-0.555,1.630,-0.280,91.667,61.111,347.222,866.667,11.111,N
368,-0.515,1.665,-0.310,102.778,77.778,350.000,855.556,11.111,N
369,-0.460,1.495,-0.340,105.556,77.778,355.556,827.778,27.778,N
370,-0.480,1.650,-0.255,105.556,66.667,352.778,855.556,27.778,N
371,-0.500,1.660,-0.260,102.778,63.889,338.889,861.111,5.556,N
372,-0.450,1.655,-0.280,105.556,80.556,350.000,830.556,30.556,N
373,-0.430,1.480,-0.285,100.000,77.778,350.000,822.222,8.333,N
374,-0.365,1.350,-0.290,127.778,41.667,302.778,547.222,275.000,A
375,-0.605,1.565,-0.315,102.778,66.667,358.333,991.667,444.444,N
376,-0.565,1.775,-0.330,97.222,63.889,333.333,861.111,130.556,N
377,-0.475,1.630,-0.275,97.222,69.444,352.778,855.556,5.556,N
378,-0.335,1.760,-0.160,130.556,44.444,300.000,769.444,86.111,N
379,-0.160,1.420,-0.235,141.667,66.667,313.889,419.444,350.000,A
380,-0.480,1.525,-0.385,97.222,69.444,363.889,891.667,472.222,N
381,-0.490,1.565,-0.350,102.778,69.444,355.556,894.444,2.778,N
382,-0.465,1.620,-0.310,100.000,63.889,352.778,836.111,58.333,N
383,-0.460,1.615,-0.300,97.222,66.667,350.000,855.556,19.444,N
384,-0.490,1.645,-0.205,97.222,66.667,350.000,863.889,8.333,N
385,-0.485,1.730,-0.215,97.222,66.667,347.222,841.667,22.222,N
386,-0.460,1.585,-0.270,116.667,72.222,341.667,886.111,44.444,N
387,-0.485,1.470,-0.285,102.778,66.667,338.889,863.889,22.222,N
388,-0.490,1.615,-0.260,97.222,69.444,347.222,855.556,8.333,N
389,-0.455,1.600,-0.265,97.222,69.444,325.000,858.333,2.778,N
390,-0.450,1.565,-0.255,100.000,69.444,347.222,836.111,22.222,N
391,-0.440,1.440,-0.280,105.556,80.556,350.000,847.222,11.111,N
392,-0.445,1.560,-0.320,105.556,75.000,341.667,833.333,13.889,N
393,-0.360,1.375,-0.305,125.000,41.667,291.667,519.444,313.889,A
394,-0.560,1.630,-0.320,105.556,72.222,352.778,1011.111,491.667,N
395,-0.525,1.550,-0.360,100.000,69.444,338.889,900.000,111.111,N
396,-0.415,1.595,-0.310,105.556,72.222,344.444,833.333,66.667,N
397,-0.445,1.475,-0.330,97.222,69.444,344.444,838.889,5.556,N
398,-0.480,1.255,-0.305,91.667,63.889,352.778,838.889,0.000,N
399,-0.460,1.360,-0.335,91.667,66.667,352.778,838.889,0.000,N
400,-0.485,1.220,-0.375,94.444,66.667,338.889,830.556,8.333,N
401,-0.470,1.125,-0.390,105.556,80.556,361.111,827.778,2.778,N
402,-0.480,1.125,-0.380,100.000,61.111,325.000,838.889,11.111,N
403,-0.520,0.990,-0.370,100.000,80.556,341.667,827.778,11.111,N
404,-0.490,0.920,-0.355,97.222,72.222,352.778,816.667,11.111,N
405,-0.480,1.140,-0.360,102.778,63.889,350.000,822.222,5.556,N
406,-0.480,1.340,-0.360,102.778,61.111,352.778,838.889,16.667,N
407,-0.480,1.215,-0.355,97.222,58.333,325.000,827.778,11.111,N
408,-0.515,1.220,-0.375,97.222,72.222,344.444,819.444,8.333,N
409,-0.505,1.370,-0.380,97.222,77.778,375.000,838.889,19.444,N
410,-0.485,1.290,-0.375,91.667,72.222,355.556,850.000,11.111,N
411,-0.480,1.485,-0.335,97.222,72.222,347.222,847.222,2.778,N
412,-0.445,1.390,-0.330,102.778,72.222,350.000,863.889,16.667,N
413,-0.465,1.485,-0.355,102.778,63.889,333.333,883.333,19.444,N
414,-0.435,1.485,-0.345,105.556,80.556,352.778,925.000,41.667,N
415,-0.435,1.405,-0.305,94.444,66.667,347.222,888.889,36.111,N
416,-0.435,1.450,-0.325,97.222,72.222,350.000,872.222,16.667,N
417,-0.420,1.370,-0.350,102.778,80.556,355.556,905.556,33.333,N
418,-0.465,1.385,-0.360,97.222,58.333,325.000,869.444,36.111,N
419,-0.440,1.390,-0.355,91.667,63.889,350.000,847.222,22.222,N
420,-0.485,1.455,-0.350,100.000,72.222,347.222,875.000,27.778,N
421,-0.475,1.345,-0.390,102.778,72.222,363.889,877.778,2.778,N
422,-0.465,1.460,-0.370,97.222,66.667,347.222,861.111,16.667,N
423,-0.475,1.305,-0.380,97.222,63.889,347.222,855.556,5.556,N
424,-0.490,1.425,-0.350,108.333,80.556,366.667,888.889,33.333,N
425,-0.455,1.365,-0.360,97.222,72.222,350.000,888.889,0.000,N
426,-0.470,1.315,-0.405,100.000,75.000,352.778,869.444,19.444,N
427,-0.500,1.350,-0.400,102.778,80.556,350.000,872.222,2.778,N
428,-0.495,1.210,-0.390,97.222,58.333,336.111,877.778,5.556,N
429,-0.505,1.420,-0.405,94.444,61.111,341.667,900.000,22.222,N
430,-0.505,1.390,-0.405,97.222,72.222,347.222,891.667,8.333,N
431,-0.490,1.450,-0.435,102.778,77.778,375.000,927.778,36.111,N
432,-0.580,1.345,-0.390,97.222,66.667,350.000,958.333,30.556,N
433,-0.575,1.400,-0.375,86.111,66.667,358.333,922.222,36.111,N
434,-0.535,1.480,-0.380,108.333,72.222,338.889,922.222,0.000,N
435,-0.520,1.375,-0.380,97.222,72.222,350.000,897.222,25.000,N
436,-0.525,1.410,-0.330,88.889,63.889,350.000,919.444,22.222,N
437,-0.525,1.545,-0.365,88.889,66.667,338.889,905.556,13.889,N
438,-0.500,1.510,-0.355,100.000,63.889,355.556,897.222,8.333,N
439,-0.475,1.425,-0.360,91.667,63.889,352.778,897.222,0.000,N
440,-0.575,1.405,-0.400,91.667,72.222,355.556,880.556,16.667,N
441,-0.580,1.355,-0.435,94.444,72.222,361.111,891.667,11.111,N
442,-0.590,1.360,-0.480,102.778,75.000,366.667,886.111,5.556,N
443,-0.600,1.255,-0.485,100.000,72.222,363.889,900.000,13.889,N
444,-0.590,1.450,-0.435,94.444,69.444,347.222,886.111,13.889,N
445,-0.615,1.470,-0.435,100.000,72.222,347.222,872.222,13.889,N
446,-0.585,1.455,-0.455,97.222,69.444,347.222,900.000,27.778,N
447,-0.600,1.325,-0.485,108.333,69.444,341.667,872.222,27.778,N
448,-0.620,1.285,-0.465,94.444,63.889,344.444,847.222,25.000,N
449,-0.645,1.285,-0.450,97.222,72.222,352.778,880.556,33.333,N
450,-0.630,1.400,-0.445,91.667,63.889,363.889,875.000,5.556,N
451,-0.595,1.390,-0.460,94.444,69.444,355.556,858.333,16.667,N
452,-0.570,1.450,-0.445,91.667,66.667,347.222,861.111,2.778,N
453,-0.580,1.480,-0.400,100.000,72.222,358.333,877.778,16.667,N
454,-0.570,1.375,-0.390,88.889,58.333,352.778,877.778,0.000,N
455,-0.580,1.495,-0.435,97.222,63.889,352.778,877.778,0.000,N
456,-0.575,1.545,-0.450,102.778,75.000,361.111,880.556,2.778,N
457,-0.580,1.505,-0.395,97.222,72.222,355.556,861.111,19.444,N
458,-0.575,1.725,-0.370,102.778,72.222,350.000,897.222,36.111,N
459,-0.535,1.580,-0.360,108.333,72.222,352.778,875.000,22.222,N
460,-0.525,1.605,-0.355,105.556,69.444,369.444,866.667,8.333,N
461,-0.500,1.700,-0.340,105.556,69.444,344.444,900.000,33.333,N
462,-0.565,1.575,-0.330,91.667,72.222,344.444,866.667,33.333,N
463,-0.550,1.760,-0.330,83.333,66.667,347.222,861.111,5.556,N
464,-0.495,1.590,-0.335,97.222,61.111,336.111,866.667,5.556,N
465,-0.470,1.790,-0.350,86.111,66.667,355.556,855.556,11.111,N
466,-0.550,1.700,-0.295,80.556,63.889,338.889,858.333,2.778,N
467,-0.545,1.695,-0.325,86.111,61.111,330.556,838.889,19.444,N
468,-0.570,1.705,-0.370,91.667,72.222,366.667,830.556,8.333,N
469,-0.585,1.665,-0.385,105.556,66.667,341.667,855.556,25.000,N
470,-0.440,1.620,-0.355,138.889,44.444,291.667,530.556,325.000,A
471,-0.655,1.825,-0.355,100.000,63.889,361.111,941.667,411.111,N
472,-0.575,1.810,-0.325,102.778,55.556,322.222,866.667,75.000,N
473,-0.570,1.745,-0.430,100.000,63.889,338.889,855.556,11.111,N
474,-0.595,1.915,-0.285,97.222,41.667,311.111,852.778,2.778,N
475,-0.570,1.725,-0.500,63.889,72.222,330.556,816.667,36.111,N
476,-0.680,1.730,-0.390,111.111,72.222,358.333,805.556,11.111,N
477,-0.570,1.810,-0.335,97.222,61.111,333.333,827.778,22.222,N
478,-0.450,1.795,-0.300,111.111,69.444,322.222,797.222,30.556,N
479,-0.300,1.490,-0.145,133.333,44.444,286.111,563.889,233.333,A
480,-0.190,1.705,0.090,138.889,44.444,308.333,594.444,30.556,A
481,0.090,1.425,-0.180,152.778,72.222,316.667,441.667,152.778,A
482,-0.430,1.820,-0.135,105.556,44.444,344.444,905.556,463.889,N
483,-0.455,1.635,-0.255,88.889,55.556,336.111,813.889,91.667,N
484,-0.250,1.470,-0.075,127.778,41.667,291.667,608.333,205.556,A
485,-0.075,1.315,-0.450,141.667,75.000,244.444,416.667,191.667,A
486,-0.450,1.515,-0.505,105.556,77.778,327.778,386.111,30.556,A
487,-0.535,1.590,-0.370,116.667,44.444,313.889,613.889,227.778,N
488,-0.575,1.735,-0.375,102.778,80.556,358.333,905.556,291.667,N
489,-0.515,1.675,-0.320,102.778,69.444,338.889,858.333,47.222,N
490,-0.315,1.765,-0.190,138.889,41.667,244.444,544.444,313.889,A
491,-0.190,1.390,-0.350,175.000,83.333,313.889,397.222,147.222,A
492,-0.350,1.500,-0.315,125.000,77.778,333.333,383.333,13.889,A
493,-0.315,1.605,-0.345,136.111,38.889,277.778,419.444,36.111,A
494,-0.480,1.820,-0.350,102.778,72.222,350.000,822.222,402.778,N
495,-0.480,1.730,-0.330,97.222,72.222,377.778,938.889,116.667,N
496,-0.330,1.630,-0.225,175.000,44.444,208.333,502.778,436.111,A
497,-0.360,1.465,-0.430,197.222,77.778,402.778,419.444,83.333,A
498,-0.440,1.595,-0.455,105.556,77.778,341.667,386.111,33.333,A
499,-0.465,1.610,-0.465,100.000,69.444,377.778,1122.222,736.111,N
500,-0.495,1.610,-0.445,102.778,77.778,352.778,911.111,211.111,N
501,-0.460,1.675,-0.320,108.333,69.444,355.556,902.778,8.333,N
502,-0.325,1.670,-0.230,130.556,44.444,311.111,733.333,169.444,A
503,-0.470,1.700,-0.135,97.222,63.889,325.000,1041.667,308.333,N
504,-0.440,1.665,-0.160,100.000,69.444,347.222,908.333,133.333,N
505,-0.410,1.650,-0.195,111.111,77.778,352.778,947.222,38.889,N
506,-0.360,1.710,-0.265,133.333,47.222,294.444,894.444,52.778,N
507,-0.470,1.305,-0.210,102.778,75.000,333.333,866.667,27.778,N
508,-0.485,1.470,-0.215,97.222,69.444,330.556,891.667,25.000,N
509,-0.480,1.600,-0.245,100.000,66.667,341.667,894.444,2.778,N
510,-0.470,1.490,-0.240,102.778,77.778,347.222,883.333,11.111,N
511,-0.450,1.400,-0.075,130.556,41.667,269.444,544.444,338.889,A
512,-0.075,1.355,-0.325,152.778,77.778,330.556,405.556,138.889,A
513,-0.480,1.710,-0.395,130.556,47.222,302.778,644.444,238.889,A
514,-0.595,1.575,-0.370,105.556,63.889,352.778,1077.778,433.333,N
515,-0.545,1.535,-0.425,100.000,69.444,341.667,947.222,130.556,N
516,-0.550,1.415,-0.320,88.889,58.333,322.222,927.778,19.444,N
517,-0.520,1.695,-0.190,108.333,75.000,344.444,927.778,0.000,N
518,-0.535,1.590,-0.225,91.667,61.111,322.222,933.333,5.556,N
519,-0.550,1.625,-0.325,97.222,63.889,319.444,916.667,16.667,N
520,-0.585,1.370,-0.345,97.222,69.444,347.222,927.778,11.111,N
521,-0.460,1.530,-0.355,127.778,41.667,300.000,769.444,158.333,A
522,-0.590,1.520,-0.255,100.000,72.222,341.667,1072.222,302.778,N
523,-0.565,1.540,-0.295,91.667,58.333,313.889,925.000,147.222,N
524,-0.525,1.440,-0.270,97.222,69.444,347.222,908.333,16.667,N
525,-0.490,1.390,-0.275,102.778,75.000,344.444,908.333,0.000,N
526,-0.465,1.505,-0.230,97.222,69.444,327.778,872.222,36.111,N
527,-0.505,1.305,-0.275,100.000,75.000,350.000,888.889,16.667,N
528,-0.540,1.525,-0.325,102.778,72.222,344.444,900.000,11.111,N
529,-0.525,1.360,-0.330,100.000,75.000,344.444,872.222,27.778,N
530,-0.545,1.295,-0.325,108.333,80.556,341.667,908.333,36.111,N
531,-0.535,1.445,-0.375,97.222,72.222,350.000,886.111,22.222,N
532,-0.690,1.455,-0.355,100.000,66.667,322.222,891.667,5.556,N
533,-0.605,1.240,-0.325,97.222,61.111,305.556,863.889,27.778,N
534,-0.535,1.410,-0.315,102.778,77.778,350.000,852.778,11.111,N
535,-0.550,1.415,-0.290,94.444,69.444,316.667,869.444,16.667,N
536,-0.560,1.395,-0.230,94.444,66.667,316.667,850.000,19.444,N
537,-0.600,1.180,-0.235,91.667,58.333,325.000,825.000,25.000,N
538,-0.570,1.340,-0.300,111.111,72.222,336.111,863.889,38.889,N
539,-0.600,1.215,-0.330,100.000,69.444,350.000,875.000,11.111,N
540,-0.565,1.310,-0.315,100.000,75.000,344.444,877.778,2.778,N
541,-0.550,1.240,-0.270,105.556,80.556,338.889,886.111,8.333,N
542,-0.535,1.355,-0.315,108.333,69.444,347.222,897.222,11.111,N
543,-0.520,1.335,-0.300,100.000,72.222,350.000,886.111,11.111,N
544,-0.535,1.305,-0.305,102.778,63.889,322.222,894.444,8.333,N
545,-0.500,1.450,-0.235,100.000,72.222,327.778,900.000,5.556,N
546,-0.470,1.415,-0.260,100.000,66.667,338.889,891.667,8.333,N
547,-0.440,1.245,-0.285,91.667,69.444,333.333,908.333,16.667,N
548,-0.490,1.525,-0.265,97.222,63.889,322.222,897.222,11.111,N
549,-0.500,1.520,-0.310,105.556,69.444,358.333,897.222,0.000,N
550,-0.510,1.365,-0.345,97.222,58.333,322.222,897.222,0.000,N
551,-0.525,1.375,-0.305,105.556,77.778,352.778,863.889,33.333,N
552,-0.480,1.435,-0.275,105.556,75.000,347.222,891.667,27.778,N
553,-0.480,1.255,-0.285,108.333,80.556,347.222,875.000,16.667,N
554,-0.475,1.270,-0.235,111.111,80.556,347.222,902.778,27.778,N
555,-0.465,1.300,-0.250,94.444,75.000,347.222,888.889,13.889,N
556,-0.455,1.540,-0.280,100.000,77.778,361.111,888.889,0.000,N
557,-0.435,1.560,-0.255,102.778,63.889,338.889,930.556,41.667,N
558,-0.410,1.535,-0.225,94.444,69.444,325.000,908.333,22.222,N
559,-0.445,1.325,-0.280,94.444,75.000,366.667,916.667,8.333,N
560,-0.455,1.340,-0.275,113.889,77.778,363.889,936.111,19.444,N
561,-0.450,1.565,-0.215,97.222,75.000,352.778,916.667,19.444,N
562,-0.470,1.475,-0.225,102.778,75.000,344.444,905.556,11.111,N
563,-0.490,1.495,-0.255,88.889,63.889,344.444,883.333,22.222,N
564,-0.480,1.510,-0.250,100.000,72.222,344.444,913.889,30.556,N
565,-0.465,1.490,-0.275,97.222,66.667,322.222,894.444,19.444,N
566,-0.480,1.415,-0.225,91.667,69.444,350.000,863.889,30.556,N
567,-0.465,1.550,-0.220,97.222,72.222,350.000,905.556,41.667,N
568,-0.465,1.570,-0.255,94.444,69.444,352.778,936.111,30.556,N
569,-0.455,1.400,-0.260,102.778,69.444,344.444,902.778,33.333,N
570,-0.495,1.565,-0.270,94.444,61.111,347.222,891.667,11.111,N
571,-0.565,1.500,-0.285,113.889,80.556,366.667,927.778,36.111,N
572,-0.585,1.365,-0.330,102.778,75.000,344.444,925.000,2.778,N
573,-0.570,1.390,-0.325,91.667,72.222,338.889,908.333,16.667,N
574,-0.510,1.570,-0.260,108.333,61.111,316.667,897.222,11.111,N
575,-0.485,1.530,-0.235,105.556,58.333,327.778,897.222,0.000,N
576,-0.480,1.470,-0.210,97.222,66.667,330.556,913.889,16.667,N
577,-0.445,1.525,-0.215,91.667,63.889,327.778,897.222,16.667,N
578,-0.455,1.570,-0.215,100.000,63.889,347.222,908.333,11.111,N
579,-0.470,1.470,-0.235,97.222,69.444,344.444,933.333,25.000,N
580,-0.510,1.585,-0.225,91.667,63.889,347.222,891.667,41.667,N
581,-0.535,1.570,-0.285,105.556,69.444,338.889,930.556,38.889,N
582,-0.520,1.570,-0.265,102.778,66.667,341.667,922.222,8.333,N
583,-0.465,1.470,-0.220,100.000,66.667,341.667,927.778,5.556,N
584,-0.500,1.580,-0.170,97.222,66.667,330.556,913.889,13.889,N
585,-0.525,1.685,-0.230,111.111,69.444,355.556,916.667,2.778,N
586,-0.500,1.610,-0.260,105.556,63.889,350.000,952.778,36.111,N
587,-0.510,1.540,-0.280,97.222,66.667,336.111,933.333,19.444,N
588,-0.490,1.640,-0.230,100.000,72.222,347.222,950.000,16.667,N
589,-0.500,1.675,-0.265,97.222,72.222,350.000,936.111,13.889,N
590,-0.490,1.665,-0.340,100.000,72.222,341.667,933.333,2.778,N
591,-0.520,1.590,-0.330,94.444,66.667,336.111,913.889,19.444,N
592,-0.500,1.710,-0.275,102.778,75.000,361.111,922.222,8.333,N
593,-0.510,1.635,-0.305,97.222,58.333,350.000,950.000,27.778,N
594,-0.525,1.510,-0.340,91.667,58.333,350.000,933.333,16.667,N
595,-0.530,1.690,-0.290,105.556,66.667,347.222,944.444,11.111,N
596,-0.490,1.625,-0.285,102.778,75.000,355.556,941.667,2.778,N
597,-0.480,1.555,-0.325,100.000,75.000,344.444,944.444,2.778,N
598,-0.505,1.515,-0.345,91.667,75.000,352.778,902.778,41.667,N
599,-0.465,1.465,-0.280,105.556,80.556,361.111,922.222,19.444,N
600,-0.510,1.415,-0.285,91.667,61.111,338.889,944.444,22.222,N
601,-0.500,1.590,-0.320,97.222,66.667,363.889,922.222,22.222,N
602,-0.485,1.635,-0.340,105.556,83.333,355.556,913.889,8.333,N
603,-0.490,1.705,-0.255,100.000,63.889,336.111,900.000,13.889,N
604,-0.490,1.705,-0.235,100.000,75.000,347.222,927.778,27.778,N
605,-0.475,1.695,-0.295,100.000,69.444,338.889,894.444,33.333,N
606,-0.510,1.675,-0.335,97.222,75.000,358.333,894.444,0.000,N
607,-0.515,1.575,-0.300,94.444,72.222,347.222,938.889,44.444,N
608,-0.515,1.570,-0.225,91.667,72.222,352.778,894.444,44.444,N
609,-0.570,1.615,-0.290,113.889,72.222,361.111,916.667,22.222,N
610,-0.585,1.615,-0.320,94.444,66.667,344.444,913.889,2.778,N
611,-0.570,1.410,-0.360,100.000,69.444,350.000,925.000,11.111,N
612,-0.570,1.505,-0.285,91.667,75.000,361.111,897.222,27.778,N
613,-0.575,1.540,-0.315,97.222,75.000,358.333,902.778,5.556,N
614,-0.565,1.395,-0.355,94.444,63.889,336.111,930.556,27.778,N
615,-0.525,1.445,-0.385,94.444,69.444,333.333,880.556,50.000,N
616,-0.540,1.485,-0.265,94.444,66.667,352.778,866.667,13.889,N
617,-0.555,1.575,-0.360,105.556,80.556,366.667,916.667,50.000,N
618,-0.590,1.385,-0.365,97.222,72.222,358.333,936.111,19.444,N
619,-0.545,1.370,-0.365,102.778,66.667,330.556,936.111,0.000,N
620,-0.530,1.535,-0.300,102.778,72.222,366.667,925.000,11.111,N
621,-0.540,1.545,-0.315,94.444,69.444,355.556,950.000,25.000,N
622,-0.535,1.535,-0.345,94.444,72.222,355.556,944.444,5.556,N
623,-0.530,1.375,-0.350,94.444,72.222,361.111,927.778,16.667,N
624,-0.530,1.495,-0.270,108.333,77.778,363.889,936.111,8.333,N
625,-0.485,1.340,-0.275,102.778,77.778,350.000,941.667,5.556,N
626,-0.490,1.355,-0.325,100.000,69.444,341.667,927.778,13.889,N
627,-0.495,1.385,-0.375,100.000,72.222,352.778,905.556,22.222,N
628,-0.545,1.490,-0.290,100.000,75.000,347.222,938.889,33.333,N
629,-0.525,1.455,-0.305,97.222,75.000,344.444,900.000,38.889,N
630,-0.560,1.395,-0.365,105.556,75.000,366.667,908.333,8.333,N
631,-0.550,1.515,-0.335,97.222,75.000,358.333,911.111,2.778,N
632,-0.510,1.415,-0.320,102.778,77.778,347.222,916.667,5.556,N
633,-0.535,1.505,-0.290,100.000,80.556,350.000,905.556,11.111,N
634,-0.520,1.455,-0.340,102.778,80.556,369.444,897.222,8.333,N
635,-0.515,1.505,-0.365,100.000,66.667,352.778,938.889,41.667,N
636,-0.515,1.375,-0.335,100.000,69.444,341.667,922.222,16.667,N
637,-0.540,1.530,-0.330,102.778,75.000,375.000,905.556,16.667,N
638,-0.560,1.315,-0.375,102.778,75.000,355.556,922.222,16.667,N
639,-0.570,1.395,-0.400,108.333,61.111,341.667,922.222,0.000,N
640,-0.540,1.465,-0.405,105.556,75.000,347.222,916.667,5.556,N
641,-0.630,1.360,-0.400,100.000,77.778,366.667,913.889,2.778,N
642,-0.610,1.320,-0.435,97.222,63.889,338.889,941.667,27.778,N
643,-0.605,1.250,-0.460,100.000,72.222,350.000,905.556,36.111,N
644,-0.610,1.140,-0.425,91.667,75.000,369.444,883.333,22.222,N
645,-0.595,1.350,-0.395,100.000,72.222,358.333,891.667,8.333,N
646,-0.595,1.340,-0.400,105.556,72.222,361.111,938.889,47.222,N
647,-0.575,1.260,-0.425,100.000,75.000,363.889,902.778,36.111,N
648,-0.565,1.285,-0.395,102.778,69.444,350.000,886.111,16.667,N
649,-0.285,1.270,-0.325,127.778,41.667,322.222,663.889,222.222,A
650,-0.640,1.320,-0.420,105.556,69.444,355.556,1044.444,380.556,N
651,-0.600,1.270,-0.460,100.000,69.444,344.444,927.778,116.667,N
652,-0.615,1.190,-0.405,94.444,55.556,327.778,880.556,47.222,N
653,-0.575,1.295,-0.395,100.000,75.000,377.778,894.444,13.889,N
654,-0.595,1.330,-0.325,97.222,58.333,327.778,911.111,16.667,N
655,-0.525,1.385,-0.315,97.222,75.000,352.778,886.111,25.000,N
656,-0.525,1.340,-0.335,105.556,77.778,380.556,902.778,16.667,N
657,-0.520,1.215,-0.365,100.000,75.000,363.889,911.111,8.333,N
658,-0.545,1.155,-0.315,105.556,83.333,352.778,894.444,16.667,N
659,-0.530,1.120,-0.320,100.000,75.000,352.778,900.000,5.556,N
660,-0.515,1.275,-0.335,105.556,77.778,358.333,905.556,5.556,N
661,-0.505,1.310,-0.345,102.778,69.444,355.556,908.333,2.778,N
662,-0.505,1.085,-0.295,94.444,63.889,341.667,902.778,5.556,N
663,-0.525,1.175,-0.280,102.778,63.889,352.778,897.222,5.556,N
664,-0.535,1.130,-0.340,91.667,75.000,361.111,925.000,27.778,N
665,-0.550,1.075,-0.385,97.222,72.222,355.556,902.778,22.222,N
666,-0.550,1.075,-0.310,100.000,75.000,375.000,891.667,11.111,N
667,-0.545,1.325,-0.295,105.556,66.667,350.000,919.444,27.778,N
668,-0.505,1.190,-0.330,105.556,72.222,347.222,902.778,16.667,N
669,-0.505,1.265,-0.335,100.000,75.000,350.000,872.222,30.556,N
670,-0.495,1.160,-0.325,102.778,72.222,344.444,877.778,5.556,N
671,-0.495,1.290,-0.290,97.222,75.000,358.333,913.889,36.111,N
672,-0.500,1.230,-0.345,97.222,72.222,347.222,902.778,11.111,N
673,-0.515,1.215,-0.325,94.444,69.444,352.778,897.222,5.556,N
674,-0.495,1.330,-0.315,97.222,72.222,355.556,905.556,8.333,N
675,-0.490,1.310,-0.300,97.222,72.222,377.778,936.111,30.556,N
676,-0.475,1.225,-0.335,100.000,72.222,350.000,936.111,0.000,N
677,-0.500,1.180,-0.305,97.222,69.444,358.333,919.444,16.667,N
678,-0.505,1.330,-0.290,116.667,75.000,369.444,961.111,41.667,N
679,-0.490,1.145,-0.335,100.000,69.444,350.000,941.667,19.444,N
680,-0.505,1.140,-0.360,97.222,66.667,355.556,919.444,22.222,N
681,-0.530,1.175,-0.315,97.222,66.667,347.222,913.889,5.556,N
682,-0.535,1.385,-0.290,97.222,72.222,361.111,927.778,13.889,N
683,-0.490,1.170,-0.340,113.889,63.889,352.778,933.333,5.556,N
684,-0.505,1.300,-0.325,94.444,66.667,355.556,905.556,27.778,N
685,-0.535,1.250,-0.320,113.889,69.444,352.778,933.333,27.778,N
686,-0.560,1.185,-0.350,91.667,63.889,347.222,936.111,2.778,N
687,-0.515,1.230,-0.340,94.444,69.444,352.778,905.556,30.556,N
688,-0.515,1.220,-0.380,105.556,75.000,355.556,913.889,8.333,N
689,-0.530,1.140,-0.355,97.222,75.000,369.444,930.556,16.667,N
690,-0.565,1.165,-0.360,94.444,72.222,355.556,930.556,0.000,N
691,-0.545,1.220,-0.400,88.889,66.667,355.556,925.000,5.556,N
692,-0.545,1.085,-0.380,102.778,77.778,377.778,947.222,22.222,N
693,-0.540,1.250,-0.330,113.889,75.000,347.222,941.667,5.556,N
694,-0.525,1.130,-0.335,91.667,63.889,347.222,908.333,33.333,N
695,-0.480,1.170,-0.330,86.111,66.667,352.778,933.333,25.000,N
696,-0.490,1.270,-0.320,91.667,61.111,350.000,933.333,0.000,N
697,-0.505,1.380,-0.290,100.000,75.000,355.556,916.667,16.667,N
698,-0.500,1.315,-0.295,91.667,72.222,361.111,927.778,11.111,N
699,-0.490,1.310,-0.350,100.000,75.000,369.444,944.444,16.667,N
700,-0.500,1.330,-0.365,100.000,75.000,358.333,927.778,16.667,N
701,-0.565,1.235,-0.305,111.111,61.111,344.444,913.889,13.889,N
702,-0.580,1.280,-0.340,97.222,69.444,363.889,925.000,11.111,N
703,-0.550,1.415,-0.365,105.556,72.222,375.000,930.556,5.556,N
704,-0.535,1.335,-0.365,100.000,72.222,355.556,927.778,2.778,N
705,-0.555,1.170,-0.300,100.000,66.667,350.000,900.000,27.778,N
706,-0.560,1.345,-0.330,102.778,72.222,363.889,936.111,36.111,N
707,-0.535,1.375,-0.370,102.778,69.444,347.222,930.556,5.556,N
708,-0.580,1.170,-0.395,105.556,72.222,344.444,886.111,44.444,N
709,-0.595,1.250,-0.340,88.889,61.111,330.556,900.000,13.889,N
710,-0.575,1.430,-0.335,97.222,66.667,363.889,883.333,16.667,N
711,-0.580,1.325,-0.395,108.333,69.444,347.222,911.111,27.778,N
712,-0.575,1.180,-0.415,97.222,72.222,347.222,861.111,50.000,N
713,-0.590,1.385,-0.360,100.000,69.444,372.222,869.444,8.333,N
714,-0.605,1.300,-0.310,97.222,77.778,369.444,902.778,33.333,N
715,-0.615,1.545,-0.310,91.667,61.111,350.000,877.778,25.000,N
716,-0.575,1.480,-0.355,102.778,69.444,347.222,883.333,5.556,N
717,-0.475,1.385,-0.400,116.667,83.333,363.889,847.222,36.111,N
718,-0.560,1.410,-0.205,94.444,61.111,325.000,905.556,58.333,N
719,-0.535,1.565,-0.235,91.667,66.667,338.889,866.667,38.889,N
720,-0.525,1.535,-0.255,102.778,72.222,355.556,861.111,5.556,N
721,-0.495,1.625,-0.235,97.222,66.667,336.111,883.333,22.222,N
722,-0.365,1.435,-0.345,136.111,41.667,294.444,541.667,341.667,A
723,-0.580,1.600,-0.255,97.222,61.111,344.444,972.222,430.556,N
724,-0.585,1.420,-0.340,91.667,66.667,330.556,844.444,127.778,N
725,-0.550,1.500,-0.295,105.556,77.778,366.667,855.556,11.111,N
726,-0.520,1.295,-0.345,91.667,66.667,330.556,847.222,8.333,N
727,-0.350,1.495,-0.295,127.778,41.667,288.889,572.222,275.000,A
728,-0.625,1.530,-0.230,105.556,69.444,363.889,947.222,375.000,N
729,-0.605,1.495,-0.310,91.667,69.444,330.556,880.556,66.667,N
730,-0.545,1.490,-0.220,88.889,72.222,336.111,850.000,30.556,N
731,-0.545,1.425,-0.305,100.000,61.111,336.111,836.111,13.889,N
732,-0.525,1.640,-0.165,94.444,61.111,336.111,844.444,8.333,N
733,-0.550,1.740,-0.165,102.778,69.444,350.000,880.556,36.111,N
734,-0.525,1.390,-0.160,108.333,66.667,333.333,877.778,2.778,N
735,-0.495,1.375,-0.235,88.889,61.111,322.222,844.444,33.333,N
736,-0.390,1.415,-0.320,197.222,77.778,266.667,516.667,327.778,A
737,-0.320,1.250,-0.345,191.667,83.333,341.667,402.778,113.889,A
738,-0.575,1.570,-0.405,105.556,80.556,372.222,880.556,477.778,N
739,-0.540,1.415,-0.410,97.222,69.444,350.000,900.000,19.444,N
740,-0.500,1.560,-0.350,100.000,72.222,330.556,883.333,16.667,N
741,-0.335,1.480,-0.260,130.556,41.667,288.889,563.889,319.444,A
742,-0.560,1.340,-0.215,105.556,75.000,347.222,1044.444,480.556,N
743,-0.525,1.610,-0.275,100.000,58.333,322.222,902.778,141.667,N
744,-0.485,1.510,-0.260,100.000,69.444,347.222,888.889,13.889,N
745,-0.500,1.445,-0.285,97.222,75.000,347.222,897.222,8.333,N
746,-0.510,1.610,-0.140,100.000,63.889,330.556,880.556,16.667,N
747,-0.505,1.610,-0.150,100.000,66.667,344.444,886.111,5.556,N
748,-0.465,1.575,-0.155,100.000,66.667,344.444,905.556,19.444,N
749,-0.310,1.470,-0.170,197.222,77.778,280.556,530.556,375.000,A
750,-0.170,1.260,-0.410,183.333,77.778,322.222,408.333,122.222,A
751,-0.410,1.350,-0.390,147.222,77.778,327.778,422.222,13.889,A
752,-0.395,1.195,-0.490,191.667,41.667,288.889,480.556,58.333,A
753,-0.520,1.535,-0.375,113.889,80.556,350.000,702.778,222.222,N
754,-0.555,1.525,-0.340,91.667,72.222,355.556,1072.222,369.444,N
755,-0.350,1.535,-0.225,125.000,41.667,325.000,911.111,161.111,N
756,-0.225,1.335,-0.190,175.000,77.778,258.333,477.778,433.333,A
757,-0.205,1.305,-0.355,191.667,83.333,330.556,405.556,72.222,A
758,-0.355,1.315,-0.400,136.111,80.556,305.556,408.333,2.778,A
759,-0.560,1.575,-0.445,119.444,61.111,361.111,933.333,525.000,N
760,-0.535,1.385,-0.500,116.667,55.556,336.111,997.222,63.889,N
761,-0.525,1.245,-0.390,97.222,66.667,344.444,911.111,86.111,N
762,-0.525,1.450,-0.260,102.778,69.444,350.000,938.889,27.778,N
763,-0.535,1.450,-0.260,105.556,72.222,338.889,947.222,8.333,N
764,-0.565,1.430,-0.345,88.889,66.667,350.000,902.778,44.444,N
765,-0.575,1.390,-0.310,108.333,69.444,330.556,938.889,36.111,N
766,-0.540,1.470,-0.275,102.778,63.889,336.111,922.222,16.667,N
767,-0.505,1.460,-0.255,91.667,61.111,327.778,947.222,25.000,N
768,-0.520,1.355,-0.335,102.778,63.889,322.222,961.111,13.889,N
769,-0.545,1.405,-0.335,102.778,77.778,361.111,952.778,8.333,N
770,-0.520,1.465,-0.275,102.778,63.889,347.222,950.000,2.778,N
771,-0.540,1.280,-0.295,100.000,69.444,338.889,944.444,5.556,N
772,-0.565,1.425,-0.335,94.444,69.444,333.333,963.889,19.444,N
773,-0.535,1.370,-0.320,94.444,66.667,347.222,936.111,27.778,N
774,-0.530,1.445,-0.255,105.556,75.000,338.889,950.000,13.889,N
775,-0.505,1.380,-0.305,97.222,69.444,341.667,919.444,30.556,N
776,-0.555,1.360,-0.335,113.889,69.444,361.111,922.222,2.778,N
777,-0.605,1.190,-0.390,102.778,75.000,352.778,927.778,5.556,N
778,-0.620,1.375,-0.330,102.778,69.444,344.444,925.000,2.778,N
779,-0.630,1.285,-0.370,105.556,66.667,333.333,980.556,55.556,N
780,-0.595,1.330,-0.395,97.222,75.000,352.778,947.222,33.333,N
781,-0.565,1.365,-0.360,100.000,66.667,338.889,941.667,5.556,N
782,-0.580,1.160,-0.360,94.444,63.889,327.778,947.222,5.556,N
783,-0.560,1.415,-0.355,100.000,63.889,352.778,969.444,22.222,N
784,-0.565,1.360,-0.380,100.000,83.333,355.556,961.111,8.333,N
785,-0.560,1.235,-0.320,100.000,66.667,338.889,947.222,13.889,N
786,-0.540,1.325,-0.350,97.222,72.222,347.222,966.667,19.444,N
787,-0.515,1.350,-0.380,102.778,69.444,366.667,969.444,2.778,N
788,-0.535,1.285,-0.375,97.222,72.222,355.556,966.667,2.778,N
789,-0.615,1.330,-0.380,97.222,69.444,350.000,950.000,16.667,N
790,-0.580,1.225,-0.375,108.333,83.333,358.333,997.222,47.222,N
791,-0.590,1.185,-0.390,97.222,72.222,341.667,958.333,38.889,N
792,-0.600,1.170,-0.385,97.222,66.667,347.222,925.000,33.333,N
793,-0.625,1.330,-0.350,108.333,77.778,355.556,952.778,27.778,N
794,-0.605,1.310,-0.355,102.778,72.222,363.889,955.556,2.778,N
795,-0.535,1.385,-0.365,113.889,66.667,338.889,977.778,22.222,N
796,-0.520,1.225,-0.340,97.222,72.222,352.778,922.222,55.556,N
797,-0.570,1.495,-0.290,116.667,66.667,333.333,952.778,30.556,N
798,-0.555,1.370,-0.305,105.556,69.444,336.111,955.556,2.778,N
799,-0.535,1.480,-0.320,94.444,63.889,347.222,950.000,5.556,N
800,-0.525,1.410,-0.325,111.111,75.000,363.889,952.778,2.778,N
801,-0.480,1.550,-0.245,102.778,75.000,350.000,963.889,11.111,N
802,-0.470,1.535,-0.240,100.000,72.222,350.000,955.556,8.333,N
803,-0.490,1.290,-0.290,94.444,72.222,361.111,952.778,2.778,N
804,-0.480,1.550,-0.265,102.778,77.778,350.000,969.444,16.667,N
805,-0.450,1.490,-0.220,94.444,69.444,347.222,950.000,19.444,N
806,-0.445,1.475,-0.240,97.222,66.667,347.222,961.111,11.111,N
807,-0.455,1.465,-0.295,102.778,77.778,347.222,980.556,19.444,N
808,-0.470,1.475,-0.270,97.222,66.667,344.444,983.333,2.778,N
809,-0.475,1.355,-0.225,94.444,69.444,341.667,950.000,33.333,N
810,-0.445,1.555,-0.250,97.222,72.222,372.222,969.444,19.444,N
811,-0.455,1.370,-0.270,100.000,77.778,363.889,972.222,2.778,N
812,-0.475,1.405,-0.245,102.778,69.444,358.333,938.889,33.333,N
813,-0.470,1.475,-0.245,97.222,72.222,344.444,955.556,16.667,N
814,-0.450,1.250,-0.305,100.000,69.444,355.556,955.556,0.000,N
815,-0.480,1.505,-0.325,100.000,72.222,355.556,969.444,13.889,N
816,-0.480,1.380,-0.235,94.444,63.889,347.222,930.556,38.889,N
817,-0.505,1.345,-0.235,102.778,66.667,355.556,958.333,27.778,N
818,-0.490,1.325,-0.290,97.222,75.000,352.778,952.778,5.556,N
819,-0.465,1.150,-0.270,91.667,72.222,352.778,927.778,25.000,N
820,-0.490,1.370,-0.210,94.444,63.889,344.444,938.889,11.111,N
821,-0.485,1.475,-0.200,100.000,69.444,355.556,961.111,22.222,N
822,-0.470,1.485,-0.275,105.556,72.222,350.000,938.889,22.222,N
823,-0.470,1.285,-0.265,102.778,75.000,352.778,936.111,2.778,N
824,-0.490,1.490,-0.225,105.556,72.222,355.556,961.111,25.000,N
825,-0.500,1.355,-0.235,100.000,69.444,347.222,977.778,16.667,N
826,-0.475,1.450,-0.285,97.222,66.667,347.222,952.778,25.000,N
827,-0.480,1.435,-0.265,102.778,72.222,358.333,972.222,19.444,N
828,-0.485,1.530,-0.195,105.556,69.444,347.222,1002.778,30.556,N
829,-0.470,1.280,-0.240,91.667,72.222,355.556,947.222,55.556,N
830,-0.500,1.490,-0.250,97.222,61.111,352.778,936.111,11.111,N
831,-0.470,1.460,-0.255,94.444,75.000,352.778,980.556,44.444,N
832,-0.490,1.535,-0.275,100.000,66.667,358.333,938.889,41.667,N
833,-0.470,1.275,-0.255,88.889,63.889,347.222,916.667,22.222,N
834,-0.460,1.425,-0.240,91.667,66.667,352.778,900.000,16.667,N
835,-0.460,1.340,-0.220,102.778,63.889,327.778,933.333,33.333,N
836,-0.520,1.370,-0.245,91.667,63.889,338.889,891.667,41.667,N
837,-0.495,1.315,-0.255,97.222,75.000,363.889,905.556,13.889,N
838,-0.435,1.305,-0.220,91.667,66.667,347.222,933.333,27.778,N
839,-0.425,1.610,-0.115,97.222,72.222,350.000,883.333,50.000,N
840,-0.445,1.630,-0.155,97.222,75.000,369.444,908.333,25.000,N
841,-0.470,1.580,-0.240,91.667,72.222,350.000,916.667,8.333,N
842,-0.455,1.470,-0.220,97.222,69.444,350.000,911.111,5.556,N
843,-0.475,1.410,-0.165,102.778,75.000,341.667,905.556,5.556,N
844,-0.465,1.495,-0.180,108.333,63.889,338.889,905.556,0.000,N
845,-0.470,1.440,-0.255,102.778,72.222,347.222,930.556,25.000,N
846,-0.510,1.540,-0.270,102.778,69.444,341.667,905.556,25.000,N
847,-0.485,1.490,-0.195,88.889,69.444,355.556,875.000,30.556,N
848,-0.515,1.510,-0.205,100.000,69.444,358.333,905.556,30.556,N
849,-0.540,1.565,-0.255,94.444,66.667,350.000,927.778,22.222,N
850,-0.500,1.475,-0.260,105.556,66.667,350.000,902.778,25.000,N
851,-0.520,1.460,-0.290,94.444,69.444,363.889,894.444,8.333,N
852,-0.525,1.530,-0.190,94.444,69.444,344.444,938.889,44.444,N
853,-0.510,1.585,-0.220,105.556,66.667,336.111,922.222,16.667,N
854,-0.510,1.450,-0.270,97.222,69.444,352.778,888.889,33.333,N
855,-0.510,1.500,-0.275,88.889,63.889,358.333,886.111,2.778,N
856,-0.570,1.535,-0.240,97.222,69.444,352.778,944.444,58.333,N
857,-0.580,1.560,-0.300,100.000,69.444,350.000,927.778,16.667,N
858,-0.545,1.415,-0.340,102.778,66.667,344.444,916.667,11.111,N
859,-0.560,1.380,-0.320,97.222,69.444,350.000,980.556,63.889,N
860,-0.565,1.475,-0.270,88.889,63.889,336.111,966.667,13.889,N
861,-0.565,1.395,-0.315,88.889,63.889,363.889,933.333,33.333,N
862,-0.560,1.230,-0.365,97.222,72.222,358.333,941.667,8.333,N
863,-0.540,1.480,-0.330,105.556,72.222,366.667,950.000,8.333,N
864,-0.530,1.630,-0.240,102.778,66.667,341.667,947.222,2.778,N
865,-0.535,1.505,-0.285,111.111,69.444,352.778,927.778,19.444,N
866,-0.520,1.435,-0.340,94.444,69.444,350.000,947.222,19.444,N
867,-0.560,1.455,-0.365,108.333,72.222,341.667,902.778,44.444,N
868,-0.600,1.345,-0.300,91.667,66.667,352.778,891.667,11.111,N
869,-0.590,1.440,-0.325,105.556,75.000,355.556,925.000,33.333,N
870,-0.605,1.560,-0.375,94.444,66.667,361.111,936.111,11.111,N
871,-0.605,1.355,-0.375,91.667,72.222,361.111,938.889,2.778,N
872,-0.595,1.530,-0.355,108.333,75.000,361.111,950.000,11.111,N
873,-0.585,1.560,-0.335,100.000,66.667,347.222,969.444,19.444,N
874,-0.560,1.355,-0.360,94.444,75.000,350.000,958.333,11.111,N
875,-0.555,1.450,-0.395,97.222,69.444,352.778,933.333,25.000,N
876,-0.585,1.475,-0.360,100.000,75.000,366.667,961.111,27.778,N
877,-0.560,1.345,-0.365,100.000,66.667,355.556,963.889,2.778,N
878,-0.575,1.335,-0.415,100.000,77.778,358.333,941.667,22.222,N
879,-0.560,1.365,-0.380,94.444,72.222,363.889,922.222,19.444,N
880,-0.575,1.350,-0.330,102.778,77.778,358.333,963.889,41.667,N
881,-0.550,1.500,-0.305,100.000,72.222,341.667,927.778,36.111,N
882,-0.535,1.495,-0.385,91.667,58.333,350.000,911.111,16.667,N
883,-0.525,1.500,-0.370,105.556,77.778,377.778,922.222,11.111,N
884,-0.535,1.420,-0.320,102.778,63.889,358.333,941.667,19.444,N
885,-0.575,1.335,-0.350,97.222,72.222,352.778,933.333,8.333,N
886,-0.570,1.440,-0.420,91.667,69.444,352.778,908.333,25.000,N
887,-0.570,1.365,-0.390,111.111,75.000,363.889,952.778,44.444,N
888,-0.565,1.355,-0.390,94.444,69.444,344.444,916.667,36.111,N
889,-0.550,1.380,-0.280,88.889,61.111,352.778,927.778,11.111,N
890,-0.540,1.440,-0.305,105.556,75.000,369.444,925.000,2.778,N
891,-0.510,1.475,-0.350,97.222,69.444,361.111,919.444,5.556,N
892,-0.540,1.385,-0.355,102.778,75.000,355.556,916.667,2.778,N
893,-0.540,1.340,-0.280,97.222,63.889,347.222,913.889,2.778,N
894,-0.530,1.530,-0.310,108.333,69.444,350.000,958.333,44.444,N
895,-0.565,1.220,-0.395,100.000,69.444,344.444,925.000,33.333,N
896,-0.560,1.320,-0.410,91.667,66.667,352.778,911.111,13.889,N
897,-0.595,1.395,-0.385,100.000,75.000,366.667,913.889,2.778,N
898,-0.605,1.420,-0.360,100.000,66.667,352.778,927.778,13.889,N
899,-0.585,1.460,-0.405,102.778,75.000,363.889,927.778,0.000,N
900,-0.580,1.230,-0.430,91.667,63.889,352.778,905.556,22.222,N
901,-0.590,1.320,-0.325,94.444,69.444,355.556,933.333,27.778,N
902,-0.610,1.235,-0.350,91.667,69.444,344.444,933.333,0.000,N
903,-0.585,1.295,-0.380,108.333,75.000,344.444,913.889,19.444,N
904,-0.585,1.215,-0.400,94.444,63.889,355.556,886.111,27.778,N
905,-0.600,1.145,-0.350,102.778,72.222,369.444,922.222,36.111,N
906,-0.595,1.290,-0.305,97.222,63.889,344.444,916.667,5.556,N
907,-0.585,1.390,-0.360,102.778,72.222,363.889,880.556,36.111,N
908,-0.590,1.180,-0.350,91.667,66.667,358.333,908.333,27.778,N
909,-0.550,1.355,-0.315,97.222,63.889,344.444,911.111,2.778,N
910,-0.585,1.305,-0.330,113.889,66.667,336.111,922.222,11.111,N
911,-0.575,1.325,-0.380,91.667,69.444,358.333,916.667,5.556,N
912,-0.600,1.310,-0.405,111.111,63.889,361.111,950.000,33.333,N
913,-0.600,1.235,-0.350,102.778,75.000,361.111,961.111,11.111,N
914,-0.550,1.305,-0.360,91.667,66.667,361.111,919.444,41.667,N
915,-0.520,1.170,-0.375,97.222,69.444,355.556,969.444,50.000,N
916,-0.515,1.200,-0.395,94.444,69.444,330.556,930.556,38.889,N
917,-0.550,1.305,-0.315,88.889,63.889,350.000,894.444,36.111,N
918,-0.535,1.330,-0.290,97.222,80.556,372.222,927.778,33.333,N
919,-0.485,1.355,-0.380,97.222,69.444,361.111,947.222,19.444,N
920,-0.520,1.315,-0.385,100.000,75.000,369.444,913.889,33.333,N
921,-0.565,1.435,-0.325,94.444,80.556,366.667,902.778,11.111,N
922,-0.535,1.225,-0.320,100.000,72.222,352.778,952.778,50.000,N
923,-0.560,1.300,-0.420,91.667,66.667,344.444,955.556,2.778,N
924,-0.525,1.335,-0.410,100.000,69.444,369.444,913.889,41.667,N
925,-0.540,1.305,-0.370,102.778,77.778,366.667,936.111,22.222,N
926,-0.590,1.395,-0.350,97.222,61.111,358.333,947.222,11.111,N
927,-0.590,1.230,-0.425,97.222,72.222,350.000,947.222,0.000,N
928,-0.565,1.245,-0.430,94.444,72.222,361.111,933.333,13.889,N
929,-0.575,1.320,-0.370,91.667,69.444,352.778,961.111,27.778,N
930,-0.620,1.340,-0.370,94.444,66.667,350.000,936.111,25.000,N
931,-0.600,1.385,-0.420,100.000,77.778,380.556,913.889,22.222,N
932,-0.585,1.100,-0.420,105.556,58.333,352.778,905.556,8.333,N
933,-0.580,1.245,-0.435,100.000,72.222,352.778,922.222,16.667,N
934,-0.625,1.385,-0.390,105.556,72.222,338.889,888.889,33.333,N
935,-0.615,1.290,-0.365,91.667,66.667,361.111,869.444,19.444,N
936,-0.615,1.305,-0.395,88.889,66.667,350.000,930.556,61.111,N
937,-0.595,1.325,-0.395,108.333,63.889,333.333,894.444,36.111,N
938,-0.565,1.360,-0.370,108.333,69.444,350.000,894.444,0.000,N
939,-0.605,1.450,-0.320,88.889,63.889,355.556,913.889,19.444,N
940,-0.595,1.370,-0.345,102.778,72.222,366.667,919.444,5.556,N
941,-0.575,1.245,-0.375,91.667,63.889,350.000,911.111,8.333,N
942,-0.575,1.410,-0.385,94.444,69.444,341.667,891.667,19.444,N
943,-0.425,1.385,-0.320,147.222,38.889,313.889,550.000,341.667,A
944,-0.645,1.520,-0.390,94.444,66.667,358.333,1036.111,486.111,N
945,-0.625,1.450,-0.455,102.778,77.778,350.000,913.889,122.222,N
946,-0.585,1.440,-0.405,100.000,69.444,344.444,894.444,19.444,N
947,-0.495,1.360,-0.420,108.333,66.667,350.000,891.667,2.778,N
948,-0.580,1.350,-0.265,86.111,58.333,333.333,922.222,30.556,N
949,-0.570,1.360,-0.275,102.778,69.444,347.222,922.222,0.000,N
950,-0.565,1.465,-0.315,94.444,69.444,361.111,927.778,5.556,N
951,-0.300,1.215,-0.295,125.000,41.667,305.556,622.222,305.556,A
952,-0.600,1.525,-0.280,88.889,63.889,355.556,1033.333,411.111,N
953,-0.630,1.275,-0.365,97.222,69.444,347.222,952.778,80.556,N
954,-0.615,1.365,-0.340,97.222,72.222,352.778,925.000,27.778,N
955,-0.490,1.500,-0.425,130.556,41.667,319.444,905.556,19.444,N
956,-0.415,1.340,-0.360,125.000,41.667,300.000,658.333,247.222,A
957,-0.630,1.450,-0.295,102.778,66.667,352.778,1005.556,347.222,N
958,-0.645,1.425,-0.375,97.222,69.444,347.222,927.778,77.778,N
959,-0.645,1.295,-0.320,86.111,69.444,338.889,886.111,41.667,N
960,-0.580,1.415,-0.380,102.778,69.444,347.222,863.889,22.222,N
961,-0.585,1.540,-0.270,102.778,66.667,347.222,880.556,16.667,N
962,-0.620,1.570,-0.250,105.556,63.889,355.556,930.556,50.000,N
963,-0.625,1.525,-0.265,105.556,75.000,344.444,933.333,2.778,N
964,-0.555,1.490,-0.295,91.667,66.667,352.778,875.000,58.333,N
965,-0.560,1.345,-0.330,105.556,72.222,344.444,916.667,41.667,N
966,-0.550,1.640,-0.190,94.444,66.667,344.444,916.667,0.000,N
967,-0.525,1.625,-0.185,102.778,75.000,350.000,913.889,2.778,N
968,-0.505,1.530,-0.195,97.222,69.444,344.444,930.556,16.667,N
969,-0.485,1.495,-0.195,97.222,72.222,352.778,927.778,2.778,N
970,-0.215,1.565,-0.240,136.111,38.889,286.111,644.444,283.333,A
971,-0.510,1.605,-0.155,94.444,63.889,341.667,1061.111,416.667,N
972,-0.520,1.535,-0.255,108.333,75.000,369.444,947.222,113.889,N
973,-0.505,1.600,-0.265,105.556,72.222,355.556,927.778,19.444,N
974,-0.495,1.320,-0.255,105.556,69.444,341.667,900.000,27.778,N
975,-0.405,1.445,-0.290,133.333,41.667,297.222,838.889,61.111,A
976,-0.565,1.590,-0.240,108.333,69.444,347.222,975.000,136.111,N
977,-0.555,1.515,-0.255,97.222,69.444,338.889,916.667,58.333,N
978,-0.525,1.500,-0.230,105.556,72.222,341.667,908.333,8.333,N
979,-0.355,1.380,-0.230,197.222,75.000,286.111,513.889,394.444,A
980,-0.230,1.225,-0.370,169.444,80.556,344.444,413.889,100.000,A
981,-0.555,1.295,-0.485,113.889,72.222,347.222,666.667,252.778,A
982,-0.585,1.560,-0.435,97.222,66.667,344.444,988.889,322.222,N
983,-0.600,1.565,-0.405,102.778,69.444,366.667,966.667,22.222,N
984,-0.535,1.455,-0.360,108.333,69.444,350.000,947.222,19.444,N
985,-0.550,1.445,-0.360,94.444,63.889,338.889,955.556,8.333,N
986,-0.395,1.545,-0.300,141.667,41.667,297.222,558.333,397.222,A
987,-0.565,1.570,-0.305,97.222,69.444,369.444,1050.000,491.667,N
988,-0.510,1.580,-0.295,97.222,66.667,347.222,1000.000,50.000,N
989,-0.505,1.500,-0.280,100.000,61.111,322.222,950.000,50.000,N
990,-0.495,1.570,-0.295,100.000,63.889,355.556,933.333,16.667,N
991,-0.540,1.565,-0.280,102.778,66.667,344.444,963.889,30.556,N
992,-0.545,1.625,-0.290,100.000,72.222,347.222,983.333,19.444,N
993,-0.515,1.455,-0.330,105.556,63.889,344.444,958.333,25.000,N
994,-0.515,1.465,-0.340,100.000,63.889,355.556,930.556,27.778,N
995,-0.550,1.480,-0.260,91.667,69.444,358.333,972.222,41.667,N
996,-0.545,1.610,-0.295,94.444,66.667,347.222,944.444,27.778,N
997,-0.535,1.550,-0.340,97.222,66.667,347.222,927.778,16.667,N
998,-0.545,1.475,-0.370,105.556,75.000,355.556,950.000,22.222,N
999,-0.570,1.615,-0.285,108.333,72.222,338.889,966.667,16.667,N
1000,-0.535,1.515,-0.290,97.222,75.000,352.778,955.556,11.111,N
1001,-0.520,1.540,-0.330,100.000,72.222,372.222,969.444,13.889,N
1002,-0.500,1.420,-0.290,94.444,66.667,344.444,997.222,27.778,N
1003,-0.505,1.485,-0.315,100.000,72.222,355.556,980.556,16.667,N
1004,-0.550,1.455,-0.325,102.778,63.889,347.222,977.778,2.778,N
1005,-0.505,1.425,-0.360,97.222,75.000,372.222,975.000,2.778,N
1006,-0.495,1.510,-0.340,94.444,69.444,352.778,963.889,11.111,N
1007,-0.500,1.525,-0.345,97.222,69.444,355.556,938.889,25.000,N
1008,-0.540,1.410,-0.320,108.333,77.778,377.778,986.111,47.222,N
1009,-0.525,1.450,-0.360,108.333,80.556,347.222,972.222,13.889,N
1010,-0.510,1.435,-0.375,97.222,66.667,358.333,944.444,27.778,N
1011,-0.515,1.525,-0.325,100.000,80.556,377.778,950.000,5.556,N
1012,-0.525,1.465,-0.295,105.556,77.778,372.222,969.444,19.444,N
1013,-0.475,1.475,-0.320,97.222,72.222,350.000,961.111,8.333,N
1014,-0.450,1.345,-0.345,97.222,72.222,375.000,927.778,33.333,N
1015,-0.460,1.450,-0.320,102.778,75.000,341.667,972.222,44.444,N
1016,-0.525,1.390,-0.315,100.000,72.222,338.889,933.333,38.889,N
1017,-0.505,1.445,-0.360,108.333,77.778,380.556,936.111,2.778,N
1018,-0.500,1.345,-0.345,105.556,77.778,366.667,947.222,11.111,N
1019,-0.515,1.325,-0.305,105.556,72.222,361.111,958.333,11.111,N
1020,-0.500,1.285,-0.320,94.444,63.889,350.000,941.667,16.667,N
1021,-0.495,1.400,-0.365,105.556,72.222,352.778,936.111,5.556,N
1022,-0.470,1.265,-0.315,94.444,66.667,358.333,930.556,5.556,N
1023,-0.500,1.320,-0.320,94.444,77.778,363.889,925.000,5.556,N
1024,-0.490,1.245,-0.295,97.222,75.000,369.444,922.222,2.778,N
1025,-0.450,1.440,-0.310,105.556,69.444,358.333,925.000,2.778,N
1026,-0.455,1.335,-0.315,100.000,80.556,350.000,922.222,2.778,N
1027,-0.460,1.215,-0.265,102.778,77.778,347.222,894.444,27.778,N
1028,-0.455,1.420,-0.285,100.000,72.222,372.222,888.889,5.556,N
1029,-0.460,1.425,-0.335,102.778,75.000,355.556,938.889,50.000,N
1030,-0.515,1.280,-0.350,91.667,69.444,344.444,900.000,38.889,N
1031,-0.515,1.290,-0.410,105.556,75.000,355.556,894.444,5.556,N
1032,-0.565,1.455,-0.330,100.000,69.444,358.333,930.556,36.111,N
1033,-0.540,1.210,-0.335,102.778,69.444,352.778,963.889,33.333,N
1034,-0.525,1.205,-0.370,94.444,77.778,347.222,925.000,38.889,N
1035,-0.490,1.180,-0.345,100.000,69.444,361.111,905.556,19.444,N
1036,-0.480,1.330,-0.260,97.222,72.222,352.778,944.444,38.889,N
1037,-0.515,1.380,-0.310,94.444,72.222,347.222,911.111,33.333,N
1038,-0.495,1.365,-0.330,108.333,80.556,372.222,941.667,30.556,N
1039,-0.460,1.375,-0.320,94.444,69.444,350.000,911.111,30.556,N
1040,-0.485,1.390,-0.250,94.444,63.889,341.667,930.556,19.444,N
1041,-0.455,1.345,-0.220,94.444,72.222,347.222,913.889,16.667,N
1042,-0.165,1.350,-0.200,119.444,41.667,311.111,600.000,313.889,A
1043,-0.445,1.385,-0.285,97.222,69.444,363.889,1097.222,497.222,N
1044,-0.420,1.300,-0.310,100.000,66.667,347.222,969.444,127.778,N
1045,-0.460,1.570,-0.235,100.000,75.000,372.222,936.111,33.333,N
1046,-0.470,1.490,-0.285,105.556,77.778,358.333,941.667,5.556,N
1047,-0.465,1.530,-0.330,102.778,75.000,366.667,933.333,8.333,N
1048,-0.450,1.410,-0.290,100.000,69.444,352.778,911.111,22.222,N
1049,-0.490,1.425,-0.220,88.889,75.000,366.667,930.556,19.444,N
1050,-0.495,1.420,-0.270,97.222,69.444,350.000,955.556,25.000,N
1051,-0.465,1.500,-0.285,100.000,69.444,350.000,958.333,2.778,N
1052,-0.470,1.385,-0.295,94.444,72.222,358.333,922.222,36.111,N
1053,-0.475,1.430,-0.245,111.111,77.778,355.556,925.000,2.778,N
1054,-0.505,1.475,-0.245,108.333,63.889,336.111,972.222,47.222,N
1055,-0.510,1.390,-0.265,100.000,63.889,341.667,922.222,50.000,N
1056,-0.495,1.550,-0.305,108.333,66.667,355.556,916.667,5.556,N
1057,-0.380,1.420,-0.280,147.222,41.667,297.222,563.889,352.778,A
1058,-0.565,1.480,-0.320,94.444,66.667,350.000,1075.000,511.111,N
1059,-0.555,1.470,-0.360,97.222,69.444,369.444,947.222,127.778,N
1060,-0.535,1.355,-0.355,97.222,69.444,369.444,930.556,16.667,N
1061,-0.545,1.465,-0.420,105.556,75.000,358.333,936.111,5.556,N
1062,-0.590,1.460,-0.285,97.222,63.889,341.667,919.444,16.667,N
1063,-0.615,1.195,-0.320,94.444,72.222,352.778,902.778,16.667,N
1064,-0.610,1.495,-0.325,102.778,63.889,338.889,947.222,44.444,N
1065,-0.585,1.375,-0.350,91.667,58.333,319.444,911.111,36.111,N
1066,-0.580,1.410,-0.370,94.444,63.889,350.000,877.778,33.333,N
1067,-0.585,1.575,-0.275,105.556,69.444,347.222,916.667,38.889,N
1068,-0.615,1.565,-0.270,97.222,66.667,352.778,947.222,30.556,N
1069,-0.585,1.515,-0.325,105.556,66.667,352.778,925.000,22.222,N
1070,-0.565,1.355,-0.340,100.000,66.667,350.000,900.000,25.000,N
1071,-0.595,1.535,-0.245,113.889,75.000,352.778,950.000,50.000,N
1072,-0.595,1.655,-0.240,105.556,72.222,344.444,941.667,8.333,N
1073,-0.580,1.385,-0.280,97.222,69.444,347.222,933.333,8.333,N
1074,-0.560,1.550,-0.330,102.778,69.444,352.778,927.778,5.556,N
1075,-0.545,1.375,-0.270,97.222,72.222,363.889,963.889,36.111,N
1076,-0.555,1.640,-0.260,97.222,72.222,352.778,966.667,2.778,N
1077,-0.540,1.560,-0.300,97.222,66.667,350.000,969.444,2.778,N
1078,-0.485,1.385,-0.285,105.556,72.222,347.222,972.222,2.778,N
1079,-0.500,1.535,-0.255,91.667,66.667,330.556,988.889,16.667,N
1080,-0.525,1.605,-0.275,97.222,69.444,363.889,969.444,19.444,N
1081,-0.525,1.620,-0.305,100.000,69.444,366.667,997.222,27.778,N
1082,-0.515,1.380,-0.330,102.778,61.111,347.222,1025.000,27.778,N
1083,-0.545,1.475,-0.305,100.000,61.111,336.111,1027.778,2.778,N
1084,-0.510,1.550,-0.275,111.111,72.222,386.111,1050.000,22.222,N
1085,-0.460,1.495,-0.305,100.000,72.222,372.222,1013.889,36.111,N
1086,-0.485,1.505,-0.320,97.222,69.444,355.556,986.111,27.778,N
1087,-0.490,1.510,-0.265,94.444,66.667,350.000,1008.333,22.222,N
1088,-0.510,1.525,-0.280,94.444,72.222,377.778,1000.000,8.333,N
1089,-0.455,1.545,-0.285,91.667,61.111,350.000,988.889,11.111,N
1090,-0.465,1.400,-0.300,91.667,69.444,350.000,938.889,50.000,N
1091,-0.485,1.540,-0.300,108.333,72.222,355.556,983.333,44.444,N
1092,-0.530,1.580,-0.300,102.778,69.444,344.444,997.222,13.889,N
1093,-0.520,1.360,-0.350,91.667,58.333,361.111,936.111,61.111,N
1094,-0.495,1.355,-0.385,102.778,75.000,372.222,961.111,25.000,N
1095,-0.535,1.530,-0.340,108.333,72.222,355.556,977.778,16.667,N
1096,-0.555,1.490,-0.345,100.000,69.444,355.556,930.556,47.222,N
1097,-0.510,1.350,-0.345,105.556,77.778,375.000,933.333,2.778,N
1098,-0.500,1.245,-0.365,108.333,63.889,347.222,941.667,8.333,N
1099,-0.515,1.380,-0.345,88.889,61.111,333.333,938.889,2.778,N
1100,-0.555,1.525,-0.310,102.778,66.667,355.556,927.778,11.111,N
1101,-0.555,1.505,-0.315,108.333,72.222,369.444,963.889,36.111,N
1102,-0.520,1.570,-0.345,102.778,69.444,350.000,991.667,27.778,N
1103,-0.520,1.355,-0.335,102.778,66.667,352.778,966.667,25.000,N
1104,-0.525,1.385,-0.260,111.111,55.556,350.000,1013.889,47.222,N
1105,-0.450,1.540,-0.250,105.556,63.889,361.111,1030.556,16.667,N
1106,-0.440,1.355,-0.270,100.000,66.667,352.778,1005.556,25.000,N
1107,-0.470,1.450,-0.235,86.111,58.333,350.000,1030.556,25.000,N
1108,-0.465,1.490,-0.250,100.000,72.222,380.556,1044.444,13.889,N
1109,-0.430,1.520,-0.300,97.222,66.667,352.778,1038.889,5.556,N
1110,-0.430,1.455,-0.285,105.556,75.000,380.556,1005.556,33.333,N
1111,-0.445,1.375,-0.245,102.778,72.222,361.111,1036.111,30.556,N
1112,-0.445,1.365,-0.265,97.222,69.444,352.778,994.444,41.667,N
1113,-0.425,1.275,-0.280,91.667,69.444,366.667,972.222,22.222,N
1114,-0.425,1.255,-0.300,113.889,72.222,363.889,977.778,5.556,N
1115,-0.475,1.410,-0.260,91.667,66.667,355.556,969.444,8.333,N
1116,-0.490,1.450,-0.275,105.556,72.222,352.778,958.333,11.111,N
1117,-0.450,1.445,-0.280,97.222,66.667,366.667,958.333,0.000,N
1118,-0.445,1.395,-0.270,102.778,69.444,369.444,947.222,11.111,N
1119,-0.420,1.505,-0.260,102.778,69.444,350.000,925.000,22.222,N
1120,-0.495,1.210,-0.260,102.778,61.111,330.556,944.444,19.444,N
1121,-0.470,1.395,-0.245,88.889,66.667,361.111,938.889,5.556,N
1122,-0.405,1.320,-0.230,100.000,75.000,377.778,925.000,13.889,N
1123,-0.395,1.470,-0.255,100.000,75.000,352.778,936.111,11.111,N
1124,-0.455,1.525,-0.230,97.222,75.000,369.444,986.111,50.000,N
1125,-0.430,1.505,-0.210,102.778,69.444,352.778,972.222,13.889,N
1126,-0.355,1.475,-0.225,94.444,66.667,352.778,958.333,13.889,N
1127,-0.370,1.280,-0.225,91.667,63.889,358.333,958.333,0.000,N
1128,-0.380,1.485,-0.165,102.778,72.222,375.000,991.667,33.333,N
1129,-0.415,1.450,-0.225,100.000,58.333,347.222,972.222,19.444,N
1130,-0.405,1.420,-0.265,108.333,55.556,355.556,933.333,38.889,N
1131,-0.410,1.365,-0.290,94.444,61.111,350.000,975.000,41.667,N
1132,-0.480,1.460,-0.260,108.333,66.667,355.556,930.556,44.444,N
1133,-0.495,1.465,-0.265,102.778,58.333,350.000,933.333,2.778,N
1134,-0.460,1.490,-0.265,102.778,72.222,358.333,944.444,11.111,N
1135,-0.420,1.425,-0.270,97.222,69.444,347.222,941.667,2.778,N
1136,-0.270,1.445,-0.285,141.667,44.444,311.111,680.556,261.111,A
1137,-0.470,1.540,-0.220,105.556,80.556,377.778,1030.556,350.000,N
1138,-0.485,1.440,-0.270,97.222,72.222,350.000,966.667,63.889,N
1139,-0.440,1.410,-0.230,97.222,66.667,336.111,933.333,33.333,N
1140,-0.425,1.390,-0.280,102.778,69.444,366.667,891.667,41.667,N
1141,-0.435,1.415,-0.175,102.778,63.889,352.778,919.444,27.778,N
1142,-0.405,1.485,-0.215,108.333,77.778,355.556,958.333,38.889,N
1143,-0.400,1.390,-0.220,94.444,69.444,352.778,911.111,47.222,N
1144,-0.410,1.325,-0.305,100.000,77.778,352.778,913.889,2.778,N
1145,-0.420,1.110,-0.320,100.000,69.444,358.333,927.778,13.889,N
1146,-0.450,1.240,-0.235,102.778,69.444,344.444,950.000,22.222,N
1147,-0.445,1.385,-0.220,105.556,80.556,369.444,938.889,11.111,N
1148,-0.355,1.340,-0.215,102.778,66.667,366.667,919.444,19.444,N
1149,-0.275,1.240,-0.085,147.222,55.556,316.667,544.444,375.000,A
1150,-0.085,1.310,-0.225,155.556,83.333,336.111,438.889,105.556,A
1151,-0.400,1.390,-0.295,116.667,61.111,355.556,1030.556,591.667,N
1152,-0.390,1.545,-0.285,113.889,69.444,366.667,969.444,61.111,N
1153,-0.365,1.340,-0.215,100.000,69.444,369.444,952.778,16.667,N
1154,-0.355,1.315,-0.230,91.667,61.111,350.000,916.667,36.111,N
1155,-0.240,1.425,-0.170,136.111,41.667,305.556,552.778,363.889,A
1156,-0.430,1.420,-0.210,111.111,58.333,358.333,1077.778,525.000,N
1157,-0.415,1.445,-0.240,108.333,72.222,344.444,958.333,119.444,N
1158,-0.415,1.405,-0.230,91.667,58.333,325.000,941.667,16.667,N
1159,-0.310,1.340,-0.290,127.778,44.444,327.778,911.111,30.556,N
1160,-0.485,1.365,-0.215,88.889,69.444,355.556,961.111,50.000,N
1161,-0.535,1.245,-0.295,88.889,61.111,327.778,936.111,25.000,N
1162,-0.525,1.330,-0.295,108.333,63.889,352.778,930.556,5.556,N
1163,-0.520,1.285,-0.315,100.000,69.444,361.111,933.333,2.778,N
1164,-0.510,1.295,-0.270,105.556,72.222,347.222,955.556,22.222,N
1165,-0.515,1.440,-0.250,108.333,63.889,330.556,975.000,19.444,N
1166,-0.500,1.215,-0.275,97.222,72.222,358.333,952.778,22.222,N
1167,-0.495,1.350,-0.295,94.444,66.667,350.000,991.667,38.889,N
1168,-0.500,1.250,-0.335,97.222,63.889,347.222,969.444,22.222,N
1169,-0.560,1.290,-0.290,100.000,72.222,352.778,972.222,2.778,N
1170,-0.515,1.395,-0.330,108.333,72.222,363.889,986.111,13.889,N
1171,-0.475,1.180,-0.315,91.667,63.889,344.444,977.778,8.333,N
1172,-0.510,1.370,-0.280,94.444,63.889,344.444,963.889,13.889,N
1173,-0.525,1.200,-0.275,100.000,72.222,377.778,977.778,13.889,N
1174,-0.475,1.420,-0.275,97.222,69.444,361.111,991.667,13.889,N
1175,-0.460,1.270,-0.265,97.222,69.444,361.111,955.556,36.111,N
1176,-0.455,1.285,-0.250,100.000,63.889,336.111,997.222,41.667,N
1177,-0.455,1.380,-0.285,105.556,72.222,375.000,1000.000,2.778,N
1178,-0.480,1.390,-0.360,97.222,75.000,361.111,1019.444,19.444,N
1179,-0.520,1.305,-0.340,83.333,61.111,355.556,983.333,36.111,N
1180,-0.505,1.295,-0.365,94.444,66.667,352.778,1011.111,27.778,N
1181,-0.510,1.100,-0.380,88.889,72.222,344.444,961.111,50.000,N
1182,-0.535,1.300,-0.330,94.444,66.667,358.333,936.111,25.000,N
1183,-0.555,1.205,-0.340,91.667,75.000,377.778,950.000,13.889,N
1184,-0.535,1.340,-0.365,102.778,80.556,375.000,977.778,27.778,N
1185,-0.535,1.175,-0.405,105.556,72.222,350.000,961.111,16.667,N
1186,-0.580,1.230,-0.400,91.667,63.889,358.333,947.222,13.889,N
1187,-0.585,1.195,-0.400,91.667,69.444,352.778,1000.000,52.778,N
1188,-0.570,1.110,-0.440,83.333,63.889,355.556,958.333,41.667,N
1189,-0.570,1.105,-0.420,100.000,77.778,372.222,938.889,19.444,N
1190,-0.580,1.380,-0.355,108.333,69.444,344.444,963.889,25.000,N
1191,-0.550,1.385,-0.340,91.667,69.444,350.000,941.667,22.222,N
1192,-0.535,1.245,-0.385,111.111,75.000,344.444,927.778,13.889,N
1193,-0.540,1.190,-0.435,97.222,69.444,358.333,911.111,16.667,N
1194,-0.590,1.255,-0.390,108.333,72.222,366.667,944.444,33.333,N
1195,-0.565,1.310,-0.345,88.889,72.222,363.889,919.444,25.000,N
1196,-0.520,1.240,-0.350,97.222,69.444,344.444,944.444,25.000,N
1197,-0.510,1.240,-0.390,94.444,72.222,352.778,955.556,11.111,N
1198,-0.535,1.295,-0.365,94.444,72.222,341.667,977.778,22.222,N
1199,-0.575,1.265,-0.340,94.444,63.889,350.000,947.222,30.556,N
1200,-0.500,1.310,-0.365,94.444,66.667,372.222,977.778,30.556,N
1201,-0.500,1.160,-0.365,94.444,75.000,366.667,980.556,2.778,N
1202,-0.555,1.480,-0.345,91.667,72.222,352.778,958.333,22.222,N
1203,-0.560,1.175,-0.360,86.111,63.889,355.556,955.556,2.778,N
1204,-0.530,1.300,-0.395,97.222,69.444,369.444,955.556,0.000,N
1205,-0.550,1.385,-0.405,111.111,72.222,366.667,972.222,16.667,N
1206,-0.575,1.360,-0.370,108.333,72.222,375.000,961.111,11.111,N
1207,-0.585,1.300,-0.395,91.667,66.667,355.556,1013.889,52.778,N
1208,-0.555,1.285,-0.435,108.333,66.667,347.222,988.889,25.000,N
1209,-0.555,1.210,-0.425,97.222,75.000,380.556,963.889,25.000,N
1210,-0.580,1.385,-0.350,111.111,66.667,363.889,1011.111,47.222,N
1211,-0.540,1.275,-0.395,94.444,72.222,350.000,1019.444,8.333,N
1212,-0.540,1.180,-0.405,97.222,75.000,355.556,972.222,47.222,N
1213,-0.540,1.430,-0.340,105.556,75.000,372.222,966.667,5.556,N
1214,-0.515,1.260,-0.315,94.444,72.222,372.222,963.889,2.778,N
1215,-0.505,1.385,-0.345,88.889,58.333,352.778,947.222,16.667,N
1216,-0.505,1.380,-0.370,97.222,77.778,350.000,958.333,11.111,N
1217,-0.520,1.385,-0.350,88.889,66.667,358.333,944.444,13.889,N
1218,-0.515,1.510,-0.330,94.444,69.444,350.000,944.444,0.000,N
1219,-0.480,1.355,-0.305,94.444,66.667,341.667,930.556,13.889,N
1220,-0.455,1.405,-0.335,97.222,69.444,372.222,938.889,8.333,N
1221,-0.485,1.465,-0.365,97.222,69.444,372.222,930.556,8.333,N
1222,-0.555,1.485,-0.335,105.556,69.444,341.667,947.222,16.667,N
1223,-0.575,1.460,-0.330,105.556,63.889,358.333,933.333,13.889,N
1224,-0.530,1.360,-0.345,102.778,72.222,375.000,927.778,5.556,N
1225,-0.485,1.445,-0.335,91.667,66.667,352.778,927.778,0.000,N
1226,-0.400,1.480,-0.360,119.444,41.667,322.222,819.444,108.333,N
1227,-0.530,1.570,-0.300,97.222,63.889,369.444,977.778,158.333,N
1228,-0.555,1.555,-0.340,105.556,75.000,363.889,919.444,58.333,N
1229,-0.530,1.275,-0.340,102.778,69.444,347.222,888.889,30.556,N
1230,-0.535,1.335,-0.380,94.444,66.667,347.222,894.444,5.556,N
1231,-0.405,1.335,-0.315,133.333,36.111,250.000,538.889,355.556,A
1232,-0.315,1.015,-0.300,163.889,72.222,336.111,400.000,138.889,A
1233,-0.635,1.275,-0.500,100.000,61.111,386.111,1022.222,622.222,N
1234,-0.610,1.420,-0.440,91.667,63.889,358.333,894.444,127.778,N
1235,-0.515,1.510,-0.325,108.333,75.000,375.000,930.556,36.111,N
1236,-0.365,1.590,-0.335,130.556,44.444,325.000,852.778,77.778,N
1237,-0.475,1.585,-0.195,108.333,75.000,355.556,941.667,88.889,N
1238,-0.520,1.390,-0.250,86.111,61.111,347.222,908.333,33.333,N
1239,-0.530,1.575,-0.255,91.667,63.889,350.000,908.333,0.000,N
1240,-0.355,1.420,-0.300,147.222,44.444,302.778,558.333,350.000,A
1241,-0.355,1.510,-0.405,133.333,44.444,313.889,583.333,25.000,A
1242,-0.585,1.470,-0.280,100.000,66.667,369.444,1047.222,463.889,N
1243,-0.560,1.595,-0.310,102.778,69.444,344.444,963.889,83.333,N
1244,-0.515,1.535,-0.280,88.889,66.667,333.333,913.889,50.000,N
1245,-0.265,1.355,-0.090,141.667,41.667,300.000,600.000,313.889,A
1246,-0.090,1.295,-0.380,158.333,77.778,330.556,438.889,161.111,A
1247,-0.625,1.485,-0.390,113.889,69.444,355.556,1025.000,586.111,N
1248,-0.590,1.450,-0.390,119.444,69.444,347.222,980.556,44.444,N
1249,-0.570,1.545,-0.355,100.000,66.667,338.889,916.667,63.889,N
1250,-0.430,1.435,-0.400,113.889,44.444,333.333,925.000,8.333,N
1251,-0.560,1.435,-0.240,94.444,66.667,347.222,972.222,47.222,N
1252,-0.585,1.505,-0.280,100.000,55.556,355.556,936.111,36.111,N
1253,-0.530,1.430,-0.295,102.778,77.778,350.000,930.556,5.556,N
1254,-0.405,1.510,-0.165,197.222,72.222,313.889,525.000,405.556,A
1255,-0.165,1.230,-0.420,161.111,80.556,330.556,425.000,100.000,A
1256,-0.580,1.635,-0.430,111.111,66.667,375.000,1050.000,625.000,N
1257,-0.555,1.410,-0.400,88.889,58.333,344.444,941.667,108.333,N
1258,-0.470,1.565,-0.290,102.778,72.222,377.778,925.000,16.667,N
1259,-0.430,1.535,-0.300,94.444,69.444,352.778,925.000,0.000,N
1260,-0.515,1.490,-0.230,105.556,58.333,336.111,919.444,5.556,N
1261,-0.525,1.550,-0.265,100.000,72.222,341.667,927.778,8.333,N
1262,-0.525,1.420,-0.275,94.444,66.667,347.222,911.111,16.667,N
1263,-0.505,1.375,-0.270,97.222,69.444,341.667,911.111,0.000,N
1264,-0.530,1.405,-0.220,108.333,66.667,336.111,916.667,5.556,N
1265,-0.530,1.585,-0.245,105.556,69.444,347.222,961.111,44.444,N
1266,-0.470,1.600,-0.265,100.000,75.000,355.556,936.111,25.000,N
1267,-0.410,1.520,-0.250,97.222,63.889,327.778,880.556,55.556,N
1268,-0.390,1.420,-0.175,102.778,77.778,355.556,875.000,5.556,N
1269,-0.445,1.560,-0.205,97.222,63.889,350.000,891.667,16.667,N
1270,-0.440,1.475,-0.215,102.778,72.222,341.667,919.444,27.778,N
1271,-0.465,1.460,-0.255,102.778,75.000,333.333,880.556,38.889,N
1272,-0.410,1.390,-0.310,111.111,41.667,322.222,852.778,27.778,N
1273,-0.480,1.515,-0.190,108.333,75.000,344.444,941.667,88.889,N
1274,-0.470,1.530,-0.255,100.000,72.222,341.667,894.444,47.222,N
1275,-0.480,1.560,-0.235,102.778,72.222,344.444,894.444,0.000,N
1276,-0.435,1.540,-0.270,94.444,66.667,355.556,891.667,2.778,N
1277,-0.440,1.555,-0.230,105.556,58.333,347.222,922.222,30.556,N
1278,-0.435,1.530,-0.195,102.778,72.222,350.000,913.889,8.333,N
1279,-0.445,1.445,-0.230,100.000,72.222,350.000,902.778,11.111,N
1280,-0.435,1.420,-0.225,100.000,72.222,344.444,947.222,44.444,N
1281,-0.390,1.480,-0.200,100.000,75.000,341.667,925.000,22.222,N
1282,-0.425,1.640,-0.195,94.444,63.889,344.444,922.222,2.778,N
1283,-0.420,1.435,-0.265,97.222,69.444,352.778,938.889,16.667,N
1284,-0.420,1.540,-0.320,105.556,75.000,358.333,975.000,36.111,N
1285,-0.465,1.245,-0.305,97.222,77.778,358.333,936.111,38.889,N
1286,-0.460,1.455,-0.270,100.000,69.444,358.333,958.333,22.222,N
1287,-0.485,1.460,-0.335,105.556,72.222,350.000,966.667,8.333,N
1288,-0.450,1.445,-0.300,100.000,75.000,350.000,941.667,25.000,N
1289,-0.460,1.460,-0.230,97.222,77.778,372.222,911.111,30.556,N
1290,-0.430,1.370,-0.255,102.778,75.000,366.667,966.667,55.556,N
1291,-0.485,1.440,-0.310,100.000,72.222,350.000,988.889,22.222,N
1292,-0.525,1.320,-0.350,102.778,69.444,350.000,933.333,55.556,N
1293,-0.575,1.240,-0.345,111.111,75.000,355.556,938.889,5.556,N
1294,-0.610,1.250,-0.380,100.000,66.667,350.000,963.889,25.000,N
1295,-0.600,1.320,-0.385,102.778,72.222,372.222,936.111,27.778,N
1296,-0.525,1.390,-0.355,97.222,69.444,352.778,927.778,8.333,N
1297,-0.510,1.400,-0.305,102.778,72.222,355.556,911.111,16.667,N
1298,-0.560,1.410,-0.300,94.444,69.444,347.222,941.667,30.556,N
1299,-0.535,1.280,-0.305,91.667,66.667,352.778,897.222,44.444,N
1300,-0.530,1.230,-0.320,91.667,63.889,352.778,900.000,2.778,N
1301,-0.530,1.235,-0.360,88.889,72.222,341.667,930.556,30.556,N
1302,-0.550,1.465,-0.255,113.889,63.889,333.333,900.000,30.556,N
1303,-0.555,1.400,-0.280,94.444,66.667,355.556,905.556,5.556,N
1304,-0.555,1.350,-0.330,97.222,66.667,344.444,902.778,2.778,N
1305,-0.395,1.400,-0.140,130.556,44.444,316.667,752.778,150.000,N
1306,-0.140,1.140,-0.230,147.222,83.333,341.667,441.667,311.111,A
1307,-0.485,1.470,-0.355,102.778,75.000,375.000,961.111,519.444,N
1308,-0.510,1.345,-0.330,111.111,69.444,366.667,972.222,11.111,N
1309,-0.495,1.375,-0.305,97.222,69.444,350.000,947.222,25.000,N
1310,-0.500,1.380,-0.335,97.222,63.889,336.111,894.444,52.778,N
1311,-0.525,1.525,-0.235,94.444,72.222,347.222,944.444,50.000,N
1312,-0.550,1.440,-0.260,102.778,66.667,358.333,947.222,2.778,N
1313,-0.530,1.390,-0.285,105.556,72.222,347.222,927.778,19.444,N
1314,-0.525,1.335,-0.285,88.889,69.444,358.333,902.778,25.000,N
1315,-0.560,1.235,-0.225,105.556,61.111,344.444,938.889,36.111,N
1316,-0.540,1.470,-0.240,105.556,75.000,352.778,958.333,19.444,N
1317,-0.490,1.315,-0.310,94.444,63.889,344.444,919.444,38.889,N
1318,-0.495,1.495,-0.300,102.778,77.778,355.556,919.444,0.000,N
1319,-0.485,1.505,-0.230,100.000,80.556,369.444,933.333,13.889,N
1320,-0.465,1.545,-0.215,100.000,61.111,347.222,947.222,13.889,N
1321,-0.420,1.540,-0.245,100.000,75.000,358.333,911.111,36.111,N
1322,-0.425,1.330,-0.255,105.556,61.111,350.000,950.000,38.889,N
1323,-0.445,1.505,-0.220,100.000,75.000,347.222,950.000,0.000,N
1324,-0.510,1.415,-0.240,91.667,63.889,352.778,925.000,25.000,N
1325,-0.470,1.415,-0.245,91.667,63.889,352.778,933.333,8.333,N
1326,-0.450,1.405,-0.240,97.222,72.222,361.111,930.556,2.778,N
1327,-0.465,1.540,-0.205,100.000,69.444,347.222,911.111,19.444,N
1328,-0.515,1.570,-0.255,88.889,72.222,355.556,880.556,30.556,N
1329,-0.475,1.465,-0.300,105.556,72.222,361.111,927.778,47.222,N
1330,-0.505,1.435,-0.290,97.222,75.000,344.444,897.222,30.556,N
1331,-0.550,1.415,-0.260,100.000,72.222,344.444,875.000,22.222,N
1332,-0.550,1.555,-0.275,91.667,52.778,327.778,902.778,27.778,N
1333,-0.550,1.540,-0.350,100.000,72.222,352.778,927.778,25.000,N
1334,-0.540,1.500,-0.345,94.444,69.444,355.556,925.000,2.778,N
1335,-0.570,1.515,-0.310,100.000,72.222,350.000,933.333,8.333,N
1336,-0.575,1.435,-0.305,97.222,75.000,366.667,950.000,16.667,N
1337,-0.550,1.450,-0.355,108.333,69.444,344.444,961.111,11.111,N
1338,-0.535,1.455,-0.365,94.444,63.889,338.889,947.222,13.889,N
1339,-0.575,1.540,-0.275,94.444,69.444,361.111,930.556,16.667,N
1340,-0.515,1.585,-0.275,105.556,75.000,372.222,961.111,30.556,N
1341,-0.525,1.530,-0.345,97.222,69.444,352.778,938.889,22.222,N
1342,-0.505,1.570,-0.350,94.444,77.778,361.111,919.444,19.444,N
1343,-0.525,1.630,-0.270,102.778,66.667,352.778,955.556,36.111,N
1344,-0.540,1.650,-0.290,97.222,72.222,347.222,916.667,38.889,N
1345,-0.520,1.475,-0.350,100.000,66.667,350.000,897.222,19.444,N
1346,-0.565,1.530,-0.375,102.778,69.444,366.667,905.556,8.333,N
1347,-0.575,1.480,-0.325,97.222,72.222,358.333,925.000,19.444,N
1348,-0.590,1.665,-0.305,97.222,72.222,352.778,930.556,5.556,N
1349,-0.560,1.470,-0.315,100.000,72.222,350.000,897.222,33.333,N
1350,-0.535,1.645,-0.345,100.000,72.222,350.000,941.667,44.444,N
1351,-0.540,1.645,-0.280,94.444,66.667,338.889,925.000,16.667,N
1352,-0.555,1.650,-0.260,91.667,69.444,347.222,902.778,22.222,N
1353,-0.565,1.650,-0.305,102.778,63.889,361.111,947.222,44.444,N
1354,-0.545,1.620,-0.345,102.778,69.444,350.000,952.778,5.556,N
1355,-0.515,1.565,-0.315,108.333,77.778,352.778,947.222,5.556,N
1356,-0.570,1.610,-0.300,94.444,69.444,358.333,933.333,13.889,N
1357,-0.555,1.570,-0.340,102.778,75.000,350.000,969.444,36.111,N
1358,-0.575,1.540,-0.400,94.444,69.444,344.444,938.889,30.556,N
1359,-0.580,1.605,-0.295,97.222,58.333,350.000,933.333,5.556,N
1360,-0.575,1.605,-0.330,105.556,72.222,358.333,944.444,11.111,N
1361,-0.520,1.655,-0.365,102.778,75.000,366.667,941.667,2.778,N
1362,-0.515,1.700,-0.345,105.556,80.556,355.556,908.333,33.333,N
1363,-0.490,1.665,-0.250,97.222,72.222,352.778,891.667,16.667,N
1364,-0.505,1.570,-0.255,100.000,75.000,352.778,927.778,36.111,N
1365,-0.445,1.690,-0.265,102.778,72.222,344.444,908.333,19.444,N
1366,-0.360,1.720,-0.300,127.778,44.444,308.333,722.222,186.111,A
1367,-0.485,1.645,-0.200,97.222,75.000,347.222,1022.222,300.000,N
1368,-0.460,1.720,-0.235,97.222,75.000,375.000,930.556,91.667,N
1369,-0.450,1.565,-0.260,97.222,61.111,347.222,911.111,19.444,N
1370,-0.355,1.650,-0.255,136.111,41.667,286.111,547.222,363.889,A
1371,-0.570,1.640,-0.260,105.556,75.000,377.778,1044.444,497.222,N
1372,-0.560,1.600,-0.295,108.333,63.889,350.000,969.444,75.000,N
1373,-0.490,1.670,-0.285,100.000,69.444,355.556,927.778,41.667,N
1374,-0.460,1.450,-0.290,88.889,72.222,358.333,947.222,19.444,N
1375,-0.445,1.645,-0.205,100.000,69.444,352.778,913.889,33.333,N
1376,-0.465,1.500,-0.225,97.222,72.222,341.667,936.111,22.222,N
1377,-0.470,1.510,-0.250,97.222,72.222,347.222,897.222,38.889,N
1378,-0.470,1.635,-0.380,108.333,72.222,363.889,902.778,5.556,N
1379,-0.500,1.625,-0.275,102.778,77.778,372.222,908.333,5.556,N
1380,-0.430,1.445,-0.310,100.000,66.667,341.667,866.667,41.667,N
1381,-0.495,1.395,-0.405,102.778,77.778,369.444,858.333,8.333,N
1382,-0.430,1.385,-0.265,130.556,41.667,302.778,572.222,286.111,A
1383,-0.650,1.535,-0.205,97.222,69.444,358.333,980.556,408.333,N
1384,-0.645,1.620,-0.275,108.333,69.444,352.778,866.667,113.889,N
1385,-0.575,1.515,-0.235,91.667,63.889,344.444,866.667,0.000,N
1386,-0.310,1.605,-0.085,141.667,44.444,288.889,619.444,247.222,A
1387,-0.085,1.480,-0.295,163.889,80.556,333.333,433.333,186.111,A
1388,-0.610,1.630,-0.355,116.667,58.333,344.444,947.222,513.889,N
1389,-0.535,1.655,-0.330,113.889,80.556,352.778,891.667,55.556,N
1390,-0.505,1.600,-0.205,116.667,66.667,355.556,905.556,13.889,N
1391,-0.330,1.380,-0.200,197.222,80.556,252.778,530.556,375.000,A
1392,-0.260,1.300,-0.335,197.222,83.333,355.556,416.667,113.889,A
1393,-0.335,1.325,-0.310,88.889,66.667,386.111,394.444,22.222,A
1394,-0.305,1.435,-0.330,133.333,41.667,297.222,483.333,88.889,A
1395,-0.525,1.645,-0.345,88.889,58.333,347.222,980.556,497.222,N
1396,-0.460,1.605,-0.280,113.889,69.444,341.667,961.111,19.444,N
1397,-0.260,1.615,-0.130,138.889,77.778,344.444,694.444,266.667,A
1398,-0.295,1.480,-0.135,125.000,38.889,288.889,522.222,172.222,A
1399,-0.415,1.690,-0.095,111.111,80.556,352.778,944.444,422.222,N
1400,-0.485,1.505,-0.215,102.778,66.667,347.222,1030.556,86.111,N
1401,-0.455,1.530,-0.150,97.222,72.222,338.889,961.111,69.444,N
1402,-0.340,1.445,-0.140,138.889,41.667,222.222,541.667,419.444,A
1403,-0.140,1.270,-0.285,186.111,75.000,316.667,391.667,150.000,A
1404,-0.500,1.530,-0.300,105.556,77.778,375.000,877.778,486.111,N
1405,-0.505,1.575,-0.310,100.000,69.444,347.222,958.333,80.556,N
1406,-0.465,1.490,-0.225,88.889,72.222,350.000,919.444,38.889,N
1407,-0.430,1.355,-0.240,97.222,75.000,338.889,922.222,2.778,N
1408,-0.485,1.325,-0.165,102.778,77.778,336.111,905.556,16.667,N
1409,-0.485,1.465,-0.205,102.778,61.111,316.667,905.556,0.000,N
1410,-0.480,1.385,-0.215,91.667,69.444,333.333,880.556,25.000,N
1411,-0.280,1.355,-0.005,136.111,41.667,300.000,602.778,277.778,A
1412,-0.005,1.050,-0.300,158.333,83.333,341.667,438.889,163.889,A
1413,-0.570,1.390,-0.355,113.889,77.778,366.667,1036.111,597.222,N
1414,-0.555,1.300,-0.345,94.444,66.667,344.444,950.000,86.111,N
1415,-0.520,1.340,-0.310,102.778,63.889,333.333,952.778,2.778,N
1416,-0.545,1.260,-0.280,102.778,72.222,355.556,947.222,5.556,N
1417,-0.550,1.405,-0.190,102.778,69.444,344.444,950.000,2.778,N
1418,-0.565,1.260,-0.185,102.778,61.111,325.000,938.889,11.111,N
1419,-0.505,1.360,-0.220,97.222,66.667,338.889,950.000,11.111,N
1420,-0.500,1.385,-0.200,97.222,66.667,319.444,933.333,16.667,N
1421,-0.480,1.445,-0.115,102.778,66.667,330.556,919.444,13.889,N
1422,-0.465,1.560,-0.125,105.556,72.222,350.000,925.000,5.556,N
1423,-0.475,1.450,-0.165,105.556,75.000,344.444,966.667,41.667,N
1424,-0.475,1.490,-0.160,94.444,66.667,333.333,916.667,50.000,N
1425,-0.245,1.415,-0.140,133.333,44.444,291.667,663.889,252.778,A
1426,-0.490,1.605,-0.090,111.111,72.222,341.667,1091.667,427.778,N
1427,-0.485,1.485,-0.195,97.222,69.444,319.444,925.000,166.667,N
1428,-0.495,1.360,-0.225,88.889,61.111,338.889,886.111,38.889,N
1429,-0.355,1.450,-0.175,125.000,63.889,316.667,775.000,111.111,A
1430,-0.530,1.465,-0.130,100.000,72.222,347.222,936.111,161.111,N
1431,-0.555,1.415,-0.180,94.444,63.889,322.222,894.444,41.667,N
1432,-0.520,1.495,-0.195,91.667,72.222,327.778,866.667,27.778,N
1433,-0.550,1.385,-0.220,97.222,61.111,344.444,863.889,2.778,N
1434,-0.500,1.535,-0.170,102.778,77.778,344.444,852.778,11.111,N
1435,-0.515,1.425,-0.200,100.000,77.778,338.889,827.778,25.000,N
1436,-0.500,1.380,-0.210,105.556,77.778,338.889,838.889,11.111,N
1437,-0.445,1.425,-0.200,130.556,75.000,333.333,783.333,55.556,A
1438,-0.205,1.370,-0.340,194.444,77.778,336.111,483.333,300.000,A
1439,-0.520,1.650,-0.185,102.778,72.222,350.000,930.556,447.222,N
1440,-0.545,1.530,-0.315,108.333,77.778,355.556,944.444,13.889,N
1441,-0.535,1.510,-0.245,111.111,66.667,336.111,938.889,5.556,N
1442,-0.520,1.625,-0.220,102.778,72.222,341.667,919.444,19.444,N
1443,-0.560,1.405,-0.150,102.778,58.333,322.222,911.111,8.333,N
1444,-0.505,1.600,-0.175,94.444,66.667,344.444,944.444,33.333,N
1445,-0.435,1.480,-0.155,94.444,61.111,344.444,925.000,19.444,N
1446,-0.420,1.465,-0.155,100.000,63.889,322.222,905.556,19.444,N
1447,-0.430,1.470,-0.130,105.556,69.444,336.111,888.889,16.667,N
1448,-0.455,1.575,-0.160,102.778,72.222,347.222,919.444,30.556,N
1449,-0.420,1.595,-0.185,105.556,75.000,338.889,900.000,19.444,N
1450,-0.400,1.435,-0.195,97.222,66.667,333.333,894.444,5.556,N
1451,-0.450,1.670,-0.225,100.000,75.000,341.667,913.889,19.444,N
1452,-0.460,1.580,-0.230,100.000,75.000,355.556,905.556,8.333,N
1453,-0.465,1.470,-0.245,100.000,72.222,341.667,916.667,11.111,N
1454,-0.460,1.565,-0.190,100.000,75.000,341.667,886.111,30.556,N
1455,-0.440,1.555,-0.190,108.333,63.889,350.000,911.111,25.000,N
1456,-0.420,1.610,-0.195,100.000,66.667,341.667,911.111,0.000,N
1457,-0.430,1.425,-0.220,97.222,77.778,347.222,850.000,61.111,N
1458,-0.420,1.570,-0.230,102.778,80.556,344.444,891.667,41.667,N
1459,-0.480,1.520,-0.205,102.778,69.444,330.556,886.111,5.556,N
1460,-0.440,1.560,-0.170,97.222,75.000,344.444,883.333,2.778,N
1461,-0.410,1.415,-0.170,97.222,72.222,319.444,883.333,0.000,N
1462,-0.410,1.610,-0.180,105.556,69.444,350.000,872.222,11.111,N
1463,-0.430,1.490,-0.160,100.000,75.000,350.000,902.778,30.556,N
1464,-0.440,1.580,-0.170,97.222,69.444,327.778,900.000,2.778,N
1465,-0.410,1.545,-0.185,100.000,75.000,350.000,875.000,25.000,N
1466,-0.430,1.390,-0.180,100.000,80.556,358.333,883.333,8.333,N
1467,-0.225,1.500,-0.175,138.889,47.222,308.333,616.667,266.667,A
1468,-0.565,1.620,-0.145,97.222,66.667,352.778,1052.778,436.111,N
1469,-0.555,1.635,-0.230,102.778,75.000,341.667,919.444,133.333,N
1470,-0.505,1.590,-0.195,102.778,77.778,344.444,933.333,13.889,N
1471,-0.455,1.480,-0.205,102.778,72.222,344.444,888.889,44.444,N
1472,-0.485,1.425,-0.170,97.222,77.778,341.667,880.556,8.333,N
1473,-0.510,1.590,-0.220,100.000,75.000,322.222,897.222,16.667,N
1474,-0.500,1.525,-0.210,100.000,61.111,330.556,877.778,19.444,N
1475,-0.475,1.430,-0.230,94.444,75.000,344.444,891.667,13.889,N
1476,-0.500,1.700,-0.205,97.222,63.889,316.667,883.333,8.333,N
1477,-0.530,1.700,-0.220,105.556,83.333,363.889,900.000,16.667,N
1478,-0.480,1.580,-0.215,105.556,72.222,347.222,913.889,13.889,N
1479,-0.480,1.475,-0.245,94.444,75.000,336.111,877.778,36.111,N
1480,-0.490,1.680,-0.190,105.556,77.778,341.667,905.556,27.778,N
1481,-0.465,1.495,-0.195,100.000,69.444,347.222,905.556,0.000,N
1482,-0.470,1.485,-0.235,100.000,63.889,322.222,927.778,22.222,N
1483,-0.500,1.545,-0.260,100.000,66.667,325.000,900.000,27.778,N
1484,-0.500,1.655,-0.240,105.556,75.000,350.000,888.889,11.111,N
1485,-0.515,1.550,-0.245,100.000,63.889,327.778,944.444,55.556,N
1486,-0.470,1.435,-0.285,94.444,69.444,333.333,911.111,33.333,N
1487,-0.525,1.550,-0.325,102.778,77.778,347.222,913.889,2.778,N
1488,-0.585,1.490,-0.285,100.000,75.000,350.000,925.000,11.111,N
1489,-0.600,1.615,-0.275,105.556,69.444,330.556,969.444,44.444,N
1490,-0.565,1.510,-0.280,94.444,63.889,333.333,916.667,52.778,N
1491,-0.565,1.430,-0.250,100.000,77.778,347.222,916.667,0.000,N
1492,-0.565,1.540,-0.250,102.778,72.222,341.667,938.889,22.222,N
1493,-0.595,1.500,-0.285,91.667,66.667,350.000,913.889,25.000,N
1494,-0.580,1.510,-0.310,91.667,63.889,347.222,933.333,19.444,N
1495,-0.570,1.510,-0.305,108.333,66.667,330.556,938.889,5.556,N
1496,-0.565,1.515,-0.240,102.778,72.222,338.889,944.444,5.556,N
1497,-0.575,1.610,-0.275,100.000,72.222,341.667,930.556,13.889,N
1498,-0.570,1.545,-0.325,102.778,75.000,355.556,930.556,0.000,N
1499,-0.580,1.605,-0.315,97.222,66.667,347.222,963.889,33.333,N
1500,-0.580,1.510,-0.295,108.333,72.222,338.889,916.667,47.222,N
1501,-0.590,1.460,-0.275,97.222,77.778,344.444,897.222,19.444,N
1502,-0.530,1.520,-0.270,100.000,77.778,347.222,897.222,0.000,N
1503,-0.525,1.640,-0.275,97.222,75.000,344.444,908.333,11.111,N
1504,-0.535,1.525,-0.270,105.556,72.222,338.889,897.222,11.111,N
1505,-0.540,1.540,-0.250,108.333,72.222,341.667,902.778,5.556,N
1506,-0.510,1.615,-0.210,94.444,66.667,347.222,919.444,16.667,N
1507,-0.505,1.440,-0.265,97.222,69.444,341.667,905.556,13.889,N
1508,-0.570,1.500,-0.325,113.889,75.000,344.444,911.111,5.556,N
1509,-0.630,1.560,-0.280,102.778,69.444,347.222,925.000,13.889,N
1510,-0.585,1.485,-0.305,102.778,72.222,341.667,955.556,30.556,N
1511,-0.535,1.495,-0.320,97.222,75.000,344.444,911.111,44.444,N
1512,-0.530,1.490,-0.340,105.556,83.333,375.000,911.111,0.000,N
1513,-0.580,1.525,-0.295,97.222,66.667,352.778,938.889,27.778,N
1514,-0.560,1.305,-0.330,97.222,58.333,333.333,933.333,5.556,N
1515,-0.580,1.430,-0.380,102.778,72.222,352.778,919.444,13.889,N
1516,-0.600,1.365,-0.375,102.778,72.222,352.778,919.444,0.000,N
1517,-0.630,1.430,-0.325,100.000,61.111,322.222,927.778,8.333,N
1518,-0.605,1.435,-0.325,102.778,58.333,333.333,894.444,33.333,N
1519,-0.605,1.355,-0.370,108.333,83.333,366.667,905.556,11.111,N
1520,-0.570,1.105,-0.355,100.000,75.000,347.222,916.667,11.111,N
1521,-0.585,1.385,-0.320,102.778,77.778,352.778,905.556,11.111,N
1522,-0.605,1.405,-0.315,102.778,66.667,347.222,916.667,11.111,N
1523,-0.545,1.270,-0.335,94.444,75.000,363.889,894.444,22.222,N
1524,-0.570,1.080,-0.335,108.333,66.667,330.556,938.889,44.444,N
1525,-0.565,1.280,-0.275,91.667,69.444,344.444,902.778,36.111,N
1526,-0.535,1.365,-0.280,108.333,72.222,350.000,911.111,8.333,N
1527,-0.490,1.280,-0.250,94.444,66.667,341.667,930.556,19.444,N
1528,-0.500,1.235,-0.265,91.667,75.000,338.889,883.333,47.222,N
1529,-0.400,1.365,-0.220,122.222,38.889,297.222,538.889,344.444,A
1530,-0.595,1.360,-0.260,102.778,72.222,369.444,986.111,447.222,N
1531,-0.580,1.360,-0.325,105.556,72.222,350.000,902.778,83.333,N
1532,-0.570,1.230,-0.255,102.778,61.111,330.556,875.000,27.778,N
1533,-0.440,1.350,-0.250,100.000,77.778,358.333,850.000,25.000,N
1534,-0.560,1.460,-0.180,113.889,69.444,336.111,922.222,72.222,N
1535,-0.560,1.220,-0.215,108.333,69.444,327.778,922.222,0.000,N
1536,-0.560,1.310,-0.235,88.889,66.667,333.333,880.556,41.667,N
1537,-0.550,1.335,-0.280,91.667,58.333,344.444,894.444,13.889,N
1538,-0.540,1.255,-0.180,102.778,75.000,355.556,908.333,13.889,N
1539,-0.515,1.220,-0.225,100.000,69.444,333.333,900.000,8.333,N
1540,-0.495,1.310,-0.225,100.000,75.000,352.778,880.556,19.444,N
1541,-0.495,1.380,-0.255,105.556,77.778,350.000,902.778,22.222,N
1542,-0.480,1.335,-0.135,102.778,63.889,327.778,913.889,11.111,N
1543,-0.450,1.325,-0.175,102.778,83.333,344.444,900.000,13.889,N
1544,-0.470,1.285,-0.210,88.889,55.556,313.889,891.667,8.333,N
1545,-0.490,1.350,-0.220,100.000,72.222,350.000,900.000,8.333,N
1546,-0.490,1.225,-0.215,100.000,69.444,327.778,908.333,8.333,N
1547,-0.505,1.455,-0.180,91.667,66.667,333.333,894.444,13.889,N
1548,-0.480,1.480,-0.205,105.556,80.556,361.111,925.000,30.556,N
1549,-0.500,1.360,-0.235,97.222,80.556,341.667,911.111,13.889,N
1550,-0.475,1.420,-0.205,100.000,77.778,347.222,886.111,25.000,N
1551,-0.495,1.525,-0.170,102.778,69.444,333.333,911.111,25.000,N
1552,-0.490,1.380,-0.210,100.000,77.778,336.111,902.778,8.333,N
1553,-0.470,1.360,-0.255,100.000,61.111,327.778,897.222,5.556,N
1554,-0.505,1.260,-0.300,91.667,63.889,330.556,877.778,19.444,N
1555,-0.535,1.380,-0.250,105.556,80.556,350.000,888.889,11.111,N
1556,-0.555,1.420,-0.280,94.444,58.333,336.111,908.333,19.444,N
1557,-0.515,1.275,-0.275,100.000,80.556,344.444,894.444,13.889,N
1558,-0.520,1.245,-0.310,105.556,66.667,352.778,880.556,13.889,N
1559,-0.545,1.315,-0.285,94.444,63.889,341.667,900.000,19.444,N
1560,-0.530,1.260,-0.310,105.556,77.778,347.222,913.889,13.889,N
1561,-0.565,1.245,-0.335,100.000,75.000,350.000,891.667,22.222,N
1562,-0.540,1.285,-0.345,105.556,80.556,358.333,875.000,16.667,N
1563,-0.580,1.220,-0.265,102.778,77.778,347.222,905.556,30.556,N
1564,-0.535,1.305,-0.260,97.222,72.222,344.444,886.111,19.444,N
1565,-0.535,1.285,-0.265,94.444,75.000,350.000,872.222,13.889,N
1566,-0.500,0.975,-0.280,100.000,72.222,344.444,872.222,0.000,N
1567,-0.570,1.590,-0.265,105.556,63.889,319.444,872.222,0.000,N
1568,-0.500,1.180,-0.250,88.889,72.222,336.111,836.111,36.111,N
1569,-0.520,1.250,-0.210,91.667,63.889,330.556,836.111,0.000,N
1570,-0.505,1.390,-0.255,108.333,80.556,369.444,836.111,0.000,N
1571,-0.540,1.320,-0.280,97.222,66.667,341.667,844.444,8.333,N
1572,-0.585,1.255,-0.210,100.000,72.222,341.667,847.222,2.778,N
1573,-0.565,1.345,-0.210,102.778,72.222,355.556,861.111,13.889,N
1574,-0.545,1.285,-0.235,102.778,77.778,352.778,872.222,11.111,N
1575,-0.450,1.415,-0.275,130.556,47.222,325.000,833.333,38.889,N
1576,-0.520,1.345,-0.220,100.000,69.444,336.111,947.222,113.889,N
1577,-0.535,1.390,-0.240,100.000,72.222,350.000,877.778,69.444,N
1578,-0.485,1.350,-0.245,105.556,72.222,344.444,922.222,44.444,N
1579,-0.475,1.340,-0.260,102.778,80.556,344.444,894.444,27.778,N
1580,-0.495,1.380,-0.190,100.000,75.000,338.889,866.667,27.778,N
1581,-0.495,1.390,-0.210,102.778,63.889,330.556,897.222,30.556,N
1582,-0.460,1.420,-0.225,105.556,69.444,347.222,894.444,2.778,N
1583,-0.495,1.335,-0.270,97.222,72.222,347.222,888.889,5.556,N
1584,-0.520,1.355,-0.235,94.444,66.667,333.333,883.333,5.556,N
1585,-0.510,1.380,-0.230,102.778,72.222,361.111,905.556,22.222,N
1586,-0.500,1.370,-0.260,100.000,66.667,350.000,911.111,5.556,N
1587,-0.510,1.335,-0.275,94.444,61.111,325.000,891.667,19.444,N
1588,-0.465,1.230,-0.110,102.778,72.222,336.111,888.889,2.778,N
1589,-0.475,1.450,-0.200,100.000,58.333,341.667,886.111,2.778,N
1590,-0.430,1.400,-0.255,94.444,69.444,341.667,875.000,11.111,N
1591,-0.420,1.265,-0.215,100.000,80.556,344.444,838.889,36.111,N
1592,-0.500,1.290,-0.215,100.000,69.444,347.222,855.556,16.667,N
1593,-0.495,1.340,-0.250,97.222,72.222,347.222,875.000,19.444,N
1594,-0.550,1.200,-0.320,91.667,69.444,327.778,852.778,22.222,N
1595,-0.580,1.260,-0.325,100.000,72.222,344.444,850.000,2.778,N
1596,-0.600,1.135,-0.285,105.556,63.889,344.444,855.556,5.556,N
1597,-0.530,1.355,-0.245,105.556,77.778,355.556,888.889,33.333,N
1598,-0.500,1.410,-0.250,100.000,63.889,330.556,883.333,5.556,N
1599,-0.535,1.185,-0.320,100.000,66.667,347.222,861.111,22.222,N
1600,-0.585,1.375,-0.285,108.333,72.222,347.222,911.111,50.000,N
1601,-0.575,1.335,-0.255,100.000,61.111,319.444,922.222,11.111,N
1602,-0.435,1.315,-0.110,150.000,41.667,300.000,536.111,386.111,A
1603,-0.110,0.975,-0.415,172.222,83.333,338.889,452.778,83.333,A
1604,-0.565,1.200,-0.430,116.667,80.556,375.000,838.889,386.111,N
1605,-0.595,1.420,-0.375,105.556,69.444,358.333,1125.000,286.111,N
1606,-0.535,1.430,-0.315,102.778,66.667,327.778,975.000,150.000,N
1607,-0.545,1.410,-0.305,100.000,69.444,350.000,919.444,55.556,N
1608,-0.560,1.370,-0.280,105.556,63.889,336.111,941.667,22.222,N
1609,-0.585,1.380,-0.310,94.444,61.111,316.667,919.444,22.222,N
1610,-0.575,1.355,-0.285,102.778,66.667,352.778,900.000,19.444,N
1611,-0.605,1.365,-0.345,102.778,72.222,347.222,897.222,2.778,N
1612,-0.605,1.260,-0.340,91.667,63.889,322.222,900.000,2.778,N
1613,-0.610,1.265,-0.300,102.778,72.222,341.667,880.556,19.444,N
1614,-0.625,1.360,-0.315,119.444,75.000,344.444,883.333,2.778,N
1615,-0.620,1.385,-0.340,105.556,69.444,338.889,938.889,55.556,N
1616,-0.630,1.365,-0.320,102.778,69.444,336.111,886.111,52.778,N
1617,-0.630,1.295,-0.295,94.444,61.111,347.222,875.000,11.111,N
1618,-0.600,1.255,-0.260,97.222,72.222,350.000,908.333,33.333,N
1619,-0.540,1.290,-0.305,108.333,80.556,352.778,916.667,8.333,N
1620,-0.550,1.410,-0.310,97.222,69.444,341.667,886.111,30.556,N
1621,-0.580,1.335,-0.295,102.778,75.000,347.222,869.444,16.667,N
1622,-0.585,1.340,-0.285,100.000,75.000,341.667,905.556,36.111,N
1623,-0.590,1.250,-0.280,100.000,72.222,333.333,869.444,36.111,N
1624,-0.585,1.155,-0.405,97.222,63.889,325.000,850.000,19.444,N
1625,-0.745,1.080,-0.655,152.778,80.556,308.333,527.778,322.222,A
1626,-0.955,1.275,-0.605,55.556,58.333,327.778,966.667,438.889,N
1627,-0.690,1.400,-0.770,1442072.222,69.444,347.222,880.556,86.111,N
1628,-0.810,1.610,-0.865,94.444,66.667,341.667,836.111,44.444,N
1629,-0.720,1.720,-0.060,66.667,75.000,336.111,825.000,11.111,N
1630,-0.190,1.655,0.120,86.111,63.889,333.333,858.333,33.333,N
1631,-0.315,1.565,0.000,102.778,55.556,316.667,833.333,25.000,N
1632,-0.435,1.580,-0.175,102.778,66.667,330.556,808.333,25.000,N
1633,-0.475,1.525,-0.170,113.889,61.111,322.222,830.556,22.222,N
1634,-0.510,1.625,-0.110,105.556,72.222,341.667,858.333,27.778,N
1635,-0.495,1.605,-0.130,102.778,69.444,341.667,861.111,2.778,N
1636,-0.510,1.320,-0.170,91.667,52.778,319.444,838.889,22.222,N
1637,-0.480,1.230,-0.145,100.000,69.444,341.667,858.333,19.444,N
1638,-0.455,1.405,-0.070,100.000,69.444,341.667,855.556,2.778,N
1639,-0.470,1.600,-0.165,130.556,72.222,347.222,844.444,11.111,N
1640,-0.525,1.485,-0.170,97.222,69.444,333.333,847.222,2.778,N
1641,-0.570,1.405,-0.260,105.556,72.222,344.444,850.000,2.778,N
1642,-0.520,1.410,-0.160,102.778,77.778,338.889,841.667,8.333,N
1643,-0.490,1.500,-0.075,105.556,75.000,322.222,822.222,19.444,N
1644,-0.480,1.500,-0.120,105.556,77.778,341.667,813.889,8.333,N
1645,-0.540,1.510,-0.170,105.556,69.444,319.444,855.556,41.667,N
1646,-0.555,1.390,-0.130,108.333,58.333,308.333,827.778,27.778,N
1647,-0.505,1.355,-0.075,102.778,69.444,322.222,805.556,22.222,N
1648,-0.495,1.395,-0.080,94.444,63.889,316.667,830.556,25.000,N
1649,-0.505,1.490,-0.135,94.444,63.889,322.222,830.556,0.000,N
1650,-0.525,1.535,-0.140,97.222,61.111,311.111,869.444,38.889,N
1651,-0.510,1.455,-0.060,94.444,63.889,319.444,861.111,8.333,N
1652,-0.470,1.425,-0.060,108.333,83.333,344.444,863.889,2.778,N
1653,-0.470,1.575,-0.075,102.778,61.111,327.778,900.000,36.111,N
1654,-0.465,1.500,-0.095,88.889,66.667,333.333,872.222,27.778,N
1655,-0.440,1.540,-0.085,108.333,61.111,336.111,866.667,5.556,N
1656,-0.420,1.410,-0.025,100.000,77.778,347.222,883.333,16.667,N
1657,-0.385,1.555,-0.090,108.333,77.778,347.222,902.778,19.444,N
1658,-0.400,1.500,-0.080,108.333,75.000,344.444,866.667,36.111,N
1659,-0.405,1.495,-0.060,105.556,72.222,333.333,869.444,2.778,N
1660,-0.380,1.620,-0.015,108.333,80.556,341.667,900.000,30.556,N
1661,-0.310,1.665,0.005,102.778,61.111,322.222,875.000,25.000,N
1662,-0.310,1.450,-0.045,97.222,72.222,322.222,858.333,16.667,N
1663,-0.350,1.570,-0.065,100.000,77.778,350.000,861.111,2.778,N
1664,-0.405,1.515,-0.135,97.222,66.667,336.111,880.556,19.444,N
1665,-0.525,1.370,-0.280,97.222,66.667,336.111,886.111,5.556,N
1666,-0.590,1.200,-0.355,102.778,72.222,322.222,866.667,19.444,N
1667,-0.620,1.335,-0.300,108.333,77.778,358.333,872.222,5.556,N
1668,-0.600,1.370,-0.240,97.222,72.222,338.889,872.222,0.000,N
1669,-0.635,1.140,-0.325,97.222,61.111,316.667,844.444,27.778,N
1670,-0.640,1.160,-0.485,105.556,75.000,347.222,847.222,2.778,N
1671,-0.685,1.175,-0.345,100.000,75.000,341.667,836.111,11.111,N
1672,-0.545,1.355,-0.250,102.778,58.333,325.000,877.778,41.667,N
1673,-0.565,1.285,-0.305,105.556,72.222,322.222,844.444,33.333,N
1674,-0.640,1.220,-0.330,108.333,77.778,347.222,813.889,30.556,N
1675,-0.655,1.375,-0.275,111.111,66.667,319.444,855.556,41.667,N
1676,-0.605,1.355,-0.250,102.778,77.778,336.111,852.778,2.778,N
1677,-0.585,1.410,-0.260,102.778,77.778,336.111,836.111,16.667,N
1678,-0.560,1.430,-0.245,105.556,75.000,333.333,855.556,19.444,N
1679,-0.360,1.420,-0.215,136.111,44.444,288.889,627.778,227.778,A
1680,-0.515,1.515,-0.130,102.778,63.889,325.000,1022.222,394.444,N
1681,-0.455,1.410,-0.175,102.778,66.667,319.444,872.222,150.000,N
1682,-0.465,1.415,-0.170,105.556,52.778,325.000,850.000,22.222,N
1683,-0.460,1.435,-0.175,102.778,63.889,322.222,880.556,30.556,N
1684,-0.480,1.355,-0.115,97.222,75.000,327.778,863.889,16.667,N
1685,-0.440,1.505,-0.135,100.000,75.000,347.222,847.222,16.667,N
1686,-0.450,1.345,-0.150,97.222,66.667,347.222,858.333,11.111,N
1687,-0.475,1.405,-0.200,100.000,72.222,338.889,897.222,38.889,N
1688,-0.470,1.340,-0.150,102.778,66.667,341.667,872.222,25.000,N
1689,-0.470,1.325,-0.165,100.000,66.667,344.444,872.222,0.000,N
1690,-0.490,1.225,-0.205,97.222,69.444,350.000,894.444,22.222,N
1691,-0.510,1.250,-0.225,102.778,77.778,352.778,877.778,16.667,N
1692,-0.530,1.400,-0.210,102.778,72.222,336.111,866.667,11.111,N
1693,-0.540,1.230,-0.215,97.222,63.889,322.222,883.333,16.667,N
1694,-0.550,1.295,-0.265,102.778,61.111,325.000,891.667,8.333,N
1695,-0.560,1.245,-0.300,94.444,69.444,330.556,883.333,8.333,N
1696,-0.555,1.090,-0.275,91.667,72.222,336.111,866.667,16.667,N
1697,-0.540,1.235,-0.270,108.333,69.444,327.778,891.667,25.000,N
1698,-0.555,1.245,-0.300,100.000,66.667,327.778,905.556,13.889,N
1699,-0.575,1.065,-0.320,94.444,66.667,341.667,866.667,38.889,N
1700,-0.565,1.120,-0.310,105.556,69.444,336.111,897.222,30.556,N
1701,-0.520,1.140,-0.220,102.778,83.333,347.222,894.444,2.778,N
1702,-0.520,1.170,-0.280,108.333,80.556,344.444,900.000,5.556,N
1703,-0.545,1.160,-0.295,100.000,66.667,316.667,877.778,22.222,N
1704,-0.550,1.330,-0.210,97.222,63.889,350.000,863.889,13.889,N
1705,-0.490,1.365,-0.200,105.556,80.556,341.667,922.222,58.333,N
1706,-0.480,1.335,-0.225,97.222,66.667,322.222,877.778,44.444,N
1707,-0.480,1.160,-0.275,91.667,61.111,341.667,836.111,41.667,N
1708,-0.550,1.220,-0.235,94.444,75.000,350.000,855.556,19.444,N
1709,-0.525,1.290,-0.215,105.556,63.889,338.889,877.778,22.222,N
1710,-0.535,1.130,-0.270,102.778,63.889,330.556,858.333,19.444,N
1711,-0.535,1.105,-0.265,88.889,69.444,338.889,855.556,2.778,N
1712,-0.520,1.185,-0.270,102.778,72.222,341.667,886.111,30.556,N
1713,-0.535,1.285,-0.255,105.556,77.778,355.556,886.111,0.000,N
1714,-0.555,1.100,-0.260,97.222,72.222,338.889,869.444,16.667,N
1715,-0.580,1.115,-0.295,102.778,80.556,338.889,872.222,2.778,N
1716,-0.595,1.130,-0.315,105.556,72.222,333.333,875.000,2.778,N
1717,-0.590,1.230,-0.265,102.778,75.000,336.111,888.889,13.889,N
1718,-0.565,1.290,-0.305,100.000,75.000,325.000,861.111,27.778,N
1719,-0.590,1.255,-0.295,102.778,75.000,352.778,855.556,5.556,N
1720,-0.600,1.175,-0.315,100.000,75.000,344.444,875.000,19.444,N
1721,-0.610,1.045,-0.265,88.889,61.111,319.444,850.000,25.000,N
1722,-0.590,1.380,-0.245,102.778,72.222,344.444,855.556,5.556,N
1723,-0.570,1.235,-0.280,102.778,77.778,344.444,866.667,11.111,N
1724,-0.615,1.370,-0.305,108.333,72.222,333.333,886.111,19.444,N
1725,-0.595,1.275,-0.220,102.778,63.889,325.000,858.333,27.778,N
1726,-0.540,1.415,-0.180,97.222,75.000,344.444,855.556,2.778,N
1727,-0.510,1.380,-0.200,105.556,80.556,352.778,897.222,41.667,N
1728,-0.530,1.300,-0.195,108.333,80.556,336.111,880.556,16.667,N
1729,-0.520,1.435,-0.145,91.667,72.222,338.889,855.556,25.000,N
1730,-0.485,1.410,-0.155,91.667,63.889,333.333,880.556,25.000,N
1731,-0.480,1.385,-0.175,105.556,75.000,341.667,886.111,5.556,N
1732,-0.525,1.500,-0.210,102.778,75.000,336.111,877.778,8.333,N
1733,-0.525,1.540,-0.220,100.000,75.000,327.778,858.333,19.444,N
1734,-0.500,1.490,-0.145,102.778,77.778,347.222,875.000,16.667,N
1735,-0.510,1.500,-0.165,102.778,75.000,352.778,877.778,2.778,N
1736,-0.510,1.710,-0.170,105.556,41.667,311.111,844.444,33.333,N
1737,-0.515,1.585,-0.160,100.000,44.444,297.222,836.111,8.333,N
1738,-0.475,1.515,-0.110,105.556,75.000,333.333,833.333,2.778,N
1739,-0.340,1.565,-0.055,97.222,72.222,336.111,841.667,8.333,N
1740,-0.495,1.500,-0.205,105.556,72.222,330.556,802.778,38.889,N
1741,-0.490,1.380,-0.410,141.667,41.667,286.111,519.444,283.333,A
1742,-0.770,1.530,-0.245,102.778,69.444,347.222,961.111,441.667,N
1743,-0.720,1.555,-0.385,108.333,61.111,322.222,822.222,138.889,N
1744,-0.695,1.545,-0.290,102.778,72.222,338.889,822.222,0.000,N
1745,-0.495,1.420,-0.375,197.222,83.333,338.889,511.111,311.111,A
1746,-0.615,1.715,-0.210,105.556,77.778,352.778,966.667,455.556,N
1747,-0.530,1.650,-0.240,105.556,61.111,327.778,877.778,88.889,N
1748,-0.530,1.600,-0.190,108.333,77.778,336.111,858.333,19.444,N
1749,-0.520,1.630,-0.155,100.000,63.889,316.667,841.667,16.667,N
1750,-0.485,1.585,-0.045,102.778,77.778,333.333,891.667,50.000,N
1751,-0.440,1.715,-0.045,97.222,69.444,319.444,883.333,8.333,N
1752,-0.505,1.375,-0.085,105.556,66.667,327.778,844.444,38.889,N
1753,-0.205,1.545,-0.105,130.556,41.667,280.556,633.333,211.111,A
1754,-0.375,1.485,-0.255,197.222,77.778,333.333,494.444,138.889,A
1755,-0.540,1.680,-0.095,94.444,72.222,350.000,1027.778,533.333,N
1756,-0.505,1.485,-0.235,113.889,66.667,327.778,955.556,72.222,N
1757,-0.500,1.545,-0.150,105.556,66.667,336.111,888.889,66.667,N
1758,-0.505,1.620,-0.145,100.000,69.444,327.778,927.778,38.889,N
1759,-0.530,1.750,-0.080,100.000,69.444,319.444,905.556,22.222,N
1760,-0.485,1.485,0.035,102.778,63.889,330.556,872.222,33.333,N
1761,-0.300,1.410,-0.110,102.778,69.444,330.556,866.667,5.556,N
1762,-0.550,1.490,-0.145,105.556,75.000,344.444,863.889,2.778,N
1763,-0.580,1.435,-0.125,100.000,66.667,327.778,841.667,22.222,N
1764,-0.630,1.570,-0.185,94.444,72.222,327.778,836.111,5.556,N
1765,-0.675,1.305,-0.235,113.889,80.556,350.000,863.889,27.778,N
1766,-0.660,1.270,-0.205,108.333,72.222,338.889,858.333,5.556,N
1767,-0.660,1.505,-0.175,94.444,77.778,341.667,869.444,11.111,N
1768,-0.575,1.395,-0.185,108.333,83.333,322.222,869.444,0.000,N
1769,-0.545,1.295,-0.185,100.000,75.000,338.889,861.111,8.333,N
1770,-0.570,1.405,-0.165,105.556,61.111,316.667,877.778,16.667,N
1771,-0.560,1.515,-0.150,94.444,69.444,322.222,872.222,5.556,N
1772,-0.575,1.610,-0.215,102.778,66.667,325.000,869.444,2.778,N
1773,-0.565,1.465,-0.200,100.000,72.222,330.556,888.889,19.444,N
1774,-0.540,1.535,-0.150,100.000,69.444,319.444,852.778,36.111,N
1775,-0.515,1.560,-0.145,100.000,69.444,338.889,866.667,13.889,N
1776,-0.505,1.580,-0.145,105.556,72.222,350.000,863.889,2.778,N
1777,-0.440,1.480,-0.100,102.778,69.444,341.667,869.444,5.556,N
1778,-0.420,1.570,-0.100,97.222,69.444,336.111,863.889,5.556,N
1779,-0.410,1.685,-0.025,100.000,80.556,341.667,852.778,11.111,N
1780,-0.400,1.710,-0.045,108.333,77.778,350.000,886.111,33.333,N
1781,-0.360,1.535,-0.070,102.778,75.000,347.222,866.667,19.444,N
1782,-0.415,1.490,-0.160,100.000,58.333,313.889,852.778,13.889,N
1783,-0.430,1.555,-0.125,105.556,75.000,322.222,883.333,30.556,N
1784,-0.470,1.455,-0.105,105.556,77.778,338.889,883.333,0.000,N
1785,-0.495,1.410,-0.195,94.444,72.222,338.889,886.111,2.778,N
1786,-0.515,1.585,-0.250,100.000,75.000,333.333,863.889,22.222,N
1787,-0.555,1.370,-0.255,100.000,69.444,336.111,861.111,2.778,N
1788,-0.540,1.500,-0.165,102.778,75.000,336.111,888.889,27.778,N
1789,-0.485,1.550,-0.170,97.222,69.444,327.778,877.778,11.111,N
1790,-0.470,1.435,-0.200,102.778,80.556,344.444,850.000,27.778,N
1791,-0.445,1.315,-0.180,100.000,77.778,350.000,863.889,13.889,N
1792,-0.450,1.405,-0.115,102.778,80.556,347.222,905.556,41.667,N
1793,-0.440,1.345,-0.135,102.778,63.889,319.444,872.222,33.333,N
1794,-0.460,1.165,-0.180,100.000,80.556,344.444,863.889,8.333,N
1795,-0.515,1.260,-0.220,100.000,69.444,336.111,913.889,50.000,N
1796,-0.510,1.400,-0.160,102.778,69.444,333.333,897.222,16.667,N
1797,-0.450,1.315,-0.160,102.778,75.000,344.444,880.556,16.667,N
1798,-0.465,1.310,-0.165,94.444,72.222,316.667,891.667,11.111,N
1799,-0.435,1.300,-0.150,100.000,72.222,347.222,877.778,13.889,N
1800,-0.465,1.365,-0.155,97.222,69.444,344.444,888.889,11.111,N
1801,-0.440,1.300,-0.170,94.444,75.000,319.444,872.222,16.667,N
1802,-0.465,1.285,-0.160,100.000,63.889,347.222,891.667,19.444,N
1803,-0.480,1.360,-0.185,100.000,72.222,344.444,888.889,2.778,N
1804,-0.480,1.345,-0.150,97.222,72.222,336.111,866.667,22.222,N
1805,-0.480,1.340,-0.180,105.556,72.222,322.222,883.333,16.667,N
1806,-0.480,1.335,-0.230,102.778,75.000,333.333,875.000,8.333,N
1807,-0.500,1.260,-0.220,100.000,69.444,316.667,894.444,19.444,N
1808,-0.515,1.240,-0.170,105.556,66.667,319.444,863.889,30.556,N
1809,-0.480,1.345,-0.155,100.000,72.222,344.444,844.444,19.444,N
1810,-0.495,1.335,-0.190,102.778,63.889,325.000,883.333,38.889,N
1811,-0.495,1.300,-0.175,94.444,69.444,325.000,866.667,16.667,N
1812,-0.510,1.325,-0.135,97.222,58.333,319.444,863.889,2.778,N
1813,-0.485,1.250,-0.115,94.444,77.778,338.889,866.667,2.778,N
1814,-0.460,1.165,-0.155,105.556,77.778,352.778,880.556,13.889,N
1815,-0.495,1.190,-0.195,97.222,75.000,333.333,858.333,22.222,N
1816,-0.515,1.285,-0.180,100.000,72.222,338.889,852.778,5.556,N
1817,-0.505,1.280,-0.160,105.556,80.556,352.778,894.444,41.667,N
1818,-0.470,1.225,-0.200,102.778,80.556,338.889,869.444,25.000,N
1819,-0.495,1.315,-0.185,111.111,66.667,322.222,850.000,19.444,N
1820,-0.480,1.210,-0.170,100.000,72.222,322.222,850.000,0.000,N
1821,-0.505,1.225,-0.180,97.222,75.000,338.889,861.111,11.111,N
1822,-0.510,1.305,-0.130,100.000,83.333,338.889,886.111,25.000,N
1823,-0.450,1.315,-0.145,97.222,72.222,322.222,847.222,38.889,N
1824,-0.480,1.250,-0.140,105.556,75.000,344.444,877.778,30.556,N
1825,-0.480,1.160,-0.125,100.000,63.889,333.333,908.333,30.556,N
1826,-0.485,1.215,-0.170,94.444,66.667,336.111,869.444,38.889,N
1827,-0.480,1.185,-0.185,100.000,75.000,341.667,888.889,19.444,N
1828,-0.505,1.205,-0.210,116.667,75.000,333.333,891.667,2.778,N
1829,-0.490,1.300,-0.145,108.333,77.778,336.111,883.333,8.333,N
1830,-0.495,1.230,-0.195,97.222,66.667,319.444,880.556,2.778,N
1831,-0.530,1.260,-0.230,102.778,77.778,338.889,866.667,13.889,N
1832,-0.550,1.050,-0.270,97.222,66.667,325.000,894.444,27.778,N
1833,-0.595,1.110,-0.210,94.444,72.222,330.556,891.667,2.778,N
1834,-0.555,1.250,-0.215,105.556,69.444,347.222,880.556,11.111,N
1835,-0.530,1.150,-0.240,100.000,80.556,347.222,886.111,5.556,N
1836,-0.560,1.095,-0.255,102.778,69.444,325.000,911.111,25.000,N
1837,-0.555,1.215,-0.175,108.333,80.556,338.889,891.667,19.444,N
1838,-0.550,1.165,-0.185,94.444,66.667,344.444,880.556,11.111,N
1839,-0.525,1.180,-0.225,102.778,75.000,336.111,911.111,30.556,N
1840,-0.560,1.045,-0.220,97.222,72.222,333.333,875.000,36.111,N
1841,-0.580,1.380,-0.180,94.444,72.222,336.111,858.333,16.667,N
1842,-0.535,1.340,-0.180,94.444,63.889,322.222,886.111,27.778,N
1843,-0.500,1.260,-0.215,108.333,80.556,344.444,888.889,2.778,N
1844,-0.535,1.220,-0.225,97.222,80.556,344.444,869.444,19.444,N
1845,-0.530,1.405,-0.140,102.778,77.778,344.444,858.333,11.111,N
1846,-0.490,1.330,-0.160,108.333,75.000,347.222,897.222,38.889,N
1847,-0.495,1.350,-0.210,102.778,61.111,325.000,880.556,16.667,N
1848,-0.495,1.290,-0.210,102.778,77.778,338.889,861.111,19.444,N
1849,-0.550,1.275,-0.150,102.778,80.556,336.111,875.000,13.889,N
1850,-0.480,1.380,-0.160,91.667,63.889,322.222,869.444,5.556,N
1851,-0.485,1.310,-0.210,100.000,75.000,341.667,877.778,8.333,N
1852,-0.515,1.360,-0.255,100.000,72.222,336.111,872.222,5.556,N
1853,-0.565,1.290,-0.195,102.778,77.778,344.444,875.000,2.778,N
1854,-0.550,1.470,-0.245,94.444,69.444,344.444,883.333,8.333,N
1855,-0.580,1.255,-0.240,88.889,72.222,341.667,850.000,33.333,N
1856,-0.535,1.400,-0.250,108.333,80.556,347.222,866.667,16.667,N
1857,-0.545,1.285,-0.195,105.556,80.556,350.000,863.889,2.778,N
1858,-0.530,1.325,-0.200,100.000,69.444,336.111,883.333,19.444,N
1859,-0.510,1.210,-0.175,102.778,69.444,330.556,861.111,22.222,N
1860,-0.470,1.385,-0.170,102.778,77.778,344.444,855.556,5.556,N
1861,-0.530,1.455,-0.165,108.333,83.333,341.667,877.778,22.222,N
1862,-0.535,1.545,-0.180,102.778,80.556,338.889,866.667,11.111,N
1863,-0.525,1.385,-0.245,100.000,75.000,325.000,847.222,19.444,N
1864,-0.545,1.265,-0.255,97.222,75.000,341.667,838.889,8.333,N
1865,-0.585,1.215,-0.230,97.222,72.222,352.778,861.111,22.222,N
1866,-0.570,1.380,-0.235,97.222,69.444,330.556,891.667,30.556,N
1867,-0.555,1.230,-0.270,88.889,69.444,336.111,833.333,58.333,N
1868,-0.550,1.475,-0.230,108.333,66.667,347.222,872.222,38.889,N
1869,-0.520,1.355,-0.210,102.778,75.000,341.667,872.222,0.000,N
1870,-0.560,1.245,-0.210,88.889,63.889,333.333,841.667,30.556,N
1871,-0.550,1.290,-0.250,105.556,77.778,341.667,875.000,33.333,N
1872,-0.540,1.240,-0.280,102.778,69.444,344.444,850.000,25.000,N
1873,-0.580,1.380,-0.250,108.333,61.111,316.667,861.111,11.111,N
1874,-0.570,1.335,-0.210,100.000,66.667,327.778,861.111,0.000,N
1875,-0.520,1.360,-0.245,97.222,75.000,344.444,852.778,8.333,N
1876,-0.565,1.320,-0.260,105.556,69.444,327.778,883.333,30.556,N
1877,-0.590,1.280,-0.265,105.556,77.778,336.111,861.111,22.222,N
1878,-0.545,1.495,-0.200,94.444,66.667,325.000,872.222,11.111,N
