id,Pamp,Ramp,Tamp,PR,QRS,QT,RRI,dRRI,label
1,-0.145,0.910,-0.085,194.444,116.667,294.444,608.333,144.444,N
2,-0.160,1.010,-0.065,58.333,77.778,291.667,788.889,180.556,N
3,-0.180,0.890,-0.105,88.889,102.778,275.000,647.222,141.667,N
4,-0.150,0.715,-0.115,175.000,105.556,288.889,552.778,94.444,N
5,-0.220,0.820,-0.125,55.556,83.333,308.333,955.556,402.778,N
6,-0.225,0.810,-0.110,66.667,77.778,283.333,752.778,202.778,N
7,-0.220,0.725,-0.125,100.000,111.111,286.111,719.444,33.333,N
8,-0.265,0.760,-0.100,113.889,97.222,272.222,627.778,91.667,N
9,-0.225,0.915,-0.145,63.889,83.333,291.667,650.000,22.222,N
10,-0.180,0.730,-0.100,152.778,116.667,291.667,672.222,22.222,N
11,-0.225,0.745,-0.110,127.778,111.111,294.444,758.333,86.111,N
12,-0.220,0.855,-0.100,55.556,77.778,308.333,911.111,152.778,N
13,-0.250,0.760,-0.080,69.444,113.889,305.556,863.889,47.222,N
14,-0.250,0.795,-0.135,147.222,113.889,288.889,677.778,186.111,N
15,-0.260,0.850,-0.115,55.556,77.778,269.444,661.111,16.667,N
16,-0.250,0.845,-0.140,52.778,75.000,277.778,711.111,50.000,N
17,-0.140,0.820,-0.155,163.889,113.889,297.222,394.444,316.667,N
18,-0.265,0.760,-0.210,186.111,116.667,302.778,641.667,247.222,N
19,-0.245,0.840,-0.150,197.222,77.778,291.667,713.889,72.222,N
20,-0.245,0.845,-0.195,52.778,77.778,258.333,586.111,127.778,N
21,-0.225,0.775,-0.105,116.667,111.111,305.556,641.667,55.556,N
22,-0.175,0.680,-0.105,55.556,105.556,291.667,508.333,133.333,N
23,-0.205,0.940,-0.105,58.333,86.111,311.111,802.778,294.444,N
24,-0.220,0.930,-0.165,175.000,116.667,252.778,680.556,122.222,N
25,-0.190,0.775,-0.105,144.444,108.333,269.444,555.556,125.000,N
26,-0.230,0.770,-0.100,61.111,108.333,291.667,647.222,91.667,N
27,-0.200,0.935,-0.120,113.889,88.889,311.111,705.556,58.333,N
28,-0.210,0.925,-0.090,94.444,111.111,311.111,808.333,102.778,N
29,-0.160,0.705,-0.105,97.222,100.000,305.556,569.444,238.889,N
30,-0.175,0.870,-0.075,77.778,80.556,305.556,700.000,130.556,N
31,-0.160,0.940,-0.100,191.667,75.000,272.222,644.444,55.556,N
32,-0.165,0.810,-0.075,102.778,108.333,272.222,586.111,58.333,N
33,-0.100,0.885,-0.055,197.222,113.889,288.889,425.000,161.111,N
34,-0.155,0.855,-0.040,72.222,75.000,291.667,708.333,283.333,N
35,-0.145,0.785,-0.115,150.000,69.444,261.111,538.889,169.444,N
36,-0.210,0.755,-0.100,77.778,102.778,305.556,647.222,108.333,N
37,-0.220,0.735,-0.120,194.444,102.778,305.556,813.889,166.667,N
38,-0.195,0.960,-0.085,55.556,80.556,325.000,1016.667,202.778,N
39,-0.175,0.805,-0.105,127.778,108.333,288.889,719.444,297.222,N
40,-0.195,0.805,-0.100,63.889,113.889,305.556,705.556,13.889,N
41,-0.150,0.925,-0.030,77.778,80.556,291.667,694.444,11.111,N
42,-0.185,0.840,-0.065,186.111,116.667,277.778,755.556,61.111,N
43,-0.190,0.810,-0.045,194.444,116.667,277.778,713.889,41.667,N
44,-0.170,0.825,-0.085,111.111,113.889,291.667,483.333,230.556,N
45,-0.205,0.885,-0.040,58.333,111.111,336.111,905.556,422.222,N
46,-0.155,0.720,-0.110,161.111,111.111,272.222,575.000,330.556,N
47,-0.180,0.810,-0.065,58.333,91.667,316.667,680.556,105.556,N
48,-0.165,0.835,-0.100,105.556,102.778,308.333,561.111,119.444,N
49,-0.170,0.875,-0.110,191.667,108.333,294.444,655.556,94.444,N
50,-0.170,0.770,-0.080,133.333,102.778,308.333,661.111,5.556,N
51,-0.135,0.910,-0.005,75.000,75.000,291.667,816.667,155.556,N
52,-0.140,0.885,-0.055,83.333,88.889,308.333,911.111,94.444,N
53,-0.140,0.830,-0.105,163.889,111.111,244.444,694.444,216.667,N
54,-0.155,0.785,-0.025,141.667,108.333,291.667,613.889,80.556,N
55,-0.205,0.990,-0.075,102.778,116.667,338.889,911.111,297.222,N
56,-0.165,0.835,-0.080,55.556,108.333,288.889,738.889,172.222,N
57,-0.145,0.950,-0.020,172.222,102.778,280.556,697.222,41.667,N
58,-0.020,0.940,-0.050,180.556,116.667,291.667,411.111,286.111,N
59,-0.165,0.905,-0.070,44.444,100.000,300.000,630.556,219.444,N
60,-0.145,0.880,-0.065,183.333,116.667,302.778,636.111,5.556,N
61,-0.150,0.945,0.000,61.111,116.667,294.444,616.667,19.444,N
62,-0.130,0.935,-0.105,197.222,83.333,291.667,563.889,52.778,N
63,-0.190,0.845,-0.070,55.556,100.000,291.667,711.111,147.222,N
64,-0.185,0.795,-0.060,197.222,105.556,297.222,711.111,0.000,N
65,-0.070,0.950,-0.095,197.222,100.000,308.333,450.000,261.111,N
66,-0.185,0.930,-0.090,58.333,116.667,325.000,677.778,227.778,N
67,-0.150,0.870,-0.130,152.778,116.667,241.667,636.111,41.667,N
68,-0.195,0.795,-0.090,88.889,80.556,294.444,636.111,0.000,N
69,-0.090,0.910,0.430,183.333,113.889,372.222,427.778,208.333,N
70,0.015,0.360,-0.035,58.333,113.889,288.889,355.556,72.222,a
71,-0.245,0.790,-0.085,172.222,111.111,305.556,616.667,261.111,N
72,-0.145,0.700,-0.155,144.444,108.333,272.222,508.333,108.333,N
73,-0.215,0.925,-0.005,66.667,91.667,333.333,841.667,333.333,N
74,-0.005,0.900,-0.095,188.889,116.667,308.333,463.889,377.778,N
75,-0.160,0.715,-0.095,108.333,111.111,336.111,702.778,238.889,N
76,-0.190,0.765,-0.125,63.889,86.111,291.667,675.000,27.778,N
77,-0.125,0.935,-0.205,166.667,116.667,305.556,419.444,255.556,N
78,-0.275,0.735,-0.190,91.667,105.556,288.889,625.000,205.556,N
79,-0.260,0.655,-0.125,80.556,116.667,308.333,808.333,183.333,N
80,-0.235,0.845,-0.165,66.667,69.444,272.222,650.000,158.333,N
81,-0.240,0.780,-0.170,94.444,80.556,294.444,625.000,25.000,N
82,-0.235,0.760,-0.140,52.778,100.000,275.000,613.889,11.111,N
83,-0.205,0.765,-0.100,55.556,77.778,302.778,869.444,255.556,N
84,-0.215,0.860,-0.140,136.111,80.556,277.778,897.222,27.778,N
85,-0.190,0.815,-0.090,183.333,111.111,291.667,722.222,175.000,N
86,-0.245,0.725,-0.090,108.333,83.333,288.889,663.889,58.333,N
87,-0.090,0.920,-0.180,188.889,111.111,280.556,430.556,233.333,N
88,-0.255,0.760,-0.180,183.333,116.667,294.444,508.333,77.778,N
89,-0.200,0.735,-0.120,141.667,105.556,275.000,608.333,100.000,N
90,-0.200,0.955,-0.060,55.556,83.333,305.556,925.000,316.667,N
91,-0.215,0.895,-0.095,58.333,113.889,311.111,836.111,88.889,N
92,-0.095,0.875,-0.040,183.333,102.778,291.667,436.111,400.000,N
93,-0.045,0.840,-0.195,197.222,116.667,288.889,444.444,8.333,N
94,-0.245,0.915,-0.150,197.222,86.111,325.000,663.889,219.444,N
95,-0.215,0.760,-0.075,50.000,72.222,291.667,969.444,305.556,N
96,-0.075,0.935,-0.090,180.556,116.667,291.667,433.333,536.111,N
97,-0.195,0.770,-0.155,58.333,113.889,311.111,594.444,161.111,N
98,-0.235,0.880,-0.110,63.889,83.333,300.000,886.111,291.667,N
99,-0.190,0.735,-0.145,130.556,116.667,255.556,569.444,316.667,N
100,-0.225,0.695,-0.120,63.889,113.889,294.444,680.556,111.111,N
101,-0.185,0.825,-0.095,136.111,91.667,319.444,638.889,41.667,N
102,-0.175,0.810,-0.075,188.889,91.667,316.667,686.111,47.222,N
103,-0.125,0.860,-0.055,113.889,111.111,291.667,672.222,13.889,N
104,-0.160,0.795,-0.065,161.111,80.556,300.000,730.556,58.333,N
105,-0.140,0.880,-0.045,177.778,80.556,288.889,650.000,80.556,N
106,-0.170,0.800,-0.080,138.889,102.778,277.778,780.556,130.556,N
107,-0.205,0.725,-0.085,108.333,108.333,286.111,622.222,158.333,N
108,-0.255,0.800,-0.125,133.333,88.889,305.556,688.889,66.667,N
109,-0.230,0.650,-0.140,116.667,113.889,286.111,536.111,152.778,N
110,-0.245,0.760,-0.145,136.111,113.889,322.222,663.889,127.778,N
111,-0.250,0.690,-0.170,136.111,113.889,261.111,597.222,66.667,N
112,-0.215,0.715,-0.160,100.000,113.889,288.889,516.667,80.556,N
113,-0.160,0.880,-0.175,194.444,111.111,288.889,430.556,86.111,N
114,-0.235,0.650,-0.100,75.000,105.556,308.333,777.778,347.222,N
115,-0.230,0.760,-0.125,133.333,83.333,291.667,694.444,83.333,N
116,-0.215,0.795,-0.160,158.333,113.889,227.778,691.667,2.778,N
117,-0.215,0.655,-0.125,72.222,97.222,288.889,666.667,25.000,N
118,-0.210,0.760,-0.060,69.444,113.889,319.444,827.778,161.111,N
119,-0.195,0.885,-0.070,61.111,83.333,319.444,661.111,166.667,N
120,-0.250,0.795,-0.110,88.889,116.667,319.444,805.556,144.444,N
121,-0.225,0.770,-0.100,133.333,113.889,305.556,747.222,58.333,N
122,-0.210,0.865,-0.085,100.000,83.333,275.000,630.556,116.667,N
123,-0.190,0.910,-0.020,55.556,100.000,275.000,644.444,13.889,N
124,-0.020,0.845,-0.125,175.000,111.111,300.000,397.222,247.222,N
125,-0.220,0.750,-0.035,50.000,100.000,291.667,730.556,333.333,N
126,-0.160,0.825,-0.155,172.222,111.111,236.111,563.889,166.667,N
127,-0.215,0.755,-0.100,191.667,91.667,316.667,672.222,108.333,N
128,-0.170,0.730,-0.075,58.333,105.556,288.889,786.111,113.889,N
129,-0.170,0.930,-0.040,63.889,88.889,341.667,1152.778,366.667,N
130,-0.150,0.780,-0.020,141.667,108.333,291.667,861.111,291.667,N
131,-0.160,0.695,-0.055,55.556,105.556,241.667,630.556,230.556,N
132,-0.175,0.860,-0.070,130.556,116.667,291.667,477.778,152.778,N
133,-0.155,0.795,-0.080,119.444,102.778,258.333,552.778,75.000,N
134,-0.200,0.745,-0.080,186.111,116.667,291.667,647.222,94.444,N
135,-0.230,0.890,-0.090,61.111,80.556,297.222,877.778,230.556,N
136,-0.180,0.830,-0.090,61.111,83.333,288.889,513.889,363.889,N
137,-0.215,0.750,-0.130,66.667,113.889,336.111,794.444,280.556,N
138,-0.210,0.760,-0.095,183.333,100.000,288.889,683.333,111.111,N
139,-0.185,0.905,-0.055,122.222,83.333,294.444,855.556,172.222,N
140,-0.055,0.880,-0.080,172.222,108.333,277.778,413.889,441.667,N
141,-0.220,0.765,-0.120,177.778,113.889,308.333,758.333,344.444,N
142,-0.210,0.825,-0.090,83.333,86.111,305.556,686.111,72.222,N
143,-0.090,0.955,-0.120,163.889,113.889,288.889,411.111,275.000,N
144,-0.185,0.790,-0.140,141.667,105.556,308.333,561.111,150.000,N
145,-0.140,0.845,-0.170,166.667,102.778,275.000,427.778,133.333,N
146,-0.220,0.745,-0.070,58.333,111.111,319.444,686.111,258.333,N
147,-0.215,0.845,-0.135,52.778,75.000,325.000,830.556,144.444,N
148,-0.185,0.750,-0.075,77.778,102.778,294.444,927.778,97.222,N
149,-0.170,0.845,-0.050,130.556,88.889,277.778,650.000,277.778,N
150,-0.185,0.790,-0.080,122.222,75.000,275.000,541.667,108.333,N
151,-0.185,0.780,-0.035,91.667,111.111,311.111,969.444,427.778,N
152,-0.055,0.875,-0.045,197.222,102.778,272.222,461.111,508.333,N
153,-0.045,0.790,-0.095,163.889,100.000,277.778,391.667,69.444,N
154,-0.195,0.905,-0.050,72.222,91.667,336.111,677.778,286.111,N
155,-0.140,0.800,-0.130,91.667,105.556,311.111,666.667,11.111,N
156,-0.165,0.875,-0.065,197.222,113.889,291.667,694.444,27.778,N
157,-0.140,0.965,-0.070,75.000,83.333,291.667,677.778,16.667,N
158,-0.175,0.805,-0.050,197.222,116.667,294.444,736.111,58.333,N
159,-0.200,0.825,-0.065,63.889,113.889,291.667,783.333,47.222,N
160,-0.150,0.955,-0.050,69.444,88.889,305.556,825.000,41.667,N
161,-0.165,0.810,-0.040,72.222,113.889,302.778,800.000,25.000,N
162,-0.175,0.925,-0.095,130.556,86.111,322.222,925.000,125.000,N
163,-0.170,0.890,-0.020,55.556,83.333,308.333,825.000,100.000,N
164,-0.145,0.755,-0.020,133.333,116.667,308.333,625.000,200.000,N
165,-0.145,0.905,0.020,116.667,88.889,305.556,838.889,213.889,N
166,-0.140,0.840,-0.040,116.667,88.889,286.111,566.667,272.222,N
167,-0.145,0.835,-0.045,191.667,111.111,286.111,636.111,69.444,N
168,-0.130,0.855,-0.020,133.333,102.778,275.000,611.111,25.000,N
169,-0.165,0.995,-0.050,175.000,86.111,313.889,727.778,116.667,N
170,-0.130,0.860,-0.075,58.333,88.889,277.778,480.556,247.222,N
171,-0.195,0.825,-0.125,183.333,116.667,341.667,638.889,158.333,N
172,-0.225,0.755,-0.130,158.333,86.111,297.222,675.000,36.111,N
173,-0.255,0.845,-0.120,58.333,88.889,313.889,686.111,11.111,N
174,-0.120,0.800,-0.130,158.333,102.778,294.444,413.889,272.222,N
175,-0.130,0.840,-0.205,136.111,102.778,280.556,377.778,36.111,N
176,-0.265,0.695,-0.115,111.111,80.556,308.333,894.444,516.667,N
177,-0.235,0.845,-0.185,138.889,77.778,275.000,611.111,283.333,N
178,-0.240,0.780,-0.155,83.333,113.889,288.889,641.667,30.556,N
179,-0.155,0.815,-0.135,163.889,111.111,291.667,397.222,244.444,N
180,-0.225,0.875,-0.120,161.111,86.111,308.333,883.333,486.111,N
181,-0.210,0.825,-0.095,155.556,116.667,338.889,1108.333,225.000,N
182,-0.205,0.730,-0.110,58.333,113.889,305.556,877.778,230.556,N
183,-0.220,0.870,-0.130,152.778,116.667,300.000,752.778,125.000,N
184,-0.225,0.735,-0.105,100.000,116.667,275.000,780.556,27.778,N
185,-0.210,0.620,-0.115,191.667,100.000,241.667,575.000,205.556,N
186,-0.215,0.680,-0.105,158.333,105.556,291.667,516.667,58.333,N
187,-0.230,0.795,-0.140,180.556,116.667,277.778,488.889,27.778,N
188,-0.220,0.730,-0.165,44.444,97.222,325.000,600.000,111.111,N
189,-0.190,0.655,-0.170,119.444,100.000,272.222,588.889,11.111,N
190,-0.220,0.765,-0.120,63.889,88.889,294.444,727.778,138.889,N
191,-0.205,0.820,-0.115,111.111,86.111,327.778,811.111,83.333,N
192,-0.165,0.675,-0.060,52.778,102.778,294.444,694.444,116.667,N
193,-0.225,0.725,-0.130,50.000,100.000,288.889,783.333,88.889,N
194,-0.210,0.730,-0.100,105.556,72.222,272.222,600.000,183.333,N
195,-0.225,0.715,-0.140,97.222,102.778,291.667,691.667,91.667,N
196,-0.205,0.710,-0.125,147.222,97.222,286.111,566.667,125.000,N
197,-0.245,0.765,-0.125,175.000,80.556,291.667,677.778,111.111,N
198,-0.225,0.745,-0.160,66.667,83.333,305.556,608.333,69.444,N
199,-0.205,0.730,-0.145,152.778,111.111,313.889,691.667,83.333,N
200,-0.225,0.745,-0.150,194.444,102.778,294.444,702.778,11.111,N
201,-0.225,0.740,-0.150,186.111,116.667,305.556,608.333,94.444,N
202,-0.260,0.805,-0.140,197.222,86.111,305.556,663.889,55.556,N
203,-0.190,0.605,-0.140,141.667,100.000,236.111,508.333,155.556,N
204,-0.145,0.745,-0.135,197.222,86.111,277.778,405.556,102.778,N
205,-0.235,0.875,-0.070,105.556,80.556,311.111,1044.444,638.889,N
206,-0.185,0.700,-0.110,122.222,111.111,319.444,697.222,347.222,N
207,-0.165,0.730,-0.070,58.333,111.111,308.333,855.556,158.333,N
208,-0.150,0.920,-0.060,111.111,86.111,319.444,802.778,52.778,N
209,-0.195,0.830,-0.080,191.667,113.889,333.333,891.667,88.889,N
210,-0.235,0.740,-0.160,186.111,111.111,252.778,697.222,194.444,N
211,-0.235,0.695,-0.145,197.222,83.333,269.444,511.111,186.111,N
212,-0.270,0.830,-0.135,191.667,116.667,291.667,633.333,122.222,N
213,-0.190,0.675,-0.130,100.000,113.889,305.556,633.333,0.000,N
214,-0.255,0.660,-0.140,94.444,113.889,272.222,733.333,100.000,N
215,-0.215,0.825,-0.140,55.556,83.333,294.444,725.000,8.333,N
216,-0.210,0.825,-0.095,88.889,102.778,258.333,680.556,44.444,N
217,-0.165,0.740,-0.035,61.111,111.111,294.444,905.556,225.000,N
218,-0.180,0.760,-0.120,88.889,86.111,288.889,594.444,311.111,N
219,-0.170,1.000,-0.090,191.667,100.000,277.778,469.444,125.000,N
220,-0.190,0.805,-0.100,102.778,116.667,288.889,627.778,158.333,N
221,-0.180,0.785,-0.140,147.222,116.667,258.333,663.889,36.111,N
222,-0.195,0.965,-0.100,83.333,86.111,291.667,900.000,236.111,N
223,-0.170,0.930,-0.040,75.000,100.000,255.556,691.667,208.333,N
224,-0.130,0.780,-0.065,55.556,100.000,294.444,630.556,61.111,N
225,-0.170,0.835,-0.100,113.889,86.111,288.889,627.778,2.778,N
226,-0.100,0.880,-0.135,169.444,105.556,297.222,416.667,211.111,N
227,-0.240,0.825,-0.120,100.000,88.889,322.222,716.667,300.000,N
228,-0.120,0.885,-0.125,175.000,113.889,291.667,447.222,269.444,N
229,-0.200,0.925,-0.030,77.778,80.556,308.333,1013.889,566.667,N
230,-0.155,0.930,-0.095,102.778,86.111,275.000,558.333,455.556,N
231,-0.140,0.725,-0.105,91.667,102.778,308.333,558.333,0.000,N
232,-0.180,0.720,-0.125,152.778,113.889,308.333,675.000,116.667,N
233,-0.205,0.920,-0.120,197.222,88.889,325.000,727.778,52.778,N
234,-0.160,0.765,-0.090,83.333,80.556,255.556,586.111,141.667,N
235,-0.110,0.915,-0.050,88.889,100.000,291.667,438.889,147.222,N
236,-0.185,0.900,-0.045,197.222,88.889,325.000,1141.667,702.778,N
237,-0.165,0.915,-0.100,72.222,113.889,325.000,838.889,302.778,N
238,-0.155,0.800,-0.090,183.333,113.889,305.556,630.556,208.333,N
239,-0.140,0.680,0.260,166.667,102.778,391.667,516.667,113.889,N
240,-0.065,0.915,-0.090,150.000,97.222,255.556,363.889,152.778,N
241,-0.230,0.825,-0.120,75.000,77.778,291.667,641.667,277.778,N
242,-0.170,0.805,-0.100,69.444,116.667,322.222,761.111,119.444,N
243,-0.135,0.795,-0.105,161.111,105.556,302.778,691.667,69.444,N
244,-0.190,0.980,-0.090,119.444,86.111,305.556,725.000,33.333,N
245,-0.185,0.805,-0.085,61.111,108.333,288.889,708.333,16.667,N
246,-0.135,0.760,-0.105,186.111,116.667,305.556,641.667,66.667,N
247,-0.220,0.930,-0.075,152.778,75.000,294.444,719.444,77.778,N
248,-0.170,0.810,-0.085,113.889,113.889,280.556,691.667,27.778,N
249,-0.145,0.760,-0.030,100.000,75.000,294.444,858.333,166.667,N
250,-0.185,0.910,-0.065,130.556,83.333,275.000,691.667,166.667,N
251,-0.220,0.800,-0.135,119.444,80.556,308.333,694.444,2.778,N
252,-0.180,0.760,-0.100,138.889,102.778,294.444,647.222,47.222,N
253,-0.220,0.685,-0.100,61.111,108.333,288.889,638.889,8.333,N
254,-0.210,0.750,-0.135,158.333,83.333,291.667,597.222,41.667,N
255,-0.240,0.770,-0.130,177.778,113.889,244.444,669.444,72.222,N
256,-0.135,0.780,-0.120,197.222,113.889,288.889,419.444,250.000,N
257,-0.230,0.755,-0.090,155.556,105.556,297.222,658.333,238.889,N
258,-0.170,0.810,-0.100,100.000,100.000,258.333,611.111,47.222,N
259,-0.175,0.815,-0.075,158.333,86.111,294.444,677.778,66.667,N
260,-0.160,0.640,-0.125,130.556,111.111,272.222,500.000,177.778,N
261,-0.190,0.625,-0.075,77.778,77.778,319.444,750.000,250.000,N
262,-0.170,0.655,-0.115,136.111,91.667,302.778,591.667,158.333,N
263,-0.205,0.865,-0.085,150.000,113.889,325.000,708.333,116.667,N
264,-0.155,0.780,-0.055,66.667,116.667,288.889,622.222,86.111,N
265,-0.150,0.730,-0.030,191.667,108.333,294.444,591.667,30.556,N
266,-0.125,0.815,-0.075,194.444,111.111,288.889,466.667,125.000,N
267,-0.180,0.845,-0.070,69.444,100.000,297.222,661.111,194.444,N
268,-0.135,0.740,-0.090,158.333,111.111,280.556,536.111,125.000,N
269,-0.195,0.685,-0.125,86.111,100.000,272.222,597.222,61.111,N
270,-0.215,0.940,-0.115,100.000,86.111,305.556,830.556,233.333,N
271,-0.125,0.805,-0.010,75.000,80.556,288.889,875.000,44.444,N
272,-0.105,0.850,0.010,97.222,113.889,305.556,688.889,186.111,N
273,-0.130,1.070,0.025,194.444,86.111,308.333,1213.889,525.000,N
274,-0.055,0.905,-0.030,111.111,111.111,275.000,483.333,730.556,N
275,-0.130,0.800,-0.050,66.667,113.889,288.889,641.667,158.333,N
276,-0.140,0.825,-0.065,197.222,86.111,258.333,591.667,50.000,N
277,-0.170,0.970,-0.050,163.889,88.889,263.889,752.778,161.111,N
278,-0.145,0.800,-0.025,172.222,108.333,313.889,691.667,61.111,N
279,-0.155,0.800,-0.100,61.111,113.889,311.111,655.556,36.111,N
280,-0.200,0.840,-0.065,86.111,88.889,319.444,805.556,150.000,N
281,-0.200,0.760,-0.155,130.556,111.111,288.889,758.333,47.222,N
282,-0.240,0.760,-0.120,186.111,88.889,322.222,1041.667,283.333,N
283,-0.195,0.835,-0.095,144.444,88.889,294.444,641.667,400.000,N
284,-0.215,0.760,-0.135,191.667,111.111,286.111,833.333,191.667,N
285,-0.145,0.765,-0.055,188.889,113.889,288.889,491.667,341.667,N
286,-0.205,0.865,-0.125,138.889,88.889,288.889,650.000,158.333,N
287,-0.185,0.790,-0.110,88.889,108.333,330.556,786.111,136.111,N
288,-0.185,0.645,-0.070,169.444,111.111,305.556,613.889,172.222,N
289,-0.070,0.815,-0.030,152.778,111.111,400.000,400.000,213.889,N
290,-0.085,0.865,-0.170,127.778,105.556,300.000,372.222,27.778,N
291,-0.155,0.905,-0.040,166.667,113.889,325.000,1105.556,733.333,N
292,-0.160,0.740,-0.190,116.667,113.889,305.556,586.111,519.444,N
293,-0.250,0.760,-0.185,138.889,77.778,258.333,555.556,30.556,N
294,-0.220,0.730,-0.100,125.000,83.333,305.556,936.111,380.556,N
295,-0.205,0.825,-0.175,61.111,113.889,288.889,652.778,283.333,N
296,-0.175,0.845,-0.140,186.111,116.667,305.556,422.222,230.556,N
297,-0.210,0.800,-0.095,66.667,116.667,325.000,780.556,358.333,N
298,-0.170,0.690,-0.065,127.778,80.556,291.667,677.778,102.778,N
299,-0.175,0.840,-0.135,58.333,80.556,308.333,663.889,13.889,N
300,-0.205,0.795,-0.060,55.556,100.000,277.778,794.444,130.556,N
301,-0.185,0.755,-0.095,161.111,111.111,291.667,758.333,36.111,N
302,-0.210,0.795,-0.120,194.444,72.222,244.444,544.444,213.889,N
303,-0.210,0.820,-0.050,61.111,113.889,308.333,908.333,363.889,N
304,-0.120,0.770,-0.015,138.889,108.333,302.778,1194.444,286.111,N
305,-0.125,0.935,-0.030,161.111,83.333,308.333,619.444,575.000,N
306,-0.190,0.895,-0.125,72.222,100.000,275.000,758.333,138.889,N
307,-0.220,0.765,-0.145,66.667,113.889,288.889,630.556,127.778,N
308,-0.225,0.755,-0.100,111.111,80.556,280.556,625.000,5.556,N
309,-0.230,0.935,-0.050,55.556,83.333,311.111,788.889,163.889,N
310,-0.165,0.875,0.140,102.778,108.333,397.222,638.889,150.000,N
311,-0.055,0.745,-0.105,147.222,116.667,294.444,375.000,263.889,a
312,-0.105,0.805,-0.200,158.333,102.778,291.667,394.444,19.444,N
313,-0.280,0.840,-0.185,97.222,113.889,308.333,608.333,213.889,N
314,-0.245,0.675,-0.200,69.444,113.889,336.111,838.889,230.556,N
315,-0.265,0.650,-0.190,175.000,102.778,305.556,638.889,200.000,N
316,-0.185,0.885,-0.100,50.000,75.000,305.556,994.444,355.556,N
317,-0.155,0.710,-0.105,77.778,108.333,305.556,525.000,469.444,N
318,-0.195,0.765,-0.150,63.889,100.000,288.889,602.778,77.778,N
319,-0.200,0.740,-0.145,63.889,66.667,258.333,597.222,5.556,N
320,-0.165,0.980,-0.180,197.222,116.667,261.111,419.444,177.778,N
321,-0.235,0.795,-0.115,77.778,116.667,308.333,666.667,247.222,N
322,-0.115,0.795,-0.095,177.778,100.000,305.556,427.778,238.889,N
323,-0.230,0.675,-0.125,61.111,113.889,311.111,619.444,191.667,N
324,-0.235,0.510,-0.075,80.556,77.778,288.889,655.556,36.111,N
325,-0.270,0.750,-0.180,133.333,113.889,338.889,650.000,5.556,N
326,-0.230,0.660,-0.135,77.778,97.222,305.556,675.000,25.000,N
327,-0.210,0.715,-0.145,188.889,111.111,305.556,644.444,30.556,N
328,-0.230,0.845,-0.110,177.778,88.889,300.000,605.556,38.889,N
329,-0.200,0.675,-0.100,83.333,116.667,291.667,1022.222,416.667,N
330,-0.215,0.800,-0.115,88.889,113.889,305.556,852.778,169.444,N
331,-0.175,0.825,-0.080,100.000,88.889,275.000,797.222,55.556,N
332,-0.195,0.775,-0.120,144.444,113.889,305.556,763.889,33.333,N
333,-0.200,0.795,-0.145,91.667,83.333,280.556,761.111,2.778,N
334,-0.200,0.870,-0.130,141.667,80.556,319.444,800.000,38.889,N
335,-0.195,0.710,-0.080,55.556,105.556,277.778,694.444,105.556,N
336,-0.185,0.820,-0.080,77.778,97.222,261.111,661.111,33.333,N
337,-0.170,1.025,-0.090,161.111,83.333,275.000,697.222,36.111,N
338,-0.170,0.790,-0.055,163.889,113.889,319.444,886.111,188.889,N
339,-0.155,0.880,-0.105,63.889,80.556,288.889,830.556,55.556,N
340,-0.205,0.945,-0.070,88.889,91.667,302.778,758.333,72.222,N
341,-0.240,0.695,-0.030,77.778,105.556,294.444,855.556,97.222,N
342,-0.205,0.740,-0.060,180.556,100.000,275.000,641.667,213.889,N
343,-0.210,0.885,-0.065,155.556,72.222,269.444,852.778,211.111,N
344,-0.180,0.750,-0.015,66.667,116.667,294.444,827.778,25.000,N
345,-0.165,0.930,-0.040,61.111,83.333,286.111,750.000,77.778,N
346,-0.175,0.840,-0.050,58.333,86.111,300.000,569.444,180.556,N
347,-0.180,0.695,-0.095,66.667,116.667,305.556,530.556,38.889,N
348,-0.200,0.660,-0.140,141.667,102.778,294.444,575.000,44.444,N
349,-0.225,0.875,-0.185,177.778,88.889,311.111,702.778,127.778,N
350,-0.235,0.755,-0.160,50.000,77.778,308.333,727.778,25.000,N
351,-0.160,0.820,-0.085,175.000,105.556,294.444,452.778,275.000,N
352,-0.205,0.770,-0.095,58.333,100.000,283.333,600.000,147.222,N
353,-0.165,0.710,-0.145,197.222,113.889,275.000,472.222,127.778,N
354,-0.220,0.890,-0.170,152.778,108.333,311.111,625.000,152.778,N
355,-0.255,0.715,-0.185,72.222,105.556,297.222,697.222,72.222,N
356,-0.200,0.780,-0.090,183.333,116.667,308.333,680.556,16.667,N
357,-0.175,0.920,-0.120,136.111,80.556,305.556,688.889,8.333,N
358,-0.150,0.825,-0.105,188.889,100.000,322.222,513.889,175.000,N
359,-0.160,0.760,-0.055,175.000,105.556,297.222,619.444,105.556,N
360,-0.175,0.750,-0.070,197.222,116.667,311.111,627.778,8.333,N
361,-0.135,0.880,-0.090,144.444,77.778,88.889,591.667,36.111,N
362,-0.100,0.950,-0.135,191.667,113.889,322.222,433.333,158.333,N
363,-0.200,0.825,-0.065,150.000,113.889,302.778,627.778,194.444,N
364,-0.065,0.830,-0.125,144.444,108.333,313.889,388.889,238.889,N
365,-0.160,0.910,-0.010,55.556,77.778,308.333,780.556,391.667,N
366,-0.170,0.860,-0.105,72.222,105.556,311.111,733.333,47.222,N
367,-0.150,0.805,-0.085,194.444,116.667,297.222,625.000,108.333,N
368,-0.170,0.765,0.000,163.889,86.111,322.222,763.889,138.889,N
369,-0.155,0.880,-0.070,197.222,88.889,272.222,772.222,8.333,N
370,-0.175,0.805,-0.090,150.000,116.667,305.556,797.222,25.000,N
371,-0.180,0.885,-0.060,175.000,113.889,283.333,758.333,38.889,N
372,-0.135,0.915,-0.025,130.556,80.556,283.333,641.667,116.667,N
373,-0.125,0.815,-0.040,133.333,102.778,275.000,569.444,72.222,N
374,-0.130,0.815,-0.055,125.000,105.556,272.222,658.333,88.889,N
375,-0.175,0.930,-0.105,161.111,88.889,286.111,655.556,2.778,N
376,-0.235,0.835,-0.110,197.222,113.889,305.556,652.778,2.778,N
377,-0.180,0.660,-0.085,111.111,88.889,311.111,741.667,88.889,N
378,-0.210,0.910,-0.095,77.778,83.333,275.000,1033.333,291.667,N
379,-0.140,0.820,-0.060,161.111,111.111,291.667,550.000,483.333,N
380,-0.155,0.875,-0.080,175.000,102.778,261.111,650.000,100.000,N
381,-0.145,0.905,-0.045,66.667,100.000,272.222,622.222,27.778,N
382,-0.170,0.810,-0.100,127.778,80.556,275.000,527.778,94.444,N
383,-0.100,0.970,-0.115,158.333,108.333,277.778,380.556,147.222,N
384,-0.220,0.750,-0.115,58.333,111.111,302.778,636.111,255.556,N
385,-0.180,0.890,-0.065,61.111,86.111,311.111,983.333,347.222,N
386,-0.140,0.895,-0.020,55.556,97.222,305.556,530.556,452.778,N
387,-0.115,0.795,-0.070,61.111,100.000,294.444,672.222,141.667,N
388,-0.150,0.800,-0.060,136.111,116.667,305.556,702.778,30.556,N
389,-0.135,0.825,-0.060,188.889,75.000,272.222,636.111,66.667,N
390,-0.155,0.910,-0.065,147.222,116.667,405.556,661.111,25.000,N
391,-0.110,0.810,-0.030,125.000,100.000,272.222,377.778,283.333,N
392,-0.185,0.850,0.000,169.444,111.111,319.444,977.778,600.000,N
393,-0.155,0.960,-0.110,158.333,83.333,325.000,652.778,325.000,N
394,-0.210,0.835,-0.110,141.667,102.778,358.333,916.667,263.889,N
395,-0.140,0.905,-0.090,183.333,116.667,313.889,841.667,75.000,N
396,-0.180,0.965,-0.035,116.667,86.111,261.111,766.667,75.000,N
397,-0.070,0.860,-0.030,194.444,111.111,311.111,444.444,322.222,N
398,-0.140,0.725,-0.100,180.556,111.111,272.222,600.000,155.556,N
399,-0.170,0.885,-0.050,69.444,88.889,302.778,641.667,41.667,N
400,-0.160,0.860,-0.045,150.000,100.000,275.000,600.000,41.667,N
401,-0.140,0.835,-0.030,197.222,105.556,291.667,661.111,61.111,N
402,-0.160,0.985,0.000,61.111,83.333,311.111,1133.333,472.222,N
403,-0.135,0.865,-0.040,127.778,80.556,302.778,847.222,286.111,N
404,-0.145,0.670,-0.055,66.667,111.111,275.000,572.222,275.000,N
405,-0.155,0.795,-0.050,66.667,72.222,291.667,802.778,230.556,N
406,-0.160,0.985,-0.025,61.111,86.111,297.222,911.111,108.333,N
407,-0.140,0.810,-0.040,63.889,111.111,291.667,752.778,158.333,N
408,-0.200,0.800,-0.110,91.667,108.333,288.889,791.667,38.889,N
409,-0.205,0.935,-0.120,163.889,111.111,294.444,686.111,105.556,N
410,-0.225,0.770,-0.150,113.889,113.889,311.111,752.778,66.667,N
411,-0.290,0.745,-0.155,58.333,113.889,308.333,888.889,136.111,N
412,-0.230,0.840,-0.130,72.222,80.556,288.889,922.222,33.333,N
413,-0.190,0.785,-0.095,122.222,100.000,269.444,713.889,208.333,N
414,-0.175,0.650,-0.105,66.667,111.111,272.222,544.444,169.444,N
415,-0.265,0.890,-0.120,86.111,88.889,291.667,650.000,105.556,N
416,-0.225,0.775,-0.085,130.556,108.333,338.889,813.889,163.889,N
417,-0.155,0.760,-0.110,86.111,102.778,288.889,722.222,91.667,N
418,-0.170,0.780,-0.080,55.556,77.778,277.778,602.778,119.444,N
419,-0.080,0.910,-0.010,161.111,113.889,291.667,391.667,211.111,N
420,-0.155,0.760,-0.110,102.778,77.778,305.556,672.222,280.556,N
421,-0.185,0.705,-0.100,72.222,100.000,313.889,783.333,111.111,N
422,-0.225,0.820,-0.175,125.000,77.778,291.667,688.889,94.444,N
423,-0.215,0.815,-0.135,188.889,116.667,283.333,619.444,69.444,N
424,-0.210,0.695,-0.110,172.222,113.889,286.111,608.333,11.111,N
425,-0.245,0.745,-0.135,150.000,113.889,302.778,650.000,41.667,N
426,-0.235,0.855,-0.125,175.000,116.667,286.111,619.444,30.556,N
427,-0.190,0.755,-0.080,183.333,116.667,341.667,725.000,105.556,N
428,-0.185,0.775,-0.090,183.333,116.667,322.222,1000.000,275.000,N
429,-0.180,0.990,-0.085,55.556,77.778,305.556,872.222,127.778,N
430,-0.175,0.820,-0.060,102.778,116.667,291.667,597.222,275.000,N
431,-0.150,0.790,-0.065,180.556,113.889,327.778,944.444,347.222,N
432,-0.190,0.875,-0.085,144.444,83.333,277.778,616.667,327.778,N
433,-0.085,0.915,-0.065,150.000,113.889,288.889,375.000,241.667,N
434,-0.240,0.760,-0.150,94.444,116.667,313.889,694.444,319.444,N
435,-0.215,0.645,-0.180,80.556,111.111,288.889,563.889,130.556,N
436,-0.280,0.800,-0.170,88.889,86.111,325.000,863.889,300.000,N
437,-0.240,0.700,-0.140,55.556,100.000,305.556,977.778,113.889,N
438,-0.210,0.810,-0.105,180.556,111.111,291.667,958.333,19.444,N
439,-0.180,0.850,-0.030,194.444,116.667,297.222,916.667,41.667,N
440,-0.135,0.760,-0.025,97.222,111.111,272.222,550.000,366.667,N
441,-0.170,0.855,-0.035,83.333,88.889,308.333,755.556,205.556,N
442,-0.150,0.960,-0.055,58.333,83.333,291.667,672.222,83.333,N
443,-0.140,0.815,-0.030,55.556,102.778,322.222,700.000,27.778,N
444,-0.150,0.750,-0.080,191.667,108.333,283.333,683.333,16.667,N
445,-0.185,0.900,-0.060,194.444,83.333,308.333,769.444,86.111,N
446,-0.060,0.760,-0.040,161.111,113.889,308.333,419.444,350.000,a
447,-0.190,0.800,-0.115,58.333,116.667,319.444,611.111,191.667,N
448,-0.190,0.825,-0.115,77.778,80.556,305.556,852.778,241.667,N
449,-0.190,0.810,-0.135,188.889,100.000,294.444,511.111,341.667,N
450,-0.190,0.750,-0.115,63.889,83.333,275.000,655.556,144.444,N
451,-0.180,0.735,-0.130,111.111,108.333,275.000,616.667,38.889,N
452,-0.210,0.930,-0.065,133.333,88.889,325.000,886.111,269.444,N
453,-0.155,0.870,-0.065,105.556,111.111,325.000,777.778,108.333,N
454,-0.145,0.765,-0.030,197.222,116.667,297.222,702.778,75.000,N
455,-0.155,0.920,-0.050,116.667,100.000,269.444,722.222,19.444,N
456,-0.165,0.905,-0.075,119.444,113.889,288.889,636.111,86.111,N
457,-0.140,0.790,-0.005,80.556,97.222,272.222,894.444,258.333,N
458,-0.110,0.875,-0.040,166.667,86.111,308.333,652.778,241.667,N
459,-0.100,0.890,0.015,191.667,86.111,291.667,1194.444,541.667,N
460,-0.100,0.800,0.005,100.000,116.667,297.222,719.444,475.000,N
461,0.005,0.820,-0.050,161.111,108.333,291.667,427.778,291.667,N
462,-0.190,0.950,-0.080,58.333,83.333,294.444,700.000,272.222,N
463,-0.145,0.785,-0.080,180.556,116.667,327.778,838.889,138.889,N
464,-0.150,0.830,-0.090,152.778,102.778,277.778,872.222,33.333,N
465,-0.185,0.850,-0.085,166.667,80.556,288.889,825.000,47.222,N
466,-0.145,0.810,-0.050,86.111,100.000,255.556,591.667,233.333,N
467,-0.150,0.790,-0.105,152.778,102.778,277.778,616.667,25.000,N
468,-0.225,0.885,-0.110,66.667,91.667,325.000,761.111,144.444,N
469,-0.160,0.890,-0.075,188.889,116.667,322.222,505.556,255.556,N
470,-0.205,0.775,-0.100,130.556,113.889,291.667,744.444,238.889,N
471,-0.200,0.630,-0.170,191.667,108.333,297.222,591.667,152.778,N
472,-0.235,0.850,-0.140,161.111,86.111,297.222,652.778,61.111,N
473,-0.230,0.735,-0.145,183.333,113.889,308.333,658.333,5.556,N
474,-0.165,0.665,-0.150,197.222,111.111,305.556,477.778,180.556,N
475,-0.220,0.620,-0.110,102.778,97.222,261.111,519.444,41.667,N
476,-0.250,0.835,-0.160,197.222,88.889,291.667,719.444,200.000,N
477,-0.160,0.890,-0.165,186.111,105.556,277.778,436.111,283.333,N
478,-0.175,0.725,-0.140,113.889,111.111,288.889,475.000,38.889,N
479,-0.170,0.780,-0.050,152.778,108.333,316.667,1177.778,702.778,N
480,-0.185,0.855,-0.135,194.444,83.333,291.667,669.444,508.333,N
481,-0.135,0.845,-0.165,188.889,113.889,313.889,444.444,225.000,N
482,-0.200,0.740,-0.105,61.111,102.778,308.333,672.222,227.778,N
483,-0.170,0.655,-0.155,108.333,105.556,269.444,513.889,158.333,N
484,-0.210,0.930,-0.080,166.667,69.444,288.889,677.778,163.889,N
485,-0.185,0.790,-0.085,155.556,77.778,308.333,836.111,158.333,N
486,-0.135,0.715,-0.065,122.222,100.000,288.889,700.000,136.111,N
487,-0.145,0.970,-0.050,52.778,77.778,325.000,966.667,266.667,N
488,-0.070,0.915,0.040,152.778,111.111,316.667,1533.333,566.667,N
489,-0.065,1.055,0.090,155.556,75.000,272.222,683.333,850.000,N
490,-0.100,0.940,-0.020,138.889,77.778,288.889,683.333,0.000,N
491,-0.105,0.885,-0.010,147.222,113.889,291.667,622.222,61.111,N
492,-0.095,0.830,0.020,58.333,100.000,291.667,811.111,188.889,N
493,-0.130,0.975,-0.050,111.111,86.111,244.444,722.222,88.889,N
494,-0.125,0.835,-0.020,61.111,83.333,322.222,647.222,75.000,N
495,-0.130,0.785,-0.040,125.000,108.333,272.222,766.667,119.444,N
496,-0.180,0.840,-0.090,47.222,100.000,275.000,622.222,144.444,N
497,-0.220,0.790,-0.070,122.222,83.333,288.889,575.000,47.222,N
498,-0.170,0.690,-0.055,94.444,111.111,275.000,586.111,11.111,N
499,-0.190,0.830,-0.055,77.778,88.889,311.111,1102.778,516.667,N
500,-0.180,0.915,-0.025,66.667,113.889,302.778,855.556,247.222,N
501,-0.150,0.820,-0.070,111.111,116.667,291.667,680.556,175.000,N
502,-0.175,0.760,-0.125,158.333,108.333,302.778,675.000,5.556,N
503,-0.210,0.825,-0.065,63.889,88.889,305.556,611.111,63.889,N
504,-0.190,0.815,-0.105,186.111,116.667,272.222,683.333,72.222,N
505,-0.160,0.820,-0.060,150.000,116.667,302.778,647.222,36.111,N
506,-0.060,0.710,-0.100,161.111,102.778,297.222,405.556,241.667,N
507,-0.205,0.900,-0.025,102.778,86.111,302.778,730.556,325.000,N
508,-0.120,0.835,-0.055,191.667,102.778,275.000,752.778,22.222,N
509,-0.165,0.920,-0.095,188.889,86.111,319.444,1000.000,247.222,N
510,-0.180,0.870,-0.040,188.889,80.556,288.889,652.778,347.222,N
511,-0.150,0.725,-0.090,155.556,102.778,241.667,544.444,108.333,N
512,-0.175,0.710,-0.120,69.444,113.889,325.000,730.556,186.111,N
513,-0.185,0.915,-0.075,88.889,72.222,291.667,816.667,86.111,N
514,-0.110,0.730,-0.040,77.778,102.778,288.889,558.333,258.333,N
515,-0.140,0.730,-0.060,77.778,88.889,277.778,766.667,208.333,N
516,-0.140,0.765,-0.065,63.889,83.333,272.222,602.778,163.889,N
517,-0.180,0.850,-0.100,172.222,88.889,302.778,591.667,11.111,N
518,-0.165,0.765,-0.070,52.778,102.778,291.667,800.000,208.333,N
519,-0.150,0.680,-0.105,172.222,100.000,244.444,616.667,183.333,N
520,-0.195,0.860,-0.040,80.556,86.111,291.667,625.000,8.333,N
521,-0.040,0.845,-0.015,163.889,111.111,305.556,400.000,225.000,N
522,-0.155,0.780,-0.020,66.667,113.889,322.222,672.222,272.222,N
523,-0.135,0.765,0.005,58.333,102.778,325.000,741.667,69.444,N
524,-0.090,0.770,-0.050,113.889,111.111,305.556,536.111,205.556,N
525,-0.160,0.840,-0.055,63.889,69.444,291.667,750.000,213.889,N
526,-0.145,0.780,-0.050,147.222,113.889,308.333,650.000,100.000,N
527,-0.175,0.905,-0.015,61.111,83.333,308.333,930.556,280.556,N
528,-0.085,0.980,0.035,63.889,88.889,308.333,872.222,58.333,N
529,-0.020,0.915,0.070,191.667,100.000,288.889,475.000,397.222,N
530,-0.145,0.830,-0.010,55.556,113.889,330.556,702.778,227.778,N
531,-0.010,0.905,-0.045,150.000,100.000,275.000,441.667,261.111,N
532,-0.175,0.940,-0.110,75.000,77.778,291.667,636.111,194.444,N
533,-0.195,0.700,-0.045,172.222,102.778,297.222,866.667,230.556,N
534,-0.165,0.830,-0.030,186.111,113.889,302.778,730.556,136.111,N
535,-0.120,0.945,-0.050,58.333,86.111,275.000,588.889,141.667,N
536,-0.170,0.775,-0.030,119.444,100.000,275.000,647.222,58.333,N
537,-0.125,0.790,-0.040,191.667,113.889,313.889,888.889,241.667,N
538,-0.160,0.890,-0.080,88.889,77.778,255.556,713.889,175.000,N
539,-0.175,0.785,-0.065,66.667,116.667,322.222,958.333,244.444,N
540,-0.175,0.725,-0.055,105.556,105.556,294.444,741.667,216.667,N
541,-0.175,0.890,-0.025,50.000,69.444,288.889,1008.333,266.667,N
542,-0.120,0.810,-0.010,61.111,111.111,302.778,747.222,261.111,N
543,-0.175,0.780,-0.025,52.778,105.556,286.111,844.444,97.222,N
544,-0.195,0.950,-0.070,63.889,116.667,291.667,675.000,169.444,N
545,-0.155,0.820,-0.060,172.222,105.556,275.000,655.556,19.444,N
546,-0.120,0.665,-0.010,144.444,111.111,291.667,688.889,33.333,N
547,-0.215,0.760,-0.145,108.333,88.889,294.444,733.333,44.444,N
548,-0.210,0.815,-0.120,183.333,116.667,291.667,705.556,27.778,N
549,-0.205,0.740,-0.125,191.667,111.111,294.444,725.000,19.444,N
550,-0.280,0.715,-0.170,175.000,108.333,275.000,616.667,108.333,N
551,-0.185,0.750,-0.030,55.556,111.111,361.111,3716.667,3100.000,j
552,-0.175,0.870,-0.090,58.333,111.111,325.000,2050.000,1666.667,j
553,-0.145,0.905,-0.040,177.778,86.111,311.111,1483.333,566.667,N
554,-0.205,0.965,-0.095,69.444,116.667,336.111,1644.444,161.111,j
555,-0.210,0.930,-0.080,194.444,83.333,308.333,1105.556,538.889,N
556,-0.165,0.985,-0.110,163.889,83.333,308.333,1566.667,461.111,N
557,-0.145,0.825,-0.035,163.889,113.889,288.889,1358.333,208.333,N
558,-0.130,0.130,-0.030,197.222,105.556,305.556,469.444,888.889,a
559,-0.165,0.850,-0.070,105.556,105.556,327.778,1466.667,997.222,N
560,-0.165,0.975,-0.055,166.667,86.111,322.222,1447.222,19.444,N
561,-0.135,0.885,-0.015,169.444,116.667,308.333,1313.889,133.333,N
562,-0.120,0.930,-0.010,161.111,80.556,308.333,1261.111,52.778,N
563,-0.190,0.060,0.455,141.667,77.778,311.111,663.889,597.222,V
564,-0.270,0.830,-0.205,194.444,86.111,333.333,683.333,19.444,N
565,-0.200,0.825,-0.075,180.556,88.889,333.333,1247.222,563.889,N
566,-0.165,0.965,-0.070,166.667,83.333,322.222,1391.667,144.444,N
567,-0.105,0.865,-0.030,158.333,75.000,305.556,1175.000,216.667,N
568,-0.085,0.100,0.445,69.444,58.333,311.111,1033.333,141.667,V
569,-0.175,0.710,-0.110,177.778,80.556,325.000,1266.667,233.333,N
570,-0.195,0.840,-0.110,175.000,75.000,308.333,1230.556,36.111,N
571,-0.185,0.700,-0.090,175.000,80.556,322.222,1191.667,38.889,N
572,-0.190,0.860,-0.075,169.444,86.111,325.000,1155.556,36.111,N
573,-0.155,0.745,-0.070,175.000,83.333,308.333,1141.667,13.889,N
574,-0.195,0.770,-0.055,166.667,86.111,322.222,1158.333,16.667,N
575,-0.120,0.775,-0.015,177.778,83.333,341.667,1227.778,69.444,N
576,-0.155,0.870,-0.040,186.111,91.667,338.889,1288.889,61.111,N
577,-0.135,0.725,-0.025,166.667,83.333,308.333,1191.667,97.222,N
578,-0.175,0.850,-0.005,172.222,77.778,319.444,1230.556,38.889,N
579,-0.120,0.790,-0.030,175.000,111.111,333.333,1261.111,30.556,N
580,-0.155,0.890,-0.005,180.556,77.778,316.667,1361.111,100.000,N
581,-0.150,0.770,-0.015,166.667,80.556,325.000,1341.667,19.444,N
582,-0.080,0.875,0.025,177.778,86.111,311.111,1255.556,86.111,N
583,-0.095,0.825,0.005,163.889,77.778,308.333,1213.889,41.667,N
584,-0.110,0.790,0.000,191.667,91.667,352.778,1233.333,19.444,N
585,-0.110,0.755,-0.035,180.556,83.333,341.667,1319.444,86.111,N
586,-0.115,0.825,0.005,175.000,77.778,305.556,1230.556,88.889,N
587,-0.090,0.765,-0.050,158.333,75.000,305.556,1180.556,50.000,N
588,-0.245,0.085,0.520,52.778,72.222,341.667,977.778,202.778,V
589,-0.200,0.680,-0.160,194.444,83.333,325.000,908.333,69.444,N
590,-0.160,0.085,0.075,150.000,72.222,100.000,436.111,472.222,a
591,-0.130,0.855,-0.025,180.556,86.111,341.667,1516.667,1080.556,N
592,0.165,0.305,-0.010,58.333,116.667,327.778,650.000,866.667,a
593,-0.105,0.865,-0.095,155.556,75.000,227.778,1241.667,591.667,N
594,-0.115,0.830,-0.055,169.444,83.333,341.667,1805.556,563.889,N
595,-0.095,0.835,-0.020,194.444,91.667,325.000,1288.889,516.667,N
596,-0.190,0.155,0.565,58.333,83.333,347.222,1158.333,130.556,V
597,-0.145,0.850,-0.020,194.444,83.333,311.111,786.111,372.222,N
598,-0.070,0.855,-0.015,180.556,83.333,305.556,1186.111,400.000,N
599,0.165,0.365,0.020,58.333,111.111,336.111,575.000,611.111,a
600,-0.045,0.815,0.035,177.778,111.111,308.333,1336.111,761.111,N
601,-0.025,0.870,0.000,172.222,111.111,302.778,1994.444,658.333,N
602,-0.115,-0.075,0.000,183.333,55.556,75.000,227.778,1766.667,x
603,-0.050,0.840,0.010,163.889,83.333,275.000,1630.556,1402.778,N
604,0.945,-0.075,0.010,197.222,58.333,77.778,202.778,1427.778,x
605,-0.110,0.885,-0.035,186.111,83.333,311.111,1625.000,1422.222,N
606,-0.225,-0.115,-0.035,58.333,58.333,83.333,233.333,1391.667,x
607,-0.075,0.800,-0.020,180.556,88.889,341.667,1661.111,1427.778,N
608,-0.115,0.840,-0.025,166.667,88.889,311.111,1180.556,480.556,N
609,0.115,0.200,-0.015,44.444,83.333,308.333,525.000,655.556,a
610,-0.125,0.985,-0.010,155.556,75.000,327.778,1297.222,772.222,N
611,-0.050,0.835,0.030,172.222,113.889,333.333,1216.667,80.556,N
612,-0.070,0.975,0.025,194.444,86.111,358.333,1344.444,127.778,N
613,-0.095,0.800,0.015,188.889,100.000,308.333,1375.000,30.556,N
614,-0.085,0.935,0.005,180.556,88.889,325.000,1241.667,133.333,N
615,-0.125,0.815,-0.020,191.667,80.556,325.000,1294.444,52.778,N
616,-0.075,0.915,0.000,180.556,83.333,325.000,1266.667,27.778,N
617,0.120,-0.105,0.000,197.222,58.333,113.889,213.889,1052.778,x
618,-0.200,0.105,0.540,66.667,66.667,338.889,758.333,544.444,V
619,-0.195,0.915,-0.090,197.222,80.556,341.667,1030.556,272.222,N
620,-0.130,0.740,-0.090,175.000,100.000,305.556,1211.111,180.556,N
621,-0.140,-0.100,-0.180,61.111,97.222,97.222,255.556,955.556,x
622,-0.065,0.775,0.005,180.556,80.556,344.444,1577.778,1322.222,N
623,-0.155,0.860,-0.090,177.778,80.556,358.333,1252.778,325.000,N
624,-0.145,0.805,-0.060,177.778,80.556,341.667,1266.667,13.889,N
625,-0.155,0.755,-0.085,166.667,86.111,325.000,1225.000,41.667,N
626,-0.050,0.255,-0.030,58.333,116.667,330.556,527.778,697.222,a
627,-0.100,0.820,-0.040,169.444,105.556,344.444,1322.222,794.444,N
628,-0.125,0.835,-0.070,180.556,80.556,322.222,1225.000,97.222,N
629,-0.210,0.115,0.535,61.111,86.111,358.333,1002.778,222.222,V
630,-0.195,0.875,-0.090,194.444,88.889,330.556,983.333,19.444,N
631,-0.120,0.810,-0.030,169.444,75.000,302.778,1208.333,225.000,N
632,-0.135,0.860,0.035,161.111,80.556,325.000,1269.444,61.111,N
633,-0.045,0.920,0.020,191.667,83.333,325.000,1286.111,16.667,N
634,-0.165,0.085,0.390,175.000,100.000,350.000,1063.889,222.222,V
635,0.390,0.420,0.090,197.222,111.111,111.111,502.778,561.111,a
636,0.150,0.190,-0.180,50.000,91.667,297.222,475.000,27.778,a
637,-0.270,0.785,-0.170,138.889,116.667,338.889,633.333,158.333,N
638,-0.005,0.215,0.245,58.333,116.667,388.889,472.222,161.111,a
639,0.125,0.260,-0.130,58.333,116.667,319.444,377.778,94.444,a
640,-0.245,0.990,-0.035,66.667,113.889,341.667,661.111,283.333,N
641,-0.065,0.740,-0.130,197.222,116.667,308.333,500.000,161.111,N
642,-0.180,0.705,-0.105,97.222,111.111,308.333,497.222,2.778,N
643,-0.135,0.695,-0.215,186.111,116.667,338.889,488.889,8.333,N
644,-0.215,0.850,-0.160,152.778,100.000,308.333,433.333,55.556,N
645,-0.220,0.745,-0.160,55.556,108.333,358.333,505.556,72.222,N
646,-0.185,0.750,-0.065,136.111,102.778,358.333,713.889,208.333,N
647,0.320,0.290,-0.005,50.000,94.444,288.889,511.111,202.778,a
648,-0.270,0.980,-0.080,58.333,116.667,347.222,663.889,152.778,N
649,-0.105,0.805,-0.150,197.222,116.667,358.333,502.778,161.111,N
650,-0.210,0.775,-0.135,161.111,113.889,325.000,647.222,144.444,N
651,-0.195,0.670,-0.175,136.111,111.111,319.444,538.889,108.333,N
652,-0.240,0.770,-0.175,91.667,102.778,297.222,522.222,16.667,N
653,-0.270,0.755,-0.215,94.444,113.889,308.333,525.000,2.778,N
654,-0.260,0.750,-0.165,180.556,108.333,344.444,613.889,88.889,N
655,-0.250,0.705,-0.155,150.000,116.667,341.667,836.111,222.222,N
656,-0.200,0.735,-0.155,141.667,83.333,305.556,527.778,308.333,N
657,-0.235,0.860,-0.105,133.333,116.667,336.111,741.667,213.889,N
658,-0.150,0.810,-0.145,52.778,100.000,375.000,752.778,11.111,N
659,-0.175,0.745,-0.120,147.222,108.333,286.111,725.000,27.778,N
660,-0.120,0.850,-0.170,183.333,116.667,302.778,436.111,288.889,N
661,-0.215,0.780,-0.120,75.000,105.556,291.667,591.667,155.556,N
662,-0.180,0.735,-0.125,55.556,97.222,302.778,513.889,77.778,N
663,-0.245,0.725,-0.160,194.444,116.667,344.444,711.111,197.222,N
664,-0.240,0.875,-0.115,197.222,88.889,341.667,761.111,50.000,N
665,-0.115,0.940,-0.085,161.111,111.111,325.000,447.222,313.889,N
666,-0.175,0.820,-0.135,166.667,113.889,325.000,555.556,108.333,N
667,-0.195,0.800,-0.100,63.889,113.889,311.111,833.333,277.778,N
668,-0.185,0.930,-0.150,63.889,111.111,302.778,613.889,219.444,N
669,-0.150,0.935,-0.110,163.889,113.889,302.778,419.444,194.444,N
670,-0.170,0.750,-0.045,58.333,100.000,313.889,725.000,305.556,N
671,-0.090,0.685,-0.135,191.667,100.000,288.889,500.000,225.000,N
672,-0.205,0.895,-0.090,113.889,80.556,319.444,705.556,205.556,N
673,-0.135,0.785,-0.085,172.222,111.111,297.222,541.667,163.889,N
674,-0.130,0.825,-0.065,69.444,116.667,319.444,600.000,58.333,N
675,-0.080,0.800,-0.055,194.444,113.889,288.889,477.778,122.222,N
676,-0.105,0.795,-0.095,194.444,100.000,336.111,458.333,19.444,N
677,-0.095,0.775,-0.150,105.556,102.778,308.333,397.222,61.111,N
678,-0.215,0.770,-0.080,130.556,86.111,336.111,561.111,163.889,N
679,-0.150,0.715,-0.125,130.556,111.111,305.556,597.222,36.111,N
680,-0.190,0.745,-0.105,55.556,105.556,311.111,727.778,130.556,N
681,-0.105,0.395,0.095,133.333,105.556,105.556,397.222,330.556,a
682,0.125,0.335,-0.065,58.333,116.667,286.111,416.667,19.444,a
683,-0.180,0.785,-0.085,58.333,100.000,311.111,555.556,138.889,N
684,-0.205,0.715,-0.165,183.333,116.667,222.222,638.889,83.333,N
685,-0.175,0.895,-0.045,77.778,80.556,319.444,1197.222,558.333,N
686,-0.160,0.775,-0.045,55.556,105.556,311.111,944.444,252.778,N
687,-0.220,0.900,-0.115,69.444,86.111,305.556,861.111,83.333,N
688,-0.115,0.345,0.130,155.556,105.556,105.556,402.778,458.333,a
689,-0.215,0.765,-0.110,166.667,116.667,322.222,827.778,425.000,N
690,-0.185,0.590,-0.080,197.222,100.000,288.889,561.111,266.667,N
691,-0.080,0.895,-0.150,155.556,102.778,294.444,394.444,166.667,N
692,-0.270,0.910,-0.085,100.000,116.667,325.000,694.444,300.000,N
693,-0.085,0.890,-0.130,152.778,100.000,338.889,419.444,275.000,N
694,-0.130,0.705,-0.125,172.222,97.222,369.444,469.444,50.000,N
695,-0.125,0.695,-0.190,105.556,100.000,288.889,430.556,38.889,N
696,-0.195,0.865,-0.025,130.556,83.333,336.111,1597.222,1166.667,N
697,-0.170,0.925,0.045,63.889,116.667,327.778,1966.667,369.444,j
698,-0.120,0.805,-0.025,175.000,80.556,311.111,941.667,1025.000,N
699,-0.155,0.825,0.005,58.333,113.889,380.556,2011.111,1069.444,j
700,-0.185,0.795,-0.040,188.889,102.778,291.667,616.667,1394.444,A
701,-0.140,0.880,0.055,58.333,105.556,344.444,1836.111,1219.444,j
702,-0.120,0.745,-0.065,197.222,108.333,286.111,552.778,1283.333,A
703,-0.150,0.910,-0.075,172.222,86.111,319.444,1094.444,541.667,N
704,-0.130,0.770,0.005,172.222,100.000,305.556,1352.778,258.333,N
705,-0.215,0.115,0.630,66.667,86.111,341.667,908.333,444.444,V
706,-0.210,0.815,-0.140,197.222,105.556,311.111,575.000,333.333,J
707,-0.150,0.795,-0.055,177.778,86.111,294.444,1127.778,552.778,N
708,0.820,-0.120,-0.055,194.444,58.333,97.222,197.222,930.556,x
709,-0.045,0.850,-0.015,183.333,88.889,291.667,1650.000,1452.778,N
710,0.465,-0.115,-0.015,197.222,50.000,75.000,208.333,1441.667,x
711,-0.075,0.865,-0.020,194.444,83.333,305.556,1738.889,1530.556,N
712,-0.145,-0.030,-0.070,61.111,116.667,125.000,236.111,1502.778,x
713,-0.075,0.880,-0.035,177.778,86.111,308.333,1697.222,1461.111,N
714,0.920,-0.080,-0.035,197.222,55.556,108.333,200.000,1497.222,x
715,-0.065,0.980,0.020,169.444,86.111,288.889,1605.556,1405.556,N
716,0.920,-0.070,0.020,197.222,58.333,86.111,202.778,1402.778,x
717,-0.070,0.940,-0.020,194.444,91.667,330.556,1702.778,1500.000,N
718,-0.200,-0.065,-0.020,58.333,61.111,86.111,244.444,1458.333,x
719,-0.045,0.805,0.030,177.778,108.333,297.222,1672.222,1427.778,N
720,-0.150,-0.025,0.030,197.222,58.333,77.778,225.000,1447.222,x
721,0.005,0.910,0.030,175.000,83.333,322.222,1577.778,1352.778,N
722,0.950,-0.090,0.030,188.889,58.333,136.111,191.667,1386.111,x
723,-0.010,0.925,0.065,183.333,91.667,338.889,1697.222,1505.556,N
724,-0.135,-0.025,0.065,183.333,58.333,111.111,227.778,1469.444,x
725,-0.020,0.880,0.070,188.889,80.556,327.778,1761.111,1533.333,N
726,-0.090,0.020,0.000,58.333,111.111,111.111,250.000,1511.111,x
727,0.000,0.795,0.040,169.444,116.667,325.000,1594.444,1344.444,N
728,-0.080,0.965,0.030,169.444,72.222,313.889,1133.333,461.111,N
729,-0.230,0.115,0.475,100.000,75.000,347.222,930.556,202.778,V
730,-0.225,0.965,-0.090,188.889,91.667,325.000,755.556,175.000,N
731,-0.045,0.870,0.025,169.444,111.111,325.000,1497.222,741.667,N
732,-0.040,0.025,-0.165,61.111,102.778,102.778,269.444,1227.778,x
733,-0.005,0.840,0.060,169.444,113.889,336.111,1616.667,1347.222,N
734,-0.090,0.945,0.015,177.778,86.111,338.889,1177.778,438.889,N
735,-0.180,0.140,0.515,58.333,80.556,358.333,844.444,333.333,V
736,-0.070,0.990,0.055,175.000,88.889,355.556,1577.778,733.333,N
737,-0.010,0.845,0.040,172.222,80.556,327.778,1186.111,391.667,N
738,-0.185,0.160,0.505,52.778,69.444,311.111,844.444,341.667,V
739,-0.070,0.800,-0.005,186.111,88.889,355.556,1450.000,605.556,N
740,-0.105,0.975,0.015,180.556,88.889,341.667,1180.556,269.444,N
741,-0.145,0.290,0.575,55.556,77.778,358.333,1008.333,172.222,V
742,-0.100,0.945,-0.010,172.222,83.333,341.667,1336.111,327.778,N
743,-0.045,0.830,0.020,177.778,113.889,325.000,1141.667,194.444,N
744,-0.205,0.205,0.525,77.778,80.556,341.667,958.333,183.333,V
745,-0.040,0.865,0.040,188.889,83.333,361.111,1330.556,372.222,N
746,-0.060,1.035,0.035,180.556,88.889,355.556,1258.333,72.222,N
747,-0.165,0.185,0.555,58.333,77.778,341.667,958.333,300.000,V
748,-0.095,0.955,-0.005,163.889,75.000,308.333,1347.222,388.889,N
749,-0.050,0.880,0.050,175.000,113.889,338.889,1125.000,222.222,N
750,-0.195,0.160,0.545,66.667,88.889,358.333,1000.000,125.000,V
751,-0.025,0.855,0.080,172.222,91.667,352.778,1405.556,405.556,N
752,-0.120,0.900,-0.005,177.778,80.556,322.222,1241.667,163.889,N
753,-0.220,0.230,0.530,61.111,83.333,325.000,952.778,288.889,V
754,-0.140,0.945,-0.005,169.444,77.778,327.778,1288.889,336.111,N
755,-0.080,0.865,0.035,188.889,111.111,341.667,1172.222,116.667,N
756,0.135,0.275,0.040,47.222,88.889,344.444,561.111,611.111,a
757,-0.025,0.930,0.070,175.000,80.556,338.889,1452.778,891.667,N
758,-0.060,0.880,-0.005,172.222,88.889,325.000,1175.000,277.778,N
759,-0.185,0.155,0.670,61.111,83.333,338.889,913.889,261.111,V
760,-0.090,0.830,0.005,191.667,102.778,316.667,975.000,61.111,N
761,-0.095,0.920,0.025,175.000,80.556,344.444,1219.444,244.444,N
762,-0.190,0.125,0.480,47.222,66.667,344.444,955.556,263.889,V
763,-0.235,0.855,-0.085,175.000,77.778,325.000,825.000,130.556,N
764,-0.050,0.800,0.065,172.222,80.556,338.889,1502.778,677.778,N
765,-0.055,0.955,0.015,175.000,83.333,327.778,1202.778,300.000,N
766,-0.055,0.860,0.035,180.556,86.111,341.667,1266.667,63.889,N
767,-0.225,0.060,0.495,72.222,77.778,341.667,927.778,338.889,V
768,-0.240,0.815,-0.095,175.000,75.000,330.556,797.222,130.556,N
769,-0.080,0.920,0.035,172.222,77.778,327.778,1466.667,669.444,N
770,-0.075,0.870,0.045,175.000,86.111,319.444,1183.333,283.333,N
771,-0.055,0.805,0.035,172.222,72.222,322.222,1200.000,16.667,N
772,-0.175,0.145,0.580,72.222,80.556,361.111,916.667,283.333,V
773,-0.170,0.765,-0.030,191.667,105.556,344.444,836.111,80.556,N
774,-0.040,0.960,0.080,161.111,77.778,322.222,1469.444,633.333,N
775,-0.040,0.815,0.050,177.778,100.000,319.444,1166.667,302.778,N
776,-0.070,0.945,0.080,177.778,83.333,341.667,1188.889,22.222,N
777,-0.180,0.140,0.520,77.778,75.000,341.667,944.444,244.444,V
778,-0.210,0.870,-0.060,180.556,86.111,327.778,836.111,108.333,N
779,-0.010,0.860,0.115,180.556,113.889,341.667,1550.000,713.889,N
780,-0.015,0.980,0.085,175.000,75.000,322.222,1261.111,288.889,N
781,-0.010,0.805,0.090,169.444,102.778,325.000,1183.333,77.778,N
782,-0.215,0.085,0.470,47.222,69.444,325.000,905.556,277.778,V
783,-0.055,0.815,0.045,188.889,91.667,355.556,1625.000,719.444,N
784,-0.090,0.895,0.025,172.222,80.556,319.444,1213.889,411.111,N
785,-0.175,0.145,0.575,63.889,83.333,341.667,844.444,369.444,V
786,-0.100,0.830,-0.015,166.667,88.889,344.444,1452.778,608.333,N
787,-0.095,0.855,0.030,175.000,86.111,352.778,1152.778,300.000,N
788,-0.230,0.210,0.465,80.556,86.111,358.333,1030.556,122.222,V
789,-0.100,0.795,0.010,175.000,80.556,327.778,1327.778,297.222,N
790,-0.190,0.815,-0.045,166.667,75.000,311.111,1161.111,166.667,N
791,-0.245,0.040,0.475,58.333,83.333,327.778,888.889,272.222,V
792,-0.120,0.875,0.000,191.667,83.333,344.444,1463.889,575.000,N
793,-0.095,0.815,0.040,186.111,113.889,336.111,1280.556,183.333,N
794,-0.100,0.945,0.050,180.556,83.333,338.889,1261.111,19.444,N
795,-0.055,0.815,0.080,177.778,80.556,327.778,1211.111,50.000,N
796,-0.100,0.885,0.050,175.000,80.556,325.000,1247.222,36.111,N
797,-0.060,0.790,0.075,177.778,102.778,344.444,1250.000,2.778,N
798,-0.070,0.945,0.085,188.889,91.667,372.222,1297.222,47.222,N
799,-0.060,0.820,0.040,177.778,102.778,322.222,1250.000,47.222,N
800,-0.115,0.940,0.035,172.222,77.778,327.778,1136.111,113.889,N
801,-0.100,0.820,0.045,175.000,75.000,344.444,1161.111,25.000,N
802,-0.090,0.935,0.045,186.111,88.889,355.556,1247.222,86.111,N
803,-0.030,0.835,0.060,175.000,102.778,327.778,1205.556,41.667,N
804,-0.215,0.130,0.525,83.333,86.111,358.333,908.333,297.222,V
805,-0.100,0.760,0.010,163.889,69.444,308.333,1416.667,508.333,N
806,0.000,0.295,-0.010,58.333,116.667,327.778,561.111,855.556,a
807,-0.085,0.865,0.020,175.000,80.556,358.333,1244.444,683.333,N
808,-0.015,0.925,0.035,188.889,83.333,358.333,1238.889,5.556,N
809,-0.010,0.905,0.105,180.556,116.667,325.000,1238.889,0.000,N
810,-0.130,0.170,0.590,100.000,86.111,341.667,933.333,305.556,V
811,0.005,0.900,0.115,172.222,77.778,338.889,1388.889,455.556,N
812,-0.025,0.980,0.060,186.111,88.889,341.667,1227.778,161.111,N
813,-0.120,0.220,0.625,55.556,75.000,355.556,888.889,338.889,V
814,-0.005,0.880,0.050,169.444,88.889,355.556,1530.556,641.667,N
815,-0.010,0.915,0.130,177.778,113.889,341.667,1183.333,347.222,N
816,-0.120,0.250,0.595,144.444,80.556,344.444,925.000,258.333,V
817,-0.020,0.880,0.110,169.444,116.667,355.556,1338.889,413.889,N
818,-0.045,0.965,0.035,180.556,88.889,358.333,1247.222,91.667,N
819,-0.185,0.240,0.565,55.556,80.556,355.556,1011.111,236.111,V
820,-0.085,0.875,0.025,172.222,77.778,313.889,1330.556,319.444,N
821,-0.035,0.915,0.090,172.222,83.333,341.667,1152.778,177.778,N
822,-0.205,0.095,0.500,172.222,77.778,338.889,950.000,202.778,V
823,-0.190,0.880,-0.040,194.444,86.111,325.000,697.222,252.778,N
824,-0.125,0.730,-0.015,188.889,80.556,361.111,1516.667,819.444,N
825,-0.130,0.885,0.045,175.000,77.778,338.889,1236.111,280.556,N
826,-0.055,0.790,0.045,166.667,86.111,327.778,1136.111,100.000,N
827,-0.185,0.160,0.555,52.778,69.444,325.000,938.889,197.222,V
828,-0.070,0.775,0.005,188.889,113.889,369.444,1452.778,513.889,N
829,-0.115,0.890,0.030,188.889,77.778,344.444,1266.667,186.111,N
830,-0.175,0.135,0.535,50.000,69.444,341.667,927.778,338.889,V
831,-0.100,0.845,0.025,161.111,75.000,322.222,1391.667,463.889,N
832,-0.075,0.760,-0.010,166.667,116.667,341.667,1108.333,283.333,N
833,-0.205,0.180,0.520,55.556,86.111,377.778,1011.111,97.222,V
834,-0.070,0.785,0.015,186.111,116.667,355.556,1325.000,313.889,N
835,-0.090,0.945,0.055,169.444,83.333,325.000,1241.667,83.333,N
836,-0.155,0.155,0.570,130.556,83.333,338.889,902.778,338.889,V
837,-0.115,0.830,-0.015,175.000,80.556,338.889,1347.222,444.444,N
838,-0.105,0.790,0.000,183.333,80.556,338.889,1183.333,163.889,N
839,-0.235,0.175,0.465,55.556,86.111,361.111,1030.556,152.778,V
840,-0.075,0.830,0.055,169.444,105.556,336.111,1347.222,316.667,N
841,-0.080,0.985,0.075,180.556,86.111,338.889,1194.444,152.778,N
842,-0.170,0.130,0.535,58.333,77.778,341.667,891.667,302.778,V
843,-0.080,0.955,0.055,183.333,80.556,358.333,1413.889,522.222,N
844,-0.035,0.815,0.090,180.556,111.111,358.333,1236.111,177.778,N
845,-0.170,0.230,0.550,52.778,75.000,341.667,1013.889,222.222,V
846,-0.050,0.780,0.045,177.778,100.000,319.444,1269.444,255.556,N
847,-0.115,0.840,-0.005,166.667,83.333,338.889,1138.889,130.556,N
848,-0.215,0.135,0.515,125.000,75.000,341.667,941.667,197.222,V
849,-0.090,0.780,-0.005,180.556,86.111,355.556,1358.333,416.667,N
850,-0.065,0.795,0.050,191.667,83.333,344.444,1227.778,130.556,N
851,-0.210,0.155,0.510,108.333,75.000,344.444,947.222,280.556,V
852,-0.110,0.850,0.020,163.889,83.333,327.778,1222.222,275.000,N
853,-0.070,0.750,0.030,169.444,80.556,338.889,1144.444,77.778,N
854,-0.215,0.140,0.565,55.556,75.000,361.111,947.222,197.222,V
855,-0.060,0.775,0.040,177.778,116.667,355.556,1330.556,383.333,N
856,-0.070,0.860,0.085,169.444,77.778,325.000,1219.444,111.111,N
857,-0.170,0.135,0.510,83.333,86.111,355.556,861.111,358.333,V
858,-0.080,0.875,0.065,163.889,83.333,322.222,1433.333,572.222,N
859,-0.090,0.795,0.045,183.333,83.333,358.333,1197.222,236.111,N
860,-0.190,0.150,0.580,63.889,86.111,377.778,952.778,244.444,V
861,-0.060,0.785,0.045,169.444,113.889,327.778,1463.889,511.111,N
862,-0.100,0.840,0.050,166.667,86.111,322.222,1138.889,325.000,N
863,-0.205,0.075,0.520,183.333,88.889,361.111,880.556,258.333,V
864,-0.145,0.875,0.015,180.556,86.111,361.111,1430.556,550.000,N
865,-0.060,0.820,0.040,191.667,108.333,344.444,1161.111,269.444,N
866,-0.215,0.200,0.510,55.556,80.556,338.889,1036.111,125.000,V
867,-0.100,0.715,0.015,175.000,111.111,344.444,1300.000,263.889,N
868,-0.140,0.895,0.050,172.222,80.556,336.111,1186.111,113.889,N
869,-0.175,0.140,0.535,61.111,86.111,361.111,883.333,302.778,V
870,-0.095,0.930,0.065,183.333,75.000,338.889,1588.889,705.556,N
871,-0.095,0.735,0.020,169.444,116.667,327.778,1197.222,391.667,N
872,-0.255,0.070,0.460,47.222,66.667,325.000,880.556,316.667,V
873,-0.105,0.710,0.020,172.222,100.000,341.667,1394.444,513.889,N
874,-0.105,0.890,0.020,177.778,80.556,338.889,1200.000,194.444,N
875,-0.200,0.185,0.525,52.778,75.000,355.556,947.222,252.778,V
876,-0.110,0.850,0.005,180.556,83.333,355.556,1338.889,391.667,N
877,-0.095,0.755,0.015,166.667,113.889,341.667,1166.667,172.222,N
878,-0.225,0.085,0.495,100.000,69.444,338.889,855.556,311.111,V
879,-0.070,0.815,0.060,172.222,80.556,338.889,1294.444,438.889,N
880,-0.100,0.820,0.005,183.333,86.111,369.444,1238.889,55.556,N
881,-0.185,0.135,0.595,47.222,69.444,338.889,916.667,322.222,V
882,-0.070,0.735,0.025,163.889,83.333,341.667,1327.778,411.111,N
883,-0.065,0.885,0.090,172.222,86.111,336.111,1175.000,152.778,N
884,-0.155,0.120,0.550,122.222,88.889,355.556,850.000,325.000,V
885,-0.035,0.865,0.080,175.000,83.333,358.333,1438.889,588.889,N
886,-0.090,0.760,0.015,183.333,88.889,358.333,1238.889,200.000,N
887,-0.235,0.090,0.515,113.889,83.333,352.778,880.556,358.333,V
888,-0.040,0.765,0.070,166.667,102.778,308.333,1405.556,525.000,N
889,-0.070,0.950,0.090,183.333,83.333,350.000,1136.111,269.444,N
890,-0.145,0.175,0.570,61.111,77.778,358.333,922.222,213.889,V
891,-0.055,0.940,0.060,172.222,88.889,352.778,1461.111,538.889,N
892,-0.040,0.820,0.095,169.444,113.889,325.000,1177.778,283.333,N
893,-0.185,0.110,0.535,55.556,77.778,338.889,872.222,305.556,V
894,-0.050,0.820,0.050,169.444,86.111,341.667,1277.778,405.556,N
895,0.035,0.255,-0.005,58.333,116.667,341.667,550.000,727.778,a
896,-0.125,0.865,-0.005,183.333,86.111,375.000,1263.889,713.889,N
897,-0.100,0.770,-0.035,183.333,83.333,338.889,1216.667,47.222,N
898,-0.220,0.180,0.535,58.333,75.000,338.889,944.444,272.222,V
899,-0.080,0.705,0.015,169.444,100.000,305.556,1227.778,283.333,N
900,0.005,0.290,0.005,58.333,116.667,341.667,513.889,713.889,a
901,-0.120,0.795,0.005,186.111,116.667,361.111,1313.889,800.000,N
902,-0.120,0.855,0.015,177.778,83.333,341.667,1213.889,100.000,N
903,-0.065,0.790,0.045,180.556,111.111,355.556,1200.000,13.889,N
904,-0.195,0.135,0.510,144.444,69.444,325.000,916.667,283.333,V
905,-0.025,0.850,0.090,175.000,111.111,341.667,1380.556,463.889,N
906,-0.100,0.935,0.025,183.333,83.333,338.889,1188.889,191.667,N
907,-0.185,0.130,0.535,55.556,75.000,352.778,888.889,300.000,V
908,-0.085,0.930,0.000,169.444,86.111,344.444,1430.556,541.667,N
909,0.010,0.290,0.050,58.333,116.667,325.000,550.000,880.556,a
910,-0.065,0.860,0.010,175.000,113.889,352.778,1202.778,652.778,N
911,-0.120,0.825,-0.015,169.444,86.111,358.333,1125.000,77.778,N
912,-0.115,0.740,-0.045,186.111,80.556,344.444,1177.778,52.778,N
913,-0.250,0.105,0.520,55.556,75.000,341.667,963.889,213.889,V
914,-0.055,0.795,0.005,177.778,80.556,338.889,1341.667,377.778,N
915,-0.050,0.315,0.085,197.222,108.333,108.333,511.111,830.556,a
916,-0.055,0.855,0.060,161.111,108.333,327.778,1269.444,758.333,N
917,-0.095,0.865,0.015,180.556,88.889,355.556,1158.333,111.111,N
918,-0.055,0.810,0.075,188.889,83.333,361.111,1275.000,116.667,N
919,-0.185,0.120,0.520,41.667,61.111,341.667,897.222,377.778,V
920,-0.035,0.775,0.020,161.111,105.556,338.889,1536.111,638.889,N
921,-0.115,0.845,-0.005,175.000,88.889,338.889,1191.667,344.444,N
922,-0.040,0.750,0.080,177.778,83.333,358.333,1875.000,683.333,N
923,-0.055,0.855,0.080,194.444,80.556,355.556,1250.000,625.000,N
924,-0.085,0.775,0.020,172.222,72.222,308.333,1227.778,22.222,N
925,-0.215,0.105,0.535,77.778,80.556,325.000,822.222,405.556,V
926,-0.090,0.740,0.020,172.222,77.778,341.667,1427.778,605.556,N
927,-0.085,0.850,0.060,186.111,77.778,325.000,1233.333,194.444,N
928,0.225,0.270,0.065,44.444,83.333,338.889,552.778,680.556,a
929,-0.090,0.885,0.015,175.000,80.556,355.556,1366.667,813.889,N
930,-0.100,0.785,0.015,172.222,113.889,322.222,1194.444,172.222,N
931,-0.105,0.855,0.010,161.111,80.556,313.889,1172.222,22.222,N
932,-0.180,0.130,0.610,66.667,86.111,347.222,738.889,433.333,V
933,-0.125,0.715,-0.045,186.111,116.667,361.111,1183.333,444.444,N
934,-0.120,0.850,0.010,191.667,80.556,355.556,1291.667,108.333,N
935,-0.245,0.045,0.505,144.444,77.778,336.111,836.111,455.556,V
936,0.240,0.800,-0.145,197.222,83.333,305.556,522.222,313.889,N
937,-0.125,0.820,0.040,177.778,80.556,338.889,1013.889,491.667,N
938,-0.110,0.805,-0.065,172.222,75.000,338.889,1208.333,194.444,N
939,-0.230,0.325,0.115,58.333,111.111,111.111,569.444,638.889,a
940,-0.095,0.790,-0.005,183.333,86.111,358.333,1375.000,805.556,N
941,-0.125,0.855,0.020,183.333,83.333,347.222,1222.222,152.778,N
942,-0.060,0.765,0.010,166.667,86.111,325.000,1194.444,27.778,N
943,-0.215,0.100,0.510,94.444,63.889,308.333,844.444,350.000,V
944,-0.060,0.775,-0.015,188.889,91.667,372.222,1511.111,666.667,N
945,-0.105,0.785,0.040,194.444,86.111,358.333,1275.000,236.111,N
946,-0.075,0.810,-0.005,172.222,72.222,308.333,1225.000,50.000,N
947,-0.200,0.120,0.570,61.111,80.556,325.000,805.556,419.444,V
948,-0.020,0.810,0.070,175.000,83.333,338.889,1516.667,711.111,N
949,-0.065,0.900,0.085,186.111,86.111,341.667,1172.222,344.444,N
950,-0.040,0.800,0.040,186.111,88.889,355.556,1202.778,30.556,N
951,-0.195,0.240,0.585,61.111,77.778,338.889,1027.778,175.000,V
952,-0.040,0.735,0.050,158.333,111.111,330.556,1330.556,302.778,N
953,-0.090,0.915,0.090,175.000,80.556,325.000,1147.222,183.333,N
954,-0.075,0.775,0.025,175.000,102.778,338.889,1200.000,52.778,N
955,-0.215,0.110,0.555,61.111,80.556,361.111,1019.444,180.556,V
956,-0.155,0.900,-0.005,194.444,113.889,338.889,736.111,283.333,N
957,-0.070,0.950,0.005,175.000,80.556,344.444,1430.556,694.444,N
958,-0.085,0.845,0.025,172.222,116.667,341.667,1172.222,258.333,N
959,-0.140,0.795,-0.030,177.778,80.556,325.000,1175.000,2.778,N
960,-0.205,0.145,0.580,52.778,72.222,341.667,944.444,230.556,V
961,-0.080,0.750,0.005,180.556,83.333,352.778,1455.556,511.111,N
962,-0.070,0.840,0.070,175.000,80.556,327.778,1169.444,286.111,N
963,-0.190,0.135,0.490,55.556,77.778,327.778,897.222,272.222,V
964,-0.130,0.840,-0.015,177.778,83.333,344.444,1352.778,455.556,N
965,-0.125,0.660,-0.040,183.333,86.111,341.667,1205.556,147.222,N
966,-0.255,0.055,0.510,63.889,80.556,352.778,927.778,277.778,V
967,-0.125,0.675,-0.040,172.222,80.556,338.889,1366.667,438.889,N
968,-0.135,0.815,0.025,175.000,77.778,325.000,1180.556,186.111,N
969,-0.230,0.065,0.490,72.222,75.000,327.778,830.556,350.000,V
970,-0.125,0.835,0.030,177.778,83.333,377.778,1405.556,575.000,N
971,-0.095,0.760,0.010,183.333,80.556,341.667,1247.222,158.333,N
972,-0.230,0.075,0.510,47.222,66.667,330.556,905.556,341.667,V
973,-0.090,0.760,0.050,163.889,100.000,311.111,1394.444,488.889,N
974,-0.080,0.910,0.095,175.000,77.778,341.667,1163.889,230.556,N
975,-0.150,0.135,0.530,150.000,63.889,338.889,891.667,272.222,V
976,-0.075,0.845,0.065,177.778,83.333,358.333,1527.778,636.111,N
977,-0.095,0.790,0.030,177.778,102.778,322.222,1233.333,294.444,N
978,-0.235,0.075,0.515,50.000,69.444,325.000,888.889,344.444,V
979,-0.030,0.815,0.085,163.889,80.556,338.889,1363.889,475.000,N
980,-0.065,0.900,0.035,191.667,83.333,358.333,1177.778,186.111,N
981,-0.180,0.210,0.525,75.000,77.778,361.111,983.333,194.444,V
982,-0.130,0.840,-0.030,172.222,80.556,325.000,1336.111,352.778,N
983,-0.095,0.800,0.050,172.222,100.000,325.000,1125.000,211.111,N
984,-0.195,0.150,0.505,66.667,72.222,336.111,933.333,191.667,V
985,-0.060,0.870,0.080,169.444,113.889,355.556,1250.000,316.667,N
986,-0.095,0.855,0.025,188.889,77.778,327.778,1219.444,30.556,N
987,-0.210,0.220,0.535,63.889,83.333,355.556,975.000,244.444,V
988,-0.120,0.765,-0.005,163.889,86.111,325.000,1283.333,308.333,N
989,-0.085,0.840,0.075,166.667,102.778,316.667,1122.222,161.111,N
990,-0.175,0.165,0.505,94.444,80.556,355.556,938.889,183.333,V
991,-0.060,0.885,0.085,180.556,80.556,341.667,1433.333,494.444,N
992,-0.080,0.745,-0.005,175.000,88.889,352.778,1180.556,252.778,N
993,-0.255,0.170,0.535,61.111,80.556,344.444,972.222,208.333,V
994,-0.085,0.730,0.035,166.667,86.111,338.889,1319.444,347.222,N
995,-0.120,0.845,0.070,177.778,80.556,325.000,1150.000,169.444,N
996,-0.210,0.145,0.530,50.000,72.222,358.333,922.222,227.778,V
997,-0.140,0.830,0.020,175.000,86.111,355.556,1444.444,522.222,N
998,-0.110,0.710,0.020,169.444,108.333,325.000,1161.111,283.333,N
999,-0.260,0.060,0.470,58.333,80.556,338.889,900.000,261.111,V
1000,-0.105,0.775,0.025,169.444,116.667,352.778,1261.111,361.111,N
1001,-0.130,0.895,0.020,169.444,91.667,355.556,1213.889,47.222,N
1002,-0.180,0.185,0.555,69.444,86.111,352.778,936.111,277.778,V
1003,-0.100,0.910,-0.015,177.778,80.556,355.556,1355.556,419.444,N
1004,-0.080,0.750,0.040,175.000,108.333,325.000,1147.222,208.333,N
1005,-0.235,0.125,0.465,147.222,80.556,338.889,888.889,258.333,V
1006,-0.130,0.820,0.035,169.444,77.778,344.444,1291.667,402.778,N
1007,-0.080,0.810,0.055,194.444,83.333,355.556,1238.889,52.778,N
1008,-0.195,0.115,0.550,55.556,77.778,344.444,947.222,291.667,V
1009,-0.035,0.850,0.080,166.667,116.667,341.667,1358.333,411.111,N
1010,-0.080,0.880,0.075,166.667,86.111,322.222,1169.444,188.889,N
1011,-0.160,0.140,0.565,69.444,77.778,330.556,869.444,300.000,V
1012,-0.085,0.910,0.045,180.556,86.111,358.333,1375.000,505.556,N
1013,-0.115,0.765,0.015,188.889,113.889,344.444,1197.222,177.778,N
1014,-0.225,0.125,0.550,63.889,80.556,338.889,936.111,261.111,V
1015,-0.070,0.790,0.035,161.111,108.333,322.222,1230.556,294.444,N
1016,-0.140,0.890,0.000,177.778,86.111,361.111,1161.111,69.444,N
1017,-0.175,0.140,0.545,44.444,66.667,338.889,872.222,288.889,V
1018,-0.120,0.820,-0.015,183.333,88.889,352.778,1425.000,552.778,N
1019,-0.110,0.705,0.010,172.222,113.889,322.222,1180.556,244.444,N
1020,-0.245,0.075,0.480,88.889,75.000,325.000,855.556,325.000,V
1021,-0.080,0.810,0.060,166.667,86.111,358.333,1411.111,555.556,N
1022,-0.080,0.785,0.030,180.556,83.333,344.444,1191.667,219.444,N
1023,-0.185,0.175,0.585,69.444,88.889,388.889,908.333,283.333,V
1024,-0.050,0.830,0.075,169.444,111.111,336.111,1519.444,611.111,N
1025,-0.035,0.910,0.120,169.444,86.111,344.444,1113.889,405.556,N
1026,-0.140,0.145,0.560,47.222,66.667,336.111,830.556,283.333,V
1027,-0.070,0.940,0.055,186.111,77.778,341.667,1405.556,575.000,N
1028,-0.055,0.770,0.095,177.778,80.556,338.889,1208.333,197.222,N
1029,-0.175,0.120,0.570,102.778,72.222,352.778,905.556,302.778,V
1030,-0.030,0.880,0.080,166.667,116.667,341.667,1363.889,458.333,N
1031,-0.070,0.880,0.050,166.667,88.889,338.889,1136.111,227.778,N
1032,-0.150,0.150,0.570,72.222,77.778,355.556,872.222,263.889,V
1033,-0.045,0.835,0.045,186.111,80.556,355.556,1413.889,541.667,N
1034,-0.040,0.890,0.140,169.444,116.667,338.889,1230.556,183.333,N
1035,-0.145,0.155,0.545,63.889,66.667,322.222,877.778,352.778,V
1036,-0.090,0.800,0.025,177.778,80.556,341.667,1361.111,483.333,N
1037,-0.140,0.745,-0.025,183.333,86.111,338.889,1175.000,186.111,N
1038,-0.250,0.095,0.505,58.333,80.556,355.556,905.556,269.444,V
1039,-0.075,0.795,0.035,172.222,113.889,355.556,1394.444,488.889,N
1040,-0.135,0.885,0.040,172.222,86.111,336.111,1219.444,175.000,N
1041,-0.170,0.155,0.555,105.556,72.222,336.111,783.333,436.111,V
1042,-0.090,0.855,0.015,169.444,80.556,341.667,1336.111,552.778,N
1043,-0.095,0.780,0.045,183.333,102.778,341.667,1180.556,155.556,N
1044,-0.200,0.140,0.560,69.444,75.000,338.889,966.667,213.889,V
1045,0.005,0.905,0.125,172.222,113.889,336.111,1283.333,316.667,N
1046,-0.020,0.890,0.065,172.222,86.111,338.889,1180.556,102.778,N
1047,-0.200,0.080,0.545,175.000,80.556,341.667,722.222,458.333,V
1048,-0.055,0.760,0.055,169.444,116.667,358.333,1491.667,769.444,N
1049,-0.115,0.820,0.055,183.333,88.889,372.222,1250.000,241.667,N
1050,-0.055,0.790,0.035,177.778,80.556,341.667,1211.111,38.889,N
1051,-0.250,0.045,0.460,197.222,66.667,325.000,802.778,408.333,V
1052,-0.090,0.625,-0.015,163.889,116.667,327.778,1452.778,650.000,N
1053,-0.175,0.560,-0.060,191.667,80.556,355.556,1208.333,244.444,N
1054,-0.105,0.800,0.045,183.333,113.889,355.556,1222.222,13.889,N
1055,-0.215,0.080,0.495,125.000,80.556,344.444,877.778,344.444,V
1056,-0.045,0.845,0.110,169.444,116.667,341.667,1491.667,613.889,N
1057,-0.085,0.915,0.040,163.889,77.778,311.111,1125.000,366.667,N
1058,-0.050,0.860,0.085,180.556,86.111,355.556,1105.556,19.444,N
1059,-0.190,0.120,0.520,61.111,77.778,363.889,927.778,177.778,V
1060,-0.060,0.805,0.070,172.222,77.778,325.000,1461.111,533.333,N
1061,-0.090,0.825,0.025,163.889,80.556,319.444,1141.667,319.444,N
1062,-0.060,0.835,0.090,175.000,86.111,350.000,1075.000,66.667,N
1063,-0.180,0.125,0.555,75.000,75.000,338.889,922.222,152.778,V
1064,-0.140,0.865,0.065,183.333,83.333,352.778,1388.889,466.667,N
1065,-0.145,0.730,-0.030,186.111,80.556,325.000,1230.556,158.333,N
1066,-0.175,0.835,0.005,172.222,77.778,325.000,1161.111,69.444,N
1067,-0.235,0.090,0.485,69.444,80.556,333.333,861.111,300.000,V
1068,-0.155,0.855,0.030,175.000,80.556,336.111,1411.111,550.000,N
1069,-0.100,0.815,0.055,194.444,83.333,347.222,1263.889,147.222,N
1070,-0.110,0.920,0.035,177.778,80.556,327.778,1266.667,2.778,N
1071,-0.235,0.060,0.510,63.889,86.111,330.556,786.111,480.556,V
1072,0.050,0.875,-0.110,197.222,100.000,305.556,525.000,261.111,N
1073,-0.145,0.945,0.030,180.556,72.222,327.778,997.222,472.222,N
1074,-0.025,0.880,0.105,180.556,113.889,341.667,1191.667,194.444,N
1075,-0.080,0.900,0.055,175.000,88.889,336.111,1225.000,33.333,N
1076,-0.190,0.130,0.520,77.778,83.333,372.222,858.333,366.667,V
1077,-0.095,0.940,0.020,169.444,83.333,338.889,1555.556,697.222,N
1078,-0.090,0.835,0.005,172.222,116.667,322.222,1116.667,438.889,N
1079,-0.175,0.920,-0.030,166.667,80.556,338.889,1127.778,11.111,N
1080,-0.235,0.095,0.490,66.667,75.000,361.111,919.444,208.333,V
1081,-0.140,0.800,-0.010,180.556,80.556,355.556,1444.444,525.000,N
1082,-0.050,0.810,0.100,175.000,77.778,338.889,1163.889,280.556,N
1083,-0.015,0.890,0.080,175.000,77.778,325.000,1166.667,2.778,N
1084,-0.130,0.190,0.620,80.556,80.556,327.778,872.222,294.444,V
1085,-0.025,0.820,0.070,186.111,116.667,372.222,1405.556,533.333,N
1086,-0.020,0.875,0.120,188.889,88.889,352.778,1233.333,172.222,N
1087,-0.035,0.890,0.075,175.000,72.222,305.556,1216.667,16.667,N
1088,-0.160,0.125,0.590,63.889,66.667,313.889,827.778,388.889,V
1089,-0.020,0.870,0.080,177.778,83.333,361.111,1416.667,588.889,N
1090,-0.030,0.950,0.125,191.667,88.889,350.000,1211.111,205.556,N
1091,0.035,0.890,0.140,183.333,83.333,338.889,1188.889,22.222,N
1092,-0.100,0.240,0.670,58.333,77.778,338.889,930.556,258.333,V
1093,0.035,0.865,0.130,172.222,113.889,352.778,1375.000,444.444,N
1094,0.005,1.015,0.175,180.556,80.556,322.222,1158.333,216.667,N
1095,0.050,0.930,0.160,180.556,80.556,355.556,1150.000,8.333,N
1096,-0.140,0.180,0.580,155.556,72.222,344.444,991.667,158.333,V
1097,0.015,0.870,0.085,166.667,116.667,344.444,1458.333,466.667,N
1098,-0.040,0.950,0.090,172.222,77.778,308.333,1194.444,263.889,N
1099,-0.055,0.835,0.085,166.667,116.667,341.667,1108.333,86.111,N
1100,-0.230,0.105,0.520,36.111,58.333,327.778,972.222,136.111,V
1101,-0.065,0.780,0.045,180.556,113.889,355.556,1391.667,419.444,N
1102,-0.100,0.975,-0.005,188.889,75.000,341.667,1225.000,166.667,N
1103,-0.190,0.180,0.520,58.333,86.111,352.778,947.222,277.778,V
1104,-0.135,0.860,0.005,158.333,75.000,313.889,1219.444,272.222,N
1105,-0.220,0.380,0.065,197.222,116.667,116.667,527.778,691.667,a
1106,-0.065,0.825,0.100,175.000,113.889,369.444,1319.444,791.667,N
1107,-0.040,1.010,0.070,191.667,80.556,341.667,1236.111,83.333,N
1108,-0.120,0.220,0.600,83.333,86.111,338.889,944.444,291.667,V
1109,-0.065,0.905,0.025,180.556,86.111,341.667,1377.778,433.333,N
1110,-0.045,0.780,0.095,169.444,100.000,316.667,1175.000,202.778,N
1111,-0.155,0.160,0.545,80.556,63.889,325.000,841.667,333.333,V
1112,-0.015,0.945,0.145,180.556,83.333,361.111,1463.889,622.222,N
1113,-0.005,0.915,0.085,186.111,86.111,336.111,1144.444,319.444,N
1114,-0.055,0.160,0.595,80.556,63.889,316.667,1011.111,133.333,V
1115,-0.055,0.815,0.060,172.222,83.333,330.556,1113.889,102.778,N
1116,-0.060,0.910,0.115,177.778,88.889,344.444,1202.778,88.889,N
1117,-0.150,0.235,0.555,63.889,80.556,358.333,963.889,238.889,V
1118,-0.095,0.870,0.050,177.778,83.333,325.000,1347.222,383.333,N
1119,-0.015,0.330,-0.005,58.333,116.667,336.111,575.000,772.222,a
1120,-0.160,0.855,-0.040,172.222,77.778,341.667,1202.778,627.778,N
1121,-0.100,0.810,0.010,175.000,111.111,325.000,1091.667,111.111,N
1122,-0.185,0.130,0.470,61.111,86.111,366.667,997.222,94.444,V
1123,-0.090,0.760,0.045,183.333,116.667,355.556,1288.889,291.667,N
1124,-0.120,0.860,0.015,163.889,86.111,338.889,1216.667,72.222,N
1125,-0.180,0.140,0.570,61.111,80.556,338.889,861.111,355.556,V
1126,-0.055,0.895,0.050,177.778,80.556,322.222,1297.222,436.111,N
1127,-0.115,1.015,-0.020,172.222,88.889,350.000,1197.222,100.000,N
1128,-0.115,1.055,0.155,172.222,102.778,280.556,1047.222,150.000,N
1129,0.040,0.930,0.010,197.222,102.778,333.333,488.889,558.333,A
1130,0.030,1.140,0.140,177.778,111.111,325.000,1383.333,894.444,N
1131,0.035,1.065,0.140,161.111,100.000,305.556,1083.333,300.000,N
1132,-0.035,0.130,0.560,108.333,58.333,325.000,958.333,125.000,V
1133,-0.030,0.980,0.085,177.778,88.889,358.333,1163.889,205.556,N
1134,-0.045,0.915,0.075,194.444,86.111,363.889,1130.556,33.333,N
1135,-0.055,0.875,0.075,177.778,86.111,341.667,1119.444,11.111,N
1136,-0.075,0.800,0.075,175.000,83.333,327.778,1030.556,88.889,N
1137,-0.060,0.100,0.545,91.667,63.889,325.000,1047.222,16.667,V
1138,-0.050,0.880,0.085,172.222,86.111,327.778,1088.889,41.667,N
1139,-0.040,0.875,0.105,177.778,80.556,358.333,1161.111,72.222,N
1140,-0.045,0.150,0.580,97.222,69.444,355.556,1022.222,138.889,V
1141,-0.095,0.885,0.110,172.222,86.111,338.889,1266.667,244.444,N
1142,-0.050,0.860,0.100,172.222,77.778,311.111,1086.111,180.556,N
1143,-0.070,0.130,0.600,91.667,72.222,341.667,1013.889,72.222,V
1144,-0.095,0.845,0.055,177.778,80.556,344.444,1286.111,272.222,N
1145,-0.090,0.890,0.105,177.778,80.556,338.889,1188.889,97.222,N
1146,-0.095,0.125,0.530,86.111,58.333,316.667,1075.000,113.889,V
1147,-0.065,0.995,0.145,172.222,108.333,325.000,1208.333,133.333,N
1148,-0.015,0.935,0.095,169.444,75.000,322.222,1127.778,80.556,N
1149,-0.085,0.120,0.570,108.333,80.556,347.222,1088.889,38.889,V
1150,-0.055,0.930,0.035,191.667,83.333,361.111,1266.667,177.778,N
1151,-0.050,1.020,0.140,183.333,111.111,336.111,1191.667,75.000,N
1152,-0.090,0.080,0.485,116.667,80.556,327.778,1027.778,163.889,V
1153,-0.125,0.935,0.085,161.111,80.556,322.222,1163.889,136.111,N
1154,-0.100,0.865,0.015,186.111,77.778,341.667,1144.444,19.444,N
1155,-0.100,0.115,0.565,91.667,63.889,358.333,1105.556,38.889,V
1156,-0.070,0.855,0.055,177.778,80.556,341.667,1197.222,91.667,N
1157,-0.080,0.895,0.070,177.778,86.111,322.222,1205.556,8.333,N
1158,-0.220,0.165,0.500,58.333,86.111,333.333,938.889,266.667,V
1159,-0.200,0.920,-0.060,194.444,86.111,325.000,611.111,327.778,N
1160,-0.170,0.735,-0.030,169.444,83.333,352.778,1350.000,738.889,N
1161,-0.160,0.855,0.020,191.667,86.111,358.333,1247.222,102.778,N
1162,-0.155,0.750,0.000,180.556,86.111,338.889,1188.889,58.333,N
1163,-0.290,0.135,0.465,136.111,86.111,341.667,950.000,238.889,V
1164,-0.145,0.815,0.010,172.222,111.111,322.222,1250.000,300.000,N
1165,-0.130,0.865,0.050,177.778,83.333,344.444,1208.333,41.667,N
1166,-0.230,0.100,0.505,86.111,88.889,369.444,908.333,300.000,V
1167,-0.155,0.915,-0.015,183.333,80.556,338.889,1375.000,466.667,N
1168,-0.135,0.815,0.020,177.778,105.556,311.111,1200.000,175.000,N
1169,-0.275,0.130,0.550,52.778,66.667,319.444,891.667,308.333,V
1170,-0.080,0.825,0.080,175.000,83.333,355.556,1255.556,363.889,N
1171,-0.070,0.980,0.105,183.333,86.111,358.333,1288.889,33.333,N
1172,-0.175,0.155,0.540,86.111,86.111,361.111,936.111,352.778,V
1173,-0.090,0.905,0.055,163.889,80.556,319.444,1347.222,411.111,N
1174,-0.090,0.870,0.020,172.222,86.111,338.889,1138.889,208.333,N
1175,-0.195,0.215,0.585,72.222,83.333,352.778,950.000,188.889,V
1176,-0.110,0.975,-0.020,183.333,86.111,358.333,1244.444,294.444,N
1177,-0.120,0.935,0.030,194.444,113.889,355.556,1205.556,38.889,N
1178,-0.160,0.080,0.450,50.000,55.556,308.333,1050.000,155.556,V
1179,-0.095,0.800,0.055,161.111,111.111,319.444,1105.556,55.556,N
1180,-0.120,0.905,0.080,175.000,80.556,338.889,1150.000,44.444,N
1181,-0.155,0.225,0.565,75.000,77.778,361.111,963.889,186.111,V
1182,-0.110,0.935,0.060,183.333,88.889,341.667,1375.000,411.111,N
1183,-0.080,0.820,0.025,186.111,113.889,336.111,1169.444,205.556,N
1184,-0.230,0.190,0.505,58.333,80.556,336.111,994.444,175.000,V
1185,-0.260,0.640,-0.185,163.889,83.333,327.778,1202.778,208.333,N
1186,-0.255,0.800,0.015,191.667,88.889,338.889,1197.222,5.556,N
1187,-0.145,0.225,0.635,55.556,77.778,355.556,977.778,219.444,V
1188,0.140,1.145,0.330,169.444,113.889,336.111,1408.333,430.556,N
1189,0.115,1.165,0.270,163.889,75.000,308.333,1136.111,272.222,N
1190,0.055,0.405,0.740,58.333,86.111,355.556,947.222,188.889,V
1191,0.015,1.035,0.085,191.667,102.778,308.333,636.111,311.111,N
1192,-0.020,0.995,0.175,177.778,86.111,358.333,1391.667,755.556,N
1193,-0.060,1.055,0.075,180.556,83.333,325.000,1250.000,141.667,N
1194,-0.025,0.995,0.130,172.222,113.889,338.889,1172.222,77.778,N
1195,-0.190,0.250,0.535,63.889,80.556,338.889,977.778,194.444,V
1196,-0.080,0.880,0.060,169.444,116.667,344.444,1266.667,288.889,N
1197,-0.140,0.935,0.020,191.667,83.333,347.222,1241.667,25.000,N
1198,-0.215,0.205,0.515,63.889,88.889,358.333,994.444,247.222,V
1199,-0.170,0.905,-0.025,166.667,80.556,338.889,1294.444,300.000,N
1200,-0.145,0.790,0.000,169.444,116.667,341.667,1072.222,222.222,N
1201,-0.190,0.025,0.455,47.222,66.667,341.667,1011.111,61.111,V
1202,-0.145,0.815,0.025,186.111,113.889,338.889,1155.556,144.444,N
1203,0.185,0.220,0.080,47.222,80.556,369.444,544.444,611.111,a
1204,-0.050,0.300,0.000,77.778,94.444,94.444,363.889,180.556,a
1205,-0.185,0.870,0.005,194.444,83.333,355.556,1033.333,669.444,N
1206,-0.150,0.755,-0.035,175.000,83.333,325.000,1152.778,119.444,N
1207,-0.220,0.195,0.530,55.556,80.556,333.333,938.889,213.889,V
1208,-0.085,0.850,0.020,177.778,83.333,338.889,1291.667,352.778,N
1209,-0.065,0.880,0.095,191.667,83.333,344.444,1247.222,44.444,N
1210,-0.200,0.100,0.490,94.444,86.111,355.556,988.889,258.333,V
1211,-0.080,0.835,0.055,175.000,83.333,338.889,1397.222,408.333,N
1212,-0.100,0.905,-0.090,169.444,86.111,325.000,1155.556,241.667,N
1213,-0.260,1.600,2.045,1099494.444,0.000,1099769.444,922.222,233.333,V
1214,1.170,1.040,0.950,191.667,63.889,72.222,1216.667,294.444,N
1215,-0.065,0.235,-0.180,186.111,83.333,330.556,1113.889,102.778,N
1216,-0.225,0.075,-0.635,197.222,75.000,261.111,508.333,605.556,A
1217,-0.260,-0.055,-0.260,1103616.667,113.889,-1103561.111,1283.333,775.000,N
1218,-0.260,-0.105,-0.935,1104586.111,83.333,327.778,969.444,313.889,N
1219,-0.940,-0.060,-0.875,191.667,113.889,333.333,472.222,497.222,A
1220,-0.540,0.575,-0.370,169.444,113.889,319.444,1263.889,791.667,N
1221,-0.525,-0.015,-0.235,61.111,108.333,352.778,558.333,705.556,a
1222,-0.310,0.905,-0.090,58.333,113.889,388.889,1158.333,600.000,j
1223,-0.040,0.995,0.055,161.111,80.556,338.889,1241.667,83.333,N
1224,-0.065,0.855,0.060,163.889,80.556,322.222,997.222,244.444,N
1225,-0.050,0.995,0.095,158.333,80.556,313.889,1011.111,13.889,N
1226,-0.010,0.925,0.155,175.000,100.000,305.556,952.778,58.333,N
1227,0.045,0.790,0.060,197.222,105.556,344.444,516.667,436.111,A
1228,0.060,1.135,0.010,158.333,105.556,319.444,450.000,66.667,A
1229,-0.030,0.960,0.115,180.556,113.889,341.667,972.222,522.222,N
1230,-0.020,0.885,0.155,163.889,83.333,313.889,1100.000,127.778,N
1231,-0.050,0.175,0.625,94.444,63.889,325.000,1080.556,19.444,V
1232,-0.015,0.895,0.230,172.222,80.556,294.444,1294.444,213.889,N
1233,0.065,0.730,0.255,130.556,105.556,355.556,2002.778,708.333,N
1234,0.005,0.945,0.200,175.000,111.111,325.000,1402.778,600.000,N
1235,0.080,0.960,0.160,163.889,111.111,322.222,1252.778,150.000,N
1236,-0.130,0.835,0.075,169.444,111.111,322.222,1233.333,19.444,N
1237,-0.130,0.805,0.070,180.556,83.333,355.556,1297.222,63.889,N
1238,-0.145,0.725,0.110,169.444,88.889,352.778,1372.222,75.000,N
1239,-0.015,0.180,0.055,197.222,108.333,358.333,522.222,850.000,a
1240,-0.120,0.885,-0.040,69.444,116.667,355.556,1527.778,1005.556,j
1241,-0.170,0.650,-0.285,197.222,116.667,319.444,569.444,958.333,A
1242,-0.530,0.295,-0.350,147.222,80.556,313.889,1469.444,900.000,N
1243,-0.015,0.830,0.215,180.556,86.111,350.000,1955.556,486.111,N
1244,0.105,1.185,0.375,58.333,105.556,322.222,911.111,1044.444,N
1245,0.310,1.220,0.490,175.000,86.111,327.778,955.556,44.444,N
1246,0.360,1.305,0.510,172.222,116.667,344.444,1086.111,130.556,N
1247,0.245,0.410,0.790,113.889,72.222,344.444,1133.333,47.222,V
1248,0.085,1.050,0.195,183.333,102.778,341.667,1302.778,169.444,N
1249,-0.010,0.870,0.100,183.333,86.111,327.778,1244.444,58.333,N
1250,-0.110,0.870,0.035,169.444,75.000,325.000,1172.222,72.222,N
1251,-0.115,0.770,0.015,169.444,77.778,327.778,1133.333,38.889,N
1252,-0.145,0.835,-0.035,180.556,86.111,341.667,1158.333,25.000,N
1253,-0.160,0.735,0.015,194.444,91.667,361.111,1250.000,91.667,N
1254,-0.115,0.865,0.030,177.778,77.778,322.222,1194.444,55.556,N
1255,-0.120,0.105,0.565,80.556,55.556,325.000,1025.000,169.444,V
1256,-0.040,1.020,-0.070,197.222,77.778,305.556,555.556,469.444,A
1257,-0.070,1.000,-0.100,172.222,102.778,308.333,430.556,125.000,A
1258,-0.175,0.730,-0.030,186.111,108.333,347.222,919.444,488.889,N
1259,-0.125,0.840,-0.040,191.667,83.333,352.778,1202.778,283.333,N
1260,-0.115,0.130,0.490,66.667,86.111,372.222,1055.556,147.222,V
1261,-0.170,0.785,-0.110,191.667,100.000,322.222,641.667,413.889,A
1262,-0.100,0.825,0.055,175.000,102.778,325.000,1416.667,775.000,N
1263,-0.100,0.750,0.030,172.222,80.556,313.889,1130.556,286.111,N
1264,-0.080,0.905,0.065,172.222,116.667,355.556,1161.111,30.556,N
1265,-0.095,0.185,0.520,58.333,86.111,375.000,1083.333,77.778,V
1266,-0.095,0.850,0.090,183.333,113.889,338.889,1363.889,280.556,N
1267,-0.035,0.815,0.130,169.444,83.333,338.889,1130.556,233.333,N
1268,-0.035,0.200,0.610,55.556,55.556,327.778,1038.889,91.667,V
1269,-0.080,0.965,-0.010,197.222,102.778,322.222,577.778,461.111,A
1270,-0.010,0.950,-0.025,161.111,116.667,308.333,436.111,141.667,A
1271,-0.080,0.875,0.035,183.333,77.778,355.556,955.556,519.444,N
1272,-0.035,0.875,0.090,194.444,88.889,363.889,1202.778,247.222,N
1273,-0.090,0.255,0.555,61.111,83.333,358.333,1069.444,133.333,V
1274,-0.045,0.775,0.135,166.667,113.889,322.222,1266.667,197.222,N
1275,0.030,0.300,0.095,58.333,113.889,327.778,522.222,744.444,a
1276,-0.040,0.865,0.100,186.111,113.889,358.333,1316.667,794.444,N
1277,-0.010,0.900,0.110,180.556,77.778,330.556,1213.889,102.778,N
1278,0.000,0.195,0.580,38.889,55.556,322.222,1036.111,177.778,V
1279,-0.030,0.875,0.095,180.556,80.556,325.000,1275.000,238.889,N
1280,-0.055,0.875,0.105,180.556,113.889,319.444,1136.111,138.889,N
1281,-0.125,0.230,0.550,58.333,86.111,341.667,986.111,150.000,V
1282,-0.095,0.810,0.050,188.889,116.667,361.111,1313.889,327.778,N
1283,-0.125,0.800,0.030,186.111,80.556,341.667,1238.889,75.000,N
1284,-0.240,0.195,0.490,52.778,77.778,338.889,969.444,269.444,V
1285,-0.150,0.830,0.035,166.667,77.778,311.111,1269.444,300.000,N
1286,-0.085,0.830,0.090,183.333,116.667,341.667,1122.222,147.222,N
1287,-0.130,0.185,0.570,55.556,86.111,369.444,1066.667,55.556,V
1288,-0.175,0.935,-0.065,197.222,100.000,327.778,661.111,405.556,A
1289,-0.065,0.900,-0.070,150.000,100.000,305.556,422.222,238.889,A
1290,-0.135,0.900,0.015,188.889,88.889,355.556,1050.000,627.778,N
1291,-0.125,0.845,0.035,175.000,111.111,338.889,1152.778,102.778,N
1292,-0.085,0.945,0.070,169.444,86.111,322.222,1130.556,22.222,N
1293,-0.050,0.905,0.110,180.556,113.889,341.667,1161.111,30.556,N
1294,-0.145,0.305,0.590,83.333,86.111,375.000,1086.111,75.000,V
1295,-0.065,0.900,0.135,180.556,113.889,322.222,1400.000,313.889,N
1296,0.085,0.345,0.285,58.333,116.667,383.333,527.778,872.222,a
1297,0.285,0.155,-0.055,44.444,72.222,280.556,369.444,158.333,a
1298,-0.120,0.920,0.010,186.111,83.333,338.889,950.000,580.556,N
1299,-0.095,0.745,0.005,177.778,86.111,327.778,1147.222,197.222,N
1300,-0.195,0.190,0.540,58.333,86.111,369.444,1011.111,136.111,V
1301,-0.080,0.740,0.040,188.889,83.333,358.333,1352.778,341.667,N
1302,-0.115,0.875,0.060,180.556,80.556,275.000,1216.667,136.111,N
1303,-0.035,0.285,0.060,58.333,113.889,325.000,508.333,708.333,a
1304,-0.085,0.885,0.040,166.667,88.889,341.667,1263.889,755.556,N
1305,-0.075,0.820,0.050,191.667,80.556,325.000,1191.667,72.222,N
1306,-0.210,0.255,0.520,61.111,80.556,344.444,1036.111,155.556,V
1307,-0.090,0.815,0.065,177.778,111.111,338.889,1350.000,313.889,N
1308,-0.100,0.860,0.075,180.556,86.111,322.222,1172.222,177.778,N
1309,-0.170,0.185,0.555,72.222,75.000,325.000,919.444,252.778,V
1310,-0.120,0.770,0.015,172.222,80.556,344.444,1369.444,450.000,N
1311,-0.115,0.775,0.060,191.667,116.667,369.444,1211.111,158.333,N
1312,-0.090,0.855,0.095,183.333,88.889,341.667,1230.556,19.444,N
1313,-0.100,0.280,0.075,58.333,116.667,325.000,530.556,700.000,a
1314,-0.050,0.835,0.100,172.222,113.889,325.000,1258.333,727.778,N
1315,-0.085,0.895,0.070,180.556,80.556,322.222,1138.889,119.444,N
1316,-0.170,0.225,0.565,61.111,80.556,341.667,1000.000,138.889,V
1317,-0.070,0.810,0.100,177.778,80.556,341.667,1380.556,380.556,N
1318,-0.040,0.890,0.115,183.333,86.111,338.889,1188.889,191.667,N
1319,-0.045,0.885,0.125,183.333,88.889,325.000,1133.333,55.556,N
1320,-0.125,0.185,0.560,58.333,88.889,333.333,958.333,175.000,V
1321,-0.095,0.905,0.085,183.333,88.889,355.556,1325.000,366.667,N
1322,0.245,0.305,0.270,47.222,83.333,372.222,583.333,741.667,a
1323,0.290,0.195,-0.050,47.222,86.111,316.667,397.222,186.111,a
1324,-0.110,0.815,-0.025,183.333,88.889,352.778,1038.889,641.667,N
1325,-0.105,0.775,0.010,166.667,113.889,322.222,1127.778,88.889,N
1326,-0.105,0.855,0.015,183.333,88.889,341.667,1183.333,55.556,N
1327,-0.230,0.105,0.520,55.556,75.000,341.667,925.000,258.333,V
1328,-0.220,0.800,-0.090,175.000,105.556,341.667,716.667,208.333,A
1329,-0.090,0.660,-0.165,166.667,116.667,325.000,458.333,258.333,A
1330,-0.215,0.690,-0.035,177.778,80.556,338.889,1061.111,602.778,N
1331,-0.140,-0.005,0.390,119.444,77.778,341.667,1147.222,86.111,V
1332,-0.105,0.820,0.030,172.222,113.889,336.111,1213.889,66.667,N
1333,-0.105,0.775,0.000,183.333,86.111,341.667,1127.778,86.111,N
1334,-0.155,0.220,0.590,58.333,88.889,358.333,1066.667,61.111,V
1335,-0.090,0.785,0.090,169.444,83.333,338.889,1336.111,269.444,N
1336,-0.050,0.295,0.030,197.222,116.667,369.444,513.889,822.222,a
1337,-0.095,0.745,0.030,169.444,102.778,325.000,1286.111,772.222,N
1338,-0.125,0.900,0.010,183.333,86.111,341.667,1161.111,125.000,N
1339,-0.190,0.240,0.520,69.444,86.111,352.778,986.111,175.000,V
1340,-0.110,0.885,0.040,180.556,86.111,358.333,1361.111,375.000,N
1341,-0.095,0.750,0.035,180.556,102.778,319.444,1194.444,166.667,N
1342,-0.125,0.075,0.530,50.000,55.556,305.556,1044.444,150.000,V
1343,-0.155,0.820,-0.035,197.222,116.667,291.667,580.556,463.889,A
1344,-0.075,0.850,0.045,172.222,80.556,341.667,1322.222,741.667,N
1345,-0.110,0.805,0.050,194.444,113.889,355.556,1227.778,94.444,N
1346,-0.055,0.805,0.070,188.889,88.889,344.444,1227.778,0.000,N
1347,-0.115,0.200,0.580,61.111,86.111,347.222,1016.667,211.111,V
1348,-0.125,0.925,-0.060,191.667,108.333,319.444,641.667,375.000,A
1349,-0.120,0.910,0.065,166.667,80.556,322.222,1394.444,752.778,N
1350,-0.050,0.860,0.085,180.556,116.667,355.556,1150.000,244.444,N
1351,-0.110,0.890,0.075,194.444,83.333,341.667,1227.778,77.778,N
1352,-0.160,0.280,0.615,61.111,83.333,355.556,1019.444,208.333,V
1353,-0.090,0.930,0.105,166.667,77.778,308.333,1361.111,341.667,N
1354,-0.040,0.815,0.105,177.778,108.333,336.111,1119.444,241.667,N
1355,-0.220,0.210,0.570,38.889,63.889,341.667,997.222,122.222,V
1356,-0.055,0.850,0.085,186.111,116.667,341.667,1391.667,394.444,N
1357,-0.080,0.920,0.125,172.222,86.111,336.111,1219.444,172.222,N
1358,0.325,0.305,0.325,47.222,88.889,366.667,541.667,677.778,a
1359,0.080,0.240,-0.060,88.889,116.667,316.667,375.000,166.667,a
1360,-0.155,0.770,-0.025,166.667,80.556,322.222,975.000,600.000,N
1361,-0.140,0.795,0.025,166.667,111.111,333.333,1100.000,125.000,N
1362,0.065,0.305,0.055,58.333,116.667,338.889,536.111,563.889,a
1363,-0.115,0.885,0.030,186.111,108.333,358.333,1425.000,888.889,N
1364,-0.100,0.795,0.000,177.778,83.333,338.889,1236.111,188.889,N
1365,-0.235,0.100,0.580,58.333,75.000,338.889,877.778,358.333,V
1366,-0.030,0.850,0.095,169.444,116.667,338.889,1427.778,550.000,N
1367,-0.085,0.860,0.075,183.333,86.111,338.889,1197.222,230.556,N
1368,-0.070,0.780,0.120,183.333,83.333,344.444,1191.667,5.556,N
1369,0.255,0.240,0.065,44.444,80.556,327.778,569.444,622.222,a
1370,-0.075,0.835,0.065,172.222,77.778,341.667,1411.111,841.667,N
1371,-0.080,0.855,0.050,175.000,83.333,313.889,1141.667,269.444,N
1372,-0.160,0.190,0.600,63.889,83.333,325.000,850.000,291.667,V
1373,-0.055,0.885,0.055,191.667,88.889,372.222,1469.444,619.444,N
1374,-0.050,0.835,0.110,188.889,113.889,336.111,1236.111,233.333,N
1375,-0.055,0.920,0.110,177.778,88.889,341.667,1161.111,75.000,N
1376,-0.145,0.295,0.635,52.778,75.000,325.000,955.556,205.556,V
1377,-0.050,0.855,0.090,158.333,72.222,319.444,1283.333,327.778,N
1378,-0.005,0.260,0.070,58.333,102.778,327.778,544.444,738.889,a
1379,-0.070,0.850,0.040,177.778,116.667,358.333,1316.667,772.222,N
1380,-0.130,0.900,0.020,188.889,80.556,344.444,1241.667,75.000,N
1381,-0.075,0.835,0.045,177.778,80.556,322.222,1136.111,105.556,N
1382,-0.225,0.175,0.545,61.111,86.111,341.667,938.889,197.222,V
1383,-0.065,0.840,0.040,180.556,105.556,344.444,1241.667,302.778,N
1384,-0.110,0.870,0.075,177.778,86.111,347.222,1252.778,11.111,N
1385,-0.190,0.160,0.565,63.889,80.556,352.778,897.222,355.556,V
1386,-0.070,0.960,0.125,172.222,72.222,322.222,1427.778,530.556,N
1387,-0.110,0.095,0.020,58.333,116.667,116.667,241.667,1186.111,x
1388,-0.040,0.860,0.040,175.000,83.333,322.222,1569.444,1327.778,N
1389,-0.115,0.865,0.065,188.889,105.556,344.444,1138.889,430.556,N
1390,-0.150,0.825,0.015,180.556,88.889,347.222,1241.667,102.778,N
1391,-0.185,0.140,0.555,58.333,80.556,338.889,1013.889,227.778,V
1392,-0.135,0.805,0.040,175.000,80.556,272.222,1283.333,269.444,N
1393,0.005,0.225,0.010,197.222,116.667,391.667,472.222,811.111,a
1394,-0.130,0.750,0.030,183.333,111.111,341.667,1361.111,888.889,N
1395,-0.135,0.850,-0.035,177.778,86.111,347.222,1200.000,161.111,N
1396,-0.100,0.830,0.070,186.111,91.667,366.667,1208.333,8.333,N
1397,-0.220,0.200,0.545,69.444,75.000,330.556,1000.000,208.333,V
1398,-0.105,0.815,0.025,169.444,105.556,322.222,1252.778,252.778,N
1399,-0.150,0.865,0.020,161.111,80.556,327.778,1136.111,116.667,N
1400,-0.190,0.180,0.590,97.222,83.333,355.556,902.778,233.333,V
1401,-0.085,0.875,0.005,186.111,80.556,341.667,1411.111,508.333,N
1402,-0.095,0.850,0.065,172.222,102.778,325.000,1166.667,244.444,N
1403,-0.180,0.205,0.610,75.000,72.222,341.667,930.556,236.111,V
1404,-0.065,0.880,0.070,166.667,75.000,311.111,1283.333,352.778,N
1405,-0.035,0.860,0.095,180.556,80.556,336.111,1105.556,177.778,N
1406,-0.160,0.225,0.595,61.111,86.111,375.000,1038.889,66.667,V
1407,-0.060,0.865,0.075,188.889,111.111,341.667,1261.111,222.222,N
1408,-0.080,0.930,0.090,175.000,77.778,308.333,1180.556,80.556,N
1409,-0.180,0.175,0.595,52.778,69.444,325.000,844.444,336.111,V
1410,-0.080,0.850,0.060,169.444,86.111,341.667,1397.222,552.778,N
1411,-0.075,0.830,0.080,183.333,116.667,355.556,1200.000,197.222,N
1412,-0.215,0.210,0.525,66.667,88.889,361.111,1050.000,150.000,V
1413,-0.090,0.820,0.080,169.444,116.667,338.889,1333.333,283.333,N
1414,-0.075,0.870,0.070,172.222,88.889,336.111,1152.778,180.556,N
1415,-0.155,0.300,0.615,63.889,86.111,347.222,944.444,208.333,V
1416,-0.030,0.975,0.080,194.444,83.333,355.556,1361.111,416.667,N
1417,-0.065,0.900,0.070,194.444,113.889,341.667,1200.000,161.111,N
1418,-0.100,0.125,0.525,61.111,55.556,305.556,1041.667,158.333,V
1419,-0.115,0.820,0.055,169.444,113.889,336.111,1211.111,169.444,N
1420,-0.095,0.890,0.055,186.111,83.333,341.667,1191.667,19.444,N
1421,-0.190,0.270,0.575,63.889,86.111,369.444,994.444,197.222,V
1422,-0.115,0.865,0.010,188.889,88.889,366.667,1358.333,363.889,N
1423,-0.100,0.850,0.060,169.444,116.667,327.778,1172.222,186.111,N
1424,-0.105,0.105,0.510,50.000,55.556,308.333,1000.000,172.222,V
1425,-0.120,0.820,0.035,180.556,113.889,338.889,1183.333,183.333,N
1426,-0.130,0.750,0.000,183.333,116.667,344.444,1200.000,16.667,N
1427,-0.225,0.110,0.505,55.556,80.556,355.556,1041.667,158.333,V
1428,-0.135,0.745,0.000,169.444,80.556,322.222,1216.667,175.000,N
1429,-0.145,0.930,0.035,180.556,83.333,341.667,1188.889,27.778,N
1430,-0.230,0.220,0.555,55.556,75.000,341.667,908.333,280.556,V
1431,-0.185,0.875,0.005,180.556,72.222,338.889,1330.556,422.222,N
1432,-0.115,0.785,0.030,177.778,113.889,352.778,1180.556,150.000,N
1433,-0.185,0.125,0.485,55.556,83.333,363.889,1091.667,88.889,V
1434,-0.130,0.800,0.035,180.556,113.889,341.667,1305.556,213.889,N
1435,-0.170,0.845,0.030,180.556,86.111,341.667,1150.000,155.556,N
1436,-0.225,0.145,0.555,113.889,83.333,355.556,980.556,169.444,V
1437,-0.115,0.870,0.040,172.222,80.556,350.000,1444.444,463.889,N
1438,-0.080,0.895,0.080,191.667,113.889,325.000,1186.111,258.333,N
1439,-0.085,0.150,0.560,69.444,55.556,313.889,1022.222,163.889,V
1440,-0.040,0.870,0.095,169.444,113.889,319.444,1186.111,163.889,N
1441,-0.110,0.930,0.060,175.000,80.556,341.667,1172.222,13.889,N
1442,-0.225,0.175,0.615,58.333,80.556,372.222,983.333,188.889,V
1443,-0.080,0.940,0.085,191.667,86.111,344.444,1433.333,450.000,N
1444,-0.050,0.945,0.125,166.667,113.889,325.000,1102.778,330.556,N
1445,-0.095,0.195,0.595,58.333,86.111,338.889,975.000,127.778,V
1446,-0.075,0.885,0.115,188.889,111.111,344.444,1252.778,277.778,N
1447,-0.090,1.005,0.095,186.111,88.889,355.556,1191.667,61.111,N
1448,-0.060,0.150,0.625,97.222,63.889,338.889,1044.444,147.222,V
1449,-0.105,0.985,0.080,172.222,86.111,319.444,1308.333,263.889,N
1450,-0.090,0.885,0.100,166.667,116.667,325.000,1111.111,197.222,N
1451,-0.195,0.255,0.570,72.222,77.778,355.556,955.556,155.556,V
1452,-0.050,0.885,0.125,191.667,105.556,355.556,1369.444,413.889,N
1453,-0.040,0.965,0.100,186.111,86.111,338.889,1261.111,108.333,N
1454,-0.175,0.240,0.615,63.889,80.556,327.778,958.333,302.778,V
1455,-0.080,0.810,0.010,175.000,77.778,344.444,1277.778,319.444,N
1456,-0.140,0.860,0.060,180.556,83.333,338.889,1158.333,119.444,N
1457,-0.160,0.215,0.585,58.333,88.889,363.889,963.889,194.444,V
1458,-0.085,0.965,0.095,180.556,83.333,338.889,1336.111,372.222,N
1459,-0.030,0.845,0.115,177.778,86.111,344.444,1161.111,175.000,N
1460,-0.120,0.175,0.615,58.333,86.111,352.778,1030.556,130.556,V
1461,-0.025,0.840,0.105,172.222,102.778,325.000,1183.333,152.778,N
1462,-0.100,0.950,0.085,194.444,88.889,358.333,1258.333,75.000,N
1463,-0.110,0.890,0.085,172.222,100.000,325.000,1338.889,80.556,N
1464,-0.125,0.925,0.080,183.333,83.333,341.667,1191.667,147.222,N
1465,-0.070,0.880,0.105,172.222,113.889,325.000,1169.444,22.222,N
1466,-0.075,0.940,0.125,169.444,83.333,333.333,1186.111,16.667,N
1467,-0.005,0.910,0.140,177.778,108.333,347.222,1172.222,13.889,N
1468,-0.100,0.955,0.105,197.222,88.889,366.667,1280.556,108.333,N
1469,-0.005,0.885,0.135,180.556,111.111,325.000,1208.333,72.222,N
1470,-0.075,0.890,0.085,166.667,88.889,325.000,1133.333,75.000,N
1471,-0.050,0.885,0.100,175.000,100.000,327.778,1125.000,8.333,N
1472,-0.090,0.950,0.070,191.667,83.333,341.667,1236.111,111.111,N
1473,-0.070,0.825,0.070,177.778,105.556,338.889,1200.000,36.111,N
1474,-0.100,0.925,0.065,188.889,77.778,341.667,1230.556,30.556,N
1475,-0.060,0.860,0.105,166.667,113.889,338.889,1155.556,75.000,N
1476,-0.090,0.935,0.050,175.000,75.000,308.333,1138.889,16.667,N
1477,-0.035,0.830,0.115,177.778,108.333,338.889,1155.556,16.667,N
1478,-0.055,0.915,0.075,197.222,86.111,358.333,1269.444,113.889,N
1479,-0.060,0.860,0.070,183.333,111.111,336.111,1225.000,44.444,N
1480,-0.060,0.900,0.085,169.444,72.222,322.222,1180.556,44.444,N
1481,-0.035,0.860,0.140,175.000,100.000,325.000,1175.000,5.556,N
1482,-0.050,0.940,0.080,183.333,86.111,358.333,1205.556,30.556,N
1483,-0.045,0.900,0.130,191.667,111.111,338.889,1230.556,25.000,N
1484,-0.050,0.840,0.085,180.556,86.111,344.444,1216.667,13.889,N
1485,-0.065,0.905,0.110,169.444,111.111,336.111,1158.333,58.333,N
1486,-0.075,0.800,0.045,166.667,86.111,325.000,1122.222,36.111,N
1487,-0.100,0.870,0.085,194.444,86.111,363.889,1211.111,88.889,N
1488,-0.075,0.835,0.045,183.333,80.556,325.000,1250.000,38.889,N
1489,-0.060,0.860,0.090,177.778,83.333,341.667,1186.111,63.889,N
1490,-0.050,0.820,0.055,177.778,80.556,325.000,1147.222,38.889,N
1491,-0.085,0.850,0.085,175.000,102.778,308.333,1130.556,16.667,N
1492,-0.095,0.785,0.050,172.222,72.222,336.111,1150.000,19.444,N
1493,-0.090,0.945,0.110,197.222,83.333,358.333,1222.222,72.222,N
1494,-0.030,0.815,0.065,183.333,80.556,341.667,1247.222,25.000,N
1495,-0.120,0.890,0.085,169.444,86.111,325.000,1141.667,105.556,N
1496,0.100,-0.560,0.490,38.889,19.444,266.667,1122.222,19.444,V
1497,-0.115,0.910,0.100,183.333,88.889,358.333,1158.333,36.111,N
1498,0.015,0.890,0.140,183.333,116.667,355.556,1150.000,8.333,N
1499,-0.085,0.850,0.060,183.333,86.111,350.000,1219.444,69.444,N
1500,-0.025,0.865,0.100,175.000,105.556,325.000,1172.222,47.222,N
1501,-0.100,0.805,0.030,163.889,83.333,325.000,1138.889,33.333,N
1502,-0.085,0.115,0.550,125.000,75.000,358.333,1091.667,47.222,V
1503,-0.115,0.920,0.020,188.889,86.111,355.556,1277.778,186.111,N
1504,-0.010,0.910,0.135,180.556,111.111,338.889,1227.778,50.000,N
1505,-0.055,0.870,0.040,166.667,77.778,313.889,1138.889,88.889,N
1506,-0.060,0.880,0.085,180.556,111.111,338.889,1125.000,13.889,N
1507,-0.055,0.805,0.035,183.333,91.667,352.778,1138.889,13.889,N
1508,-0.065,0.885,0.115,183.333,113.889,341.667,1161.111,22.222,N
1509,-0.045,0.870,0.055,177.778,86.111,355.556,1205.556,44.444,N
1510,-0.115,0.890,0.080,177.778,77.778,333.333,1141.667,63.889,N
1511,-0.060,0.780,0.030,172.222,75.000,322.222,1094.444,47.222,N
1512,-0.115,0.795,0.050,175.000,80.556,341.667,1086.111,8.333,N
1513,-0.115,0.715,0.000,194.444,80.556,341.667,1200.000,113.889,N
1514,-0.160,0.810,0.020,180.556,80.556,341.667,1219.444,19.444,N
1515,-0.115,0.745,0.010,177.778,83.333,338.889,1150.000,69.444,N
1516,-0.155,0.820,0.040,180.556,86.111,338.889,1141.667,8.333,N
1517,-0.060,0.800,0.040,172.222,75.000,322.222,1152.778,11.111,N
1518,-0.135,0.850,0.070,175.000,77.778,344.444,1183.333,30.556,N
1519,-0.080,0.830,0.030,194.444,88.889,375.000,1241.667,58.333,N
1520,-0.180,0.815,0.030,183.333,80.556,336.111,1211.111,30.556,N
1521,-0.095,0.850,0.055,163.889,116.667,322.222,1105.556,105.556,N
1522,-0.100,0.845,0.040,163.889,83.333,341.667,1130.556,25.000,N
1523,-0.055,0.870,0.085,194.444,86.111,361.111,1150.000,19.444,N
1524,-0.100,0.875,0.020,188.889,80.556,344.444,1241.667,91.667,N
1525,-0.065,0.855,0.100,175.000,111.111,333.333,1083.333,158.333,N
1526,-0.140,0.820,-0.010,166.667,83.333,325.000,1191.667,108.333,N
1527,-0.085,0.920,0.130,169.444,100.000,308.333,1061.111,130.556,N
1528,-0.065,0.845,0.035,183.333,91.667,361.111,1158.333,97.222,N
1529,-0.070,0.885,0.090,188.889,111.111,350.000,1205.556,47.222,N
1530,-0.185,0.070,0.540,111.111,66.667,336.111,1275.000,69.444,V
1531,-0.065,0.840,-0.080,197.222,88.889,325.000,550.000,725.000,a
1532,-0.080,0.945,-0.080,122.222,102.778,291.667,388.889,161.111,A
1533,-0.060,0.810,0.095,177.778,113.889,344.444,1008.333,619.444,N
1534,-0.140,0.800,-0.010,177.778,86.111,355.556,1186.111,177.778,N
1535,-0.035,0.280,0.090,58.333,111.111,336.111,555.556,630.556,a
1536,-0.110,0.850,-0.080,186.111,86.111,372.222,1358.333,802.778,N
1537,-0.120,0.880,0.015,183.333,116.667,302.778,1172.222,186.111,N
1538,0.005,0.275,0.120,197.222,108.333,108.333,488.889,683.333,a
1539,0.050,-0.085,0.325,44.444,0.000,36.111,369.444,119.444,a
1540,-0.185,0.830,-0.010,180.556,116.667,341.667,986.111,616.667,N
1541,-0.125,0.725,-0.120,183.333,80.556,344.444,1122.222,136.111,N
1542,-0.120,0.050,0.300,163.889,102.778,355.556,1211.111,88.889,F
1543,-0.105,0.770,0.000,183.333,72.222,288.889,1219.444,8.333,N
1544,-0.040,0.720,-0.020,197.222,88.889,322.222,497.222,722.222,a
1545,-0.060,0.870,0.110,166.667,113.889,355.556,1433.333,936.111,N
1546,-0.165,0.400,0.060,58.333,113.889,113.889,575.000,858.333,a
1547,-0.110,0.875,0.090,169.444,102.778,355.556,1377.778,802.778,N
1548,-0.110,0.025,0.090,58.333,61.111,97.222,269.444,1108.333,x
1549,-0.100,0.835,0.120,186.111,116.667,330.556,1797.222,1527.778,N
1550,0.115,0.440,0.355,194.444,116.667,327.778,525.000,1272.222,a
1551,-0.165,0.770,-0.040,155.556,77.778,291.667,1441.667,916.667,N
1552,-0.200,0.440,0.120,86.111,116.667,116.667,561.111,880.556,a
1553,-0.080,0.785,0.030,177.778,102.778,352.778,1375.000,813.889,N
1554,-0.130,-0.030,0.030,55.556,66.667,88.889,272.222,1102.778,x
1555,0.000,0.785,0.200,150.000,116.667,338.889,1783.333,1511.111,N
1556,0.125,0.505,0.115,197.222,80.556,311.111,511.111,1272.222,a
1557,-0.085,0.910,0.135,158.333,105.556,308.333,1483.333,972.222,N
1558,0.045,0.340,0.075,58.333,105.556,330.556,550.000,933.333,a
1559,-0.155,0.955,0.085,161.111,83.333,322.222,1372.222,822.222,N
1560,0.150,0.395,0.125,58.333,116.667,347.222,597.222,775.000,a
1561,-0.160,0.905,-0.065,186.111,83.333,369.444,1486.111,888.889,N
1562,-0.215,-0.145,-0.065,61.111,69.444,91.667,280.556,1205.556,x
1563,-0.050,0.725,0.050,158.333,108.333,294.444,1661.111,1380.556,N
1564,0.020,0.250,0.205,194.444,111.111,316.667,486.111,1175.000,a
1565,-0.070,0.845,0.105,133.333,102.778,347.222,1425.000,938.889,N
1566,-0.105,0.775,-0.065,197.222,83.333,319.444,558.333,866.667,a
1567,-0.060,0.795,0.150,138.889,113.889,363.889,1491.667,933.333,N
1568,-0.010,0.645,0.010,194.444,88.889,325.000,544.444,947.222,a
1569,0.010,0.975,-0.200,116.667,102.778,311.111,383.333,161.111,A
1570,-0.125,0.885,0.055,177.778,113.889,330.556,1044.444,661.111,N
1571,0.030,0.350,0.035,58.333,113.889,322.222,525.000,519.444,a
1572,-0.175,0.885,0.035,177.778,83.333,355.556,1377.778,852.778,N
1573,-0.105,-0.050,0.035,58.333,63.889,86.111,272.222,1105.556,x
1574,-0.120,0.495,0.070,175.000,86.111,344.444,1836.111,1563.889,N
1575,0.050,0.360,0.220,197.222,105.556,325.000,497.222,1338.889,a
1576,-0.095,0.785,-0.005,152.778,113.889,341.667,1463.889,966.667,N
1577,-0.125,0.365,0.375,197.222,116.667,394.444,513.889,950.000,a
1578,-0.120,0.375,-0.080,58.333,116.667,116.667,336.111,177.778,a
1579,-0.110,0.785,-0.025,172.222,100.000,358.333,1088.889,752.778,N
1580,-0.125,0.310,0.085,197.222,102.778,102.778,527.778,561.111,a
1581,-0.135,0.835,-0.025,163.889,86.111,380.556,1541.667,1013.889,N
1582,-0.140,-0.100,-0.025,58.333,63.889,94.444,286.111,1255.556,x
1583,-0.100,0.755,0.020,158.333,100.000,336.111,1708.333,1422.222,N
1584,0.020,0.290,0.190,191.667,100.000,291.667,480.556,1227.778,a
1585,-0.150,0.890,0.055,172.222,80.556,322.222,1438.889,958.333,N
1586,0.080,0.315,0.070,58.333,116.667,361.111,586.111,852.778,a
1587,-0.215,0.850,-0.120,172.222,88.889,361.111,1505.556,919.444,N
1588,-0.125,0.745,0.090,194.444,83.333,316.667,511.111,994.444,a
1589,-0.205,0.915,-0.080,102.778,116.667,352.778,655.556,144.444,N
1590,-0.150,0.800,-0.140,180.556,88.889,338.889,1013.889,358.333,N
1591,-0.140,0.695,-0.075,180.556,83.333,325.000,461.111,552.778,A
1592,-0.115,0.820,0.040,155.556,116.667,319.444,1458.333,997.222,N
1593,-0.175,0.315,-0.060,72.222,91.667,91.667,619.444,838.889,a
1594,-0.095,0.885,0.110,194.444,116.667,361.111,1525.000,905.556,N
1595,-0.095,0.055,-0.015,55.556,111.111,111.111,277.778,1247.222,x
1596,-0.075,0.800,0.120,166.667,116.667,341.667,1688.889,1411.111,N
1597,0.115,0.275,0.235,197.222,116.667,327.778,483.333,1205.556,a
1598,-0.105,0.830,0.090,147.222,116.667,347.222,1547.222,1063.889,N
1599,-0.010,0.790,0.065,197.222,83.333,322.222,533.333,1013.889,A
1600,-0.160,0.900,0.050,183.333,116.667,344.444,1569.444,1036.111,N
1601,-0.135,0.440,0.285,44.444,100.000,100.000,580.556,988.889,a
1602,-0.170,0.945,0.045,163.889,83.333,330.556,1397.222,816.667,N
1603,-0.150,-0.035,0.045,63.889,66.667,94.444,238.889,1158.333,x
1604,-0.140,0.855,0.120,188.889,88.889,366.667,1688.889,1450.000,N
1605,0.050,0.550,0.310,197.222,102.778,344.444,527.778,1161.111,a
1606,0.310,0.555,0.125,127.778,97.222,308.333,427.778,100.000,a
1607,-0.180,0.825,-0.080,183.333,75.000,327.778,1091.667,663.889,N
1608,0.120,0.330,0.375,58.333,113.889,366.667,550.000,541.667,a
1609,0.100,0.275,-0.015,58.333,116.667,308.333,344.444,205.556,a
1610,-0.170,0.790,-0.040,172.222,105.556,344.444,1075.000,730.556,N
1611,-0.235,-0.110,-0.040,55.556,66.667,94.444,255.556,819.444,x
1612,-0.210,0.900,-0.050,52.778,102.778,341.667,611.111,355.556,N
1613,-0.110,0.815,0.060,188.889,102.778,338.889,1180.556,569.444,N
1614,-0.170,0.415,0.040,61.111,97.222,97.222,588.889,591.667,a
1615,-0.105,0.830,0.105,172.222,113.889,355.556,1591.667,1002.778,N
1616,-0.125,0.630,0.175,172.222,77.778,322.222,1969.444,377.778,N
1617,0.175,0.300,0.255,191.667,105.556,322.222,466.667,1502.778,a
1618,-0.185,0.790,0.020,177.778,111.111,358.333,1552.778,1086.111,N
1619,-0.160,-0.055,0.020,58.333,63.889,88.889,269.444,1283.333,x
1620,-0.120,-0.190,-0.130,25.000,2.778,27.778,308.333,38.889,x
1621,-0.090,0.795,0.065,177.778,108.333,338.889,1488.889,1180.556,N
1622,0.065,0.500,0.270,197.222,113.889,325.000,486.111,1002.778,a
1623,-0.080,0.790,-0.065,163.889,83.333,325.000,1463.889,977.778,N
1624,-0.075,0.905,0.015,175.000,100.000,341.667,1147.222,316.667,N
1625,-0.105,0.880,0.030,188.889,80.556,341.667,1216.667,69.444,N
1626,-0.130,0.315,0.575,80.556,86.111,355.556,1008.333,208.333,V
1627,-0.140,0.845,-0.080,191.667,80.556,322.222,705.556,302.778,N
1628,-0.115,0.805,0.085,161.111,113.889,288.889,1461.111,755.556,N
1629,-0.055,0.790,0.130,172.222,102.778,297.222,1952.778,491.667,N
1630,0.035,0.330,0.290,197.222,116.667,352.778,519.444,1433.333,a
1631,-0.045,1.040,0.080,177.778,86.111,325.000,1522.222,1002.778,N
1632,-0.020,0.910,0.085,191.667,111.111,305.556,1947.222,425.000,N
1633,0.030,0.570,0.165,194.444,102.778,305.556,497.222,1450.000,a
1634,0.165,1.080,-0.165,147.222,72.222,297.222,402.778,94.444,A
1635,-0.185,0.870,-0.040,175.000,83.333,333.333,941.667,538.889,N
1636,-0.290,0.965,-0.120,66.667,88.889,361.111,911.111,30.556,N
1637,-0.150,0.940,0.045,186.111,113.889,322.222,1038.889,127.778,N
1638,-0.055,0.725,0.005,197.222,83.333,311.111,519.444,519.444,A
1639,0.005,0.925,-0.160,119.444,108.333,308.333,386.111,133.333,A
1640,-0.105,0.960,0.050,175.000,105.556,341.667,980.556,594.444,N
1641,0.045,0.755,0.530,197.222,86.111,405.556,491.667,488.889,A
1642,-0.030,0.945,-0.155,105.556,108.333,297.222,358.333,133.333,A
1643,-0.135,0.965,0.060,183.333,80.556,358.333,1002.778,644.444,N
1644,0.020,0.810,-0.010,197.222,86.111,316.667,516.667,486.111,A
1645,-0.065,0.945,0.050,177.778,83.333,375.000,1483.333,966.667,N
1646,-0.090,-0.010,-0.045,58.333,111.111,116.667,294.444,1188.889,x
1647,-0.050,0.735,0.085,172.222,105.556,294.444,1716.667,1422.222,N
1648,0.060,0.370,0.530,194.444,113.889,402.778,488.889,1227.778,a
1649,0.190,0.565,0.045,108.333,94.444,277.778,350.000,138.889,a
1650,-0.150,0.835,0.055,177.778,111.111,291.667,1097.222,747.222,N
1651,-0.005,0.375,0.305,197.222,69.444,88.889,502.778,594.444,a
1652,0.030,-0.220,0.295,77.778,0.000,41.667,413.889,88.889,a
1653,-0.125,0.840,0.020,191.667,113.889,341.667,1286.111,872.222,N
1654,-0.145,0.795,-0.025,169.444,83.333,291.667,1263.889,22.222,N
1655,0.000,0.355,-0.010,58.333,116.667,322.222,541.667,722.222,a
1656,-0.165,0.830,0.015,166.667,113.889,305.556,1411.111,869.444,N
1657,-0.055,0.425,0.150,197.222,113.889,308.333,502.778,908.333,a
1658,-0.125,0.815,0.075,188.889,80.556,358.333,1508.333,1005.556,N
1659,-0.095,0.020,-0.115,58.333,116.667,116.667,300.000,1208.333,x
1660,0.265,-0.405,0.330,41.667,0.000,227.778,1811.111,1511.111,F
1661,0.165,0.490,0.240,197.222,102.778,308.333,463.889,1347.222,a
1662,-0.100,0.845,0.050,169.444,111.111,347.222,1422.222,958.333,N
1663,-0.005,0.045,-0.145,63.889,116.667,116.667,291.667,1130.556,x
1664,-0.060,0.785,0.095,180.556,113.889,344.444,1763.889,1472.222,N
1665,0.090,0.315,0.260,197.222,116.667,341.667,502.778,1261.111,a
1666,-0.105,0.855,0.030,161.111,111.111,327.778,1508.333,1005.556,N
1667,-0.070,-0.030,-0.115,58.333,113.889,113.889,263.889,1244.444,x
1668,-0.050,0.830,0.120,166.667,100.000,330.556,1647.222,1383.333,N
1669,-0.045,0.065,0.035,58.333,116.667,116.667,250.000,1397.222,x
1670,0.000,0.940,0.170,188.889,108.333,308.333,1688.889,1438.889,N
1671,0.040,0.490,0.315,197.222,116.667,352.778,541.667,1147.222,a
1672,-0.060,1.015,0.095,166.667,86.111,291.667,1500.000,958.333,N
1673,-0.030,0.000,-0.040,58.333,116.667,116.667,255.556,1244.444,x
1674,-0.040,0.805,0.170,161.111,113.889,341.667,1588.889,1333.333,N
1675,0.070,0.435,0.285,194.444,111.111,311.111,508.333,1080.556,a
1676,0.285,0.525,0.170,125.000,94.444,305.556,386.111,122.222,a
1677,-0.180,0.910,-0.120,152.778,116.667,338.889,558.333,172.222,A
1678,-0.125,0.905,0.080,180.556,86.111,358.333,1577.778,1019.444,N
1679,-0.105,0.020,-0.040,55.556,108.333,108.333,277.778,1300.000,x
1680,-0.195,0.875,-0.055,55.556,113.889,350.000,663.889,386.111,N
1681,-0.140,0.865,0.040,186.111,100.000,277.778,1180.556,516.667,N
1682,-0.215,0.425,0.045,61.111,111.111,352.778,541.667,638.889,a
1683,-0.120,0.865,0.090,183.333,113.889,336.111,1408.333,866.667,N
1684,-0.145,0.055,-0.105,63.889,116.667,116.667,258.333,1150.000,x
1685,-0.055,0.490,0.280,172.222,83.333,325.000,1827.778,1569.444,N
1686,0.060,0.375,0.200,197.222,116.667,341.667,525.000,1302.778,a
1687,-0.070,0.925,0.040,175.000,113.889,341.667,1380.556,855.556,N
1688,-0.170,0.850,-0.040,86.111,72.222,294.444,875.000,505.556,N
1689,-0.225,0.875,-0.065,88.889,88.889,322.222,516.667,358.333,N
1690,-0.065,1.045,-0.090,150.000,113.889,305.556,413.889,102.778,N
1691,-0.185,0.840,-0.110,58.333,102.778,327.778,588.889,175.000,N
1692,-0.110,0.905,-0.045,197.222,83.333,325.000,488.889,100.000,N
1693,-0.065,0.945,-0.110,197.222,116.667,327.778,483.333,5.556,N
1694,-0.110,0.910,-0.105,169.444,100.000,311.111,438.889,44.444,N
1695,-0.195,0.760,-0.195,72.222,108.333,322.222,525.000,86.111,N
1696,-0.235,0.845,-0.175,197.222,116.667,355.556,805.556,280.556,N
1697,-0.145,0.855,-0.140,152.778,75.000,291.667,569.444,236.111,N
1698,-0.140,0.890,-0.135,180.556,111.111,288.889,425.000,144.444,N
1699,-0.245,0.815,-0.165,194.444,105.556,286.111,594.444,169.444,N
1700,-0.175,0.735,-0.200,83.333,113.889,305.556,475.000,119.444,N
1701,-0.255,0.820,-0.225,58.333,88.889,361.111,552.778,77.778,N
1702,-0.235,0.855,-0.160,183.333,116.667,291.667,813.889,261.111,N
1703,-0.220,0.715,-0.100,172.222,108.333,313.889,825.000,11.111,N
1704,-0.190,0.805,-0.105,136.111,72.222,319.444,594.444,230.556,N
1705,-0.110,0.795,-0.090,194.444,105.556,305.556,475.000,119.444,N
1706,-0.245,0.725,-0.195,102.778,113.889,325.000,558.333,83.333,N
1707,-0.240,0.785,-0.125,175.000,111.111,313.889,675.000,116.667,N
1708,-0.225,0.835,-0.140,119.444,72.222,327.778,741.667,66.667,N
1709,-0.175,0.725,-0.170,188.889,105.556,277.778,500.000,241.667,N
1710,-0.210,0.740,-0.070,130.556,83.333,325.000,711.111,211.111,N
1711,-0.210,0.810,-0.205,194.444,102.778,297.222,652.778,58.333,N
1712,-0.245,0.865,-0.210,58.333,116.667,372.222,900.000,247.222,N
1713,-0.180,0.680,-0.110,136.111,113.889,336.111,550.000,350.000,N
1714,-0.215,0.735,-0.135,105.556,100.000,338.889,586.111,36.111,N
1715,-0.140,0.735,-0.145,197.222,80.556,288.889,491.667,94.444,N
1716,-0.245,0.695,-0.235,197.222,105.556,325.000,461.111,30.556,N
1717,-0.250,0.720,-0.115,119.444,100.000,327.778,647.222,186.111,N
1718,-0.230,0.720,-0.140,105.556,97.222,288.889,600.000,47.222,N
1719,-0.220,0.780,-0.150,113.889,77.778,319.444,558.333,41.667,N
1720,-0.150,0.805,-0.055,166.667,116.667,311.111,436.111,122.222,N
1721,-0.055,0.745,-0.080,138.889,97.222,305.556,391.667,44.444,N
1722,-0.080,0.870,-0.065,166.667,116.667,302.778,427.778,36.111,N
1723,-0.065,0.810,-0.055,177.778,108.333,397.222,422.222,5.556,N
1724,-0.125,0.880,-0.145,119.444,116.667,305.556,375.000,47.222,N
1725,-0.145,0.795,-0.200,166.667,113.889,308.333,413.889,38.889,N
1726,-0.225,0.705,-0.055,125.000,108.333,341.667,777.778,363.889,N
1727,-0.065,0.780,-0.180,197.222,116.667,311.111,508.333,269.444,N
1728,-0.150,0.935,-0.020,172.222,108.333,325.000,1141.667,633.333,N
1729,-0.125,0.835,-0.090,108.333,105.556,308.333,663.889,477.778,N
1730,-0.140,0.765,-0.110,61.111,102.778,208.333,536.111,127.778,N
1731,-0.185,0.840,-0.075,141.667,86.111,294.444,502.778,33.333,N
1732,-0.180,0.715,-0.175,61.111,108.333,294.444,497.222,5.556,N
1733,-0.150,0.775,-0.015,86.111,100.000,344.444,858.333,361.111,N
1734,-0.140,0.795,-0.085,133.333,86.111,322.222,650.000,208.333,N
1735,-0.220,0.860,-0.135,55.556,83.333,325.000,725.000,75.000,N
1736,-0.190,0.810,-0.070,122.222,100.000,294.444,697.222,27.778,N
1737,-0.200,0.815,-0.045,111.111,108.333,305.556,669.444,27.778,N
1738,-0.115,0.905,0.020,169.444,113.889,305.556,841.667,172.222,N
1739,-0.065,0.835,-0.035,83.333,102.778,277.778,500.000,341.667,N
1740,-0.090,0.985,0.000,186.111,105.556,258.333,486.111,13.889,N
1741,-0.120,0.975,-0.025,52.778,80.556,330.556,1183.333,697.222,N
1742,-0.130,0.935,-0.030,69.444,111.111,316.667,780.556,402.778,N
1743,-0.115,0.930,0.030,183.333,116.667,311.111,727.778,52.778,N
1744,-0.115,0.945,-0.045,55.556,80.556,302.778,658.333,69.444,N
1745,-0.135,0.950,0.020,97.222,66.667,294.444,791.667,133.333,N
1746,0.020,1.015,-0.015,183.333,116.667,291.667,436.111,355.556,N
1747,-0.015,0.950,-0.040,138.889,105.556,269.444,372.222,63.889,N
1748,-0.125,0.830,-0.040,161.111,108.333,286.111,488.889,116.667,N
1749,-0.130,0.975,-0.110,180.556,80.556,255.556,580.556,91.667,N
1750,-0.135,0.885,-0.015,133.333,113.889,322.222,719.444,138.889,N
1751,-0.130,0.900,-0.075,197.222,111.111,322.222,663.889,55.556,N
1752,-0.115,0.885,0.050,141.667,80.556,308.333,733.333,69.444,N
1753,-0.035,0.855,0.000,147.222,83.333,277.778,583.333,150.000,N
1754,-0.090,0.920,0.005,161.111,111.111,258.333,763.889,180.556,N
1755,-0.060,0.855,0.005,152.778,116.667,288.889,541.667,222.222,N
1756,-0.155,0.975,-0.060,186.111,88.889,322.222,933.333,391.667,N
1757,-0.080,0.780,-0.040,141.667,100.000,272.222,516.667,416.667,N
1758,-0.180,0.755,-0.030,141.667,108.333,291.667,702.778,186.111,N
1759,-0.155,0.925,-0.085,172.222,77.778,305.556,747.222,44.444,N
1760,-0.185,0.855,-0.045,102.778,100.000,308.333,697.222,50.000,N
1761,-0.165,0.745,-0.040,150.000,116.667,322.222,616.667,80.556,N
1762,-0.190,0.765,-0.030,105.556,80.556,308.333,736.111,119.444,N
1763,-0.030,1.010,-0.135,197.222,111.111,297.222,458.333,277.778,N
1764,-0.180,0.890,-0.115,197.222,108.333,294.444,550.000,91.667,N
1765,-0.160,0.850,-0.055,163.889,105.556,327.778,822.222,272.222,N
1766,-0.120,0.895,0.010,111.111,77.778,288.889,625.000,197.222,N
1767,-0.125,0.945,-0.065,180.556,86.111,241.667,619.444,5.556,N
1768,-0.135,0.890,-0.015,58.333,113.889,311.111,797.222,177.778,N
1769,-0.155,0.810,-0.035,119.444,116.667,305.556,741.667,55.556,N
1770,-0.115,0.910,0.035,63.889,116.667,305.556,880.556,138.889,N
1771,0.015,0.980,0.020,194.444,116.667,311.111,447.222,433.333,N
1772,-0.100,0.895,0.005,55.556,111.111,316.667,788.889,341.667,N
1773,-0.120,0.890,0.015,88.889,75.000,294.444,733.333,55.556,N
1774,-0.130,0.975,-0.070,169.444,102.778,213.889,597.222,136.111,N
1775,-0.125,0.865,-0.045,58.333,113.889,305.556,719.444,122.222,N
1776,-0.060,0.895,0.040,194.444,94.444,283.333,455.556,263.889,N
1777,-0.135,0.880,-0.095,125.000,77.778,91.667,727.778,272.222,N
1778,-0.150,0.895,-0.075,69.444,100.000,308.333,680.556,47.222,N
1779,-0.175,0.840,-0.085,58.333,111.111,322.222,719.444,38.889,N
1780,-0.075,0.795,-0.030,69.444,100.000,288.889,594.444,125.000,N
1781,-0.150,0.865,-0.045,163.889,116.667,288.889,800.000,205.556,N
1782,-0.135,0.800,-0.055,138.889,116.667,286.111,502.778,297.222,N
1783,-0.170,0.730,-0.020,127.778,108.333,305.556,872.222,369.444,N
1784,-0.165,0.785,-0.080,197.222,116.667,300.000,597.222,275.000,N
1785,-0.180,0.815,-0.055,125.000,111.111,277.778,800.000,202.778,N
1786,-0.165,0.825,-0.080,194.444,111.111,288.889,602.778,197.222,N
1787,-0.175,0.830,-0.120,194.444,111.111,238.889,716.667,113.889,N
1788,-0.205,0.875,-0.125,186.111,88.889,319.444,708.333,8.333,N
1789,-0.200,0.790,-0.005,108.333,108.333,291.667,669.444,38.889,N
1790,-0.190,0.695,-0.080,119.444,116.667,305.556,544.444,125.000,N
1791,-0.230,0.720,-0.105,63.889,116.667,288.889,616.667,72.222,N
1792,-0.205,0.830,-0.055,136.111,86.111,258.333,600.000,16.667,N
1793,-0.180,0.780,-0.075,138.889,105.556,258.333,838.889,238.889,N
1794,-0.160,0.720,-0.080,177.778,111.111,313.889,736.111,102.778,N
1795,-0.180,0.915,-0.085,180.556,86.111,302.778,719.444,16.667,N
1796,-0.085,0.825,-0.090,191.667,111.111,308.333,447.222,272.222,N
1797,-0.190,0.800,-0.060,141.667,113.889,294.444,616.667,169.444,N
1798,-0.065,0.890,-0.110,188.889,111.111,288.889,444.444,172.222,N
1799,-0.195,0.860,-0.075,147.222,83.333,305.556,808.333,363.889,N
1800,-0.185,0.955,-0.130,183.333,116.667,383.333,708.333,100.000,N
1801,-0.135,0.800,-0.130,188.889,113.889,247.222,533.333,175.000,N
1802,-0.190,0.905,-0.065,58.333,113.889,291.667,858.333,325.000,N
1803,-0.180,0.920,-0.100,188.889,75.000,283.333,708.333,150.000,N
1804,-0.205,0.855,-0.040,55.556,113.889,291.667,822.222,113.889,N
1805,-0.165,0.830,-0.070,52.778,108.333,325.000,794.444,27.778,N
1806,-0.195,0.715,-0.125,47.222,72.222,280.556,594.444,200.000,N
1807,-0.215,0.810,-0.070,58.333,88.889,305.556,719.444,125.000,N
1808,-0.155,0.715,-0.030,58.333,86.111,258.333,522.222,197.222,N
1809,-0.155,0.885,-0.090,172.222,108.333,266.667,611.111,88.889,N
1810,-0.130,0.850,-0.040,180.556,111.111,241.667,488.889,122.222,N
1811,-0.055,0.945,-0.160,186.111,113.889,277.778,413.889,75.000,N
1812,-0.245,0.865,-0.170,183.333,116.667,308.333,625.000,211.111,N
1813,-0.235,0.800,-0.155,197.222,113.889,322.222,730.556,105.556,N
1814,-0.240,0.825,-0.085,72.222,111.111,305.556,738.889,8.333,N
1815,-0.230,0.865,-0.070,161.111,108.333,255.556,672.222,66.667,N
1816,-0.210,0.660,-0.090,125.000,102.778,277.778,513.889,158.333,N
1817,-0.205,0.810,-0.040,188.889,111.111,294.444,733.333,219.444,N
1818,-0.145,0.820,-0.075,197.222,105.556,308.333,472.222,261.111,N
1819,-0.195,0.850,-0.130,58.333,83.333,300.000,650.000,177.778,N
1820,-0.220,0.815,-0.145,136.111,97.222,294.444,641.667,8.333,N
1821,-0.205,0.795,-0.100,52.778,102.778,277.778,663.889,22.222,N
1822,-0.200,0.875,-0.085,180.556,80.556,305.556,677.778,13.889,N
1823,-0.180,0.865,-0.055,138.889,111.111,288.889,658.333,19.444,N
1824,-0.155,0.820,-0.005,138.889,113.889,300.000,719.444,61.111,N
1825,-0.160,0.765,-0.070,177.778,108.333,311.111,616.667,102.778,N
1826,-0.160,0.860,-0.045,150.000,113.889,277.778,644.444,27.778,N
1827,-0.180,0.780,-0.115,177.778,111.111,275.000,572.222,72.222,N
1828,-0.160,0.815,-0.055,177.778,113.889,297.222,650.000,77.778,N
1829,-0.005,0.320,-0.055,58.333,116.667,294.444,422.222,227.778,a
1830,-0.220,0.720,-0.090,108.333,77.778,286.111,494.444,72.222,N
1831,-0.225,0.840,-0.135,183.333,86.111,302.778,608.333,113.889,N
1832,-0.135,0.645,-0.095,152.778,113.889,308.333,397.222,211.111,a
1833,-0.225,0.765,-0.095,58.333,116.667,308.333,650.000,252.778,N
1834,-0.180,0.900,-0.060,83.333,80.556,319.444,766.667,116.667,N
1835,-0.200,0.865,-0.075,188.889,116.667,302.778,672.222,94.444,N
1836,-0.140,0.835,-0.065,172.222,116.667,252.778,666.667,5.556,N
1837,-0.140,0.795,-0.040,141.667,102.778,305.556,869.444,202.778,N
1838,-0.155,0.920,0.000,111.111,77.778,272.222,622.222,247.222,N
1839,-0.180,0.860,-0.030,119.444,108.333,261.111,694.444,72.222,N
