id,Pamp,Ramp,Tamp,PR,QRS,QT,RRI,dRRI,label
1,-0.240,0.810,-0.270,133.333,47.222,352.778,788.889,22.222,N
2,-0.230,0.820,-0.305,183.333,41.667,344.444,791.667,2.778,N
3,-0.195,0.885,-0.280,138.889,44.444,372.222,788.889,2.778,N
4,-0.200,0.945,-0.270,138.889,44.444,366.667,816.667,27.778,N
5,-0.205,0.845,-0.305,163.889,41.667,369.444,652.778,163.889,A
6,-0.255,0.845,-0.355,152.778,50.000,372.222,994.444,341.667,N
7,-0.245,0.890,-0.285,138.889,41.667,372.222,844.444,150.000,N
8,-0.195,0.925,-0.250,130.556,41.667,366.667,811.111,33.333,N
9,-0.170,0.820,-0.245,130.556,41.667,358.333,788.889,22.222,N
10,-0.205,0.835,-0.285,169.444,41.667,372.222,772.222,16.667,N
11,-0.190,0.885,-0.245,141.667,41.667,363.889,838.889,66.667,N
12,-0.175,0.860,-0.260,147.222,47.222,363.889,855.556,16.667,N
13,-0.205,0.795,-0.300,138.889,47.222,375.000,822.222,33.333,N
14,-0.230,0.815,-0.330,177.778,47.222,361.111,827.778,5.556,N
15,-0.220,0.890,-0.265,169.444,44.444,355.556,822.222,5.556,N
16,-0.185,0.820,-0.265,127.778,38.889,358.333,794.444,27.778,N
17,-0.215,0.925,-0.300,130.556,55.556,352.778,797.222,2.778,N
18,-0.225,0.895,-0.280,169.444,41.667,352.778,791.667,5.556,N
19,-0.190,0.955,-0.285,186.111,44.444,369.444,822.222,30.556,N
20,-0.200,0.875,-0.275,144.444,44.444,363.889,869.444,47.222,N
21,-0.215,0.840,-0.295,144.444,44.444,372.222,822.222,47.222,N
22,-0.230,0.935,-0.245,141.667,41.667,372.222,786.111,36.111,N
23,-0.190,0.930,-0.255,133.333,55.556,369.444,791.667,5.556,N
24,-0.190,0.880,-0.305,177.778,41.667,338.889,775.000,16.667,N
25,-0.220,0.920,-0.320,186.111,44.444,372.222,786.111,11.111,N
26,-0.240,0.855,-0.335,133.333,50.000,366.667,811.111,25.000,N
27,-0.280,0.845,-0.370,136.111,41.667,358.333,816.667,5.556,N
28,-0.295,0.725,-0.425,141.667,44.444,366.667,827.778,11.111,N
29,-0.315,0.800,-0.365,172.222,47.222,369.444,844.444,16.667,N
30,-0.255,1.005,-0.320,130.556,47.222,361.111,805.556,38.889,N
31,-0.230,0.855,-0.305,133.333,41.667,358.333,775.000,30.556,N
32,-0.255,0.795,-0.325,169.444,47.222,375.000,800.000,25.000,N
33,-0.275,0.850,-0.335,138.889,44.444,366.667,788.889,11.111,N
34,-0.240,0.955,-0.335,150.000,44.444,363.889,858.333,69.444,N
35,-0.255,0.835,-0.340,188.889,47.222,369.444,841.667,16.667,N
36,-0.290,0.795,-0.325,177.778,41.667,355.556,825.000,16.667,N
37,-0.270,0.885,-0.320,130.556,44.444,369.444,802.778,22.222,N
38,-0.210,1.050,-0.300,136.111,44.444,341.667,836.111,33.333,N
39,-0.225,0.850,-0.315,144.444,36.111,344.444,791.667,44.444,N
40,-0.285,0.820,-0.380,138.889,52.778,366.667,788.889,2.778,N
41,-0.290,0.850,-0.375,186.111,44.444,369.444,819.444,30.556,N
42,-0.270,0.885,-0.355,136.111,47.222,372.222,844.444,25.000,N
43,-0.250,0.810,-0.360,150.000,55.556,372.222,880.556,36.111,N
44,-0.265,0.835,-0.330,172.222,41.667,361.111,822.222,58.333,N
45,-0.225,0.930,-0.295,163.889,50.000,361.111,777.778,44.444,N
46,-0.190,0.925,-0.305,180.556,41.667,358.333,802.778,25.000,N
47,-0.205,0.770,-0.345,125.000,41.667,363.889,811.111,8.333,N
48,-0.300,0.735,-0.360,169.444,44.444,369.444,797.222,13.889,N
49,-0.260,0.850,-0.300,144.444,41.667,363.889,836.111,38.889,N
50,-0.220,0.850,-0.295,136.111,47.222,369.444,830.556,5.556,N
51,-0.200,0.790,-0.330,133.333,44.444,361.111,825.000,5.556,N
52,-0.245,0.775,-0.310,161.111,41.667,361.111,811.111,13.889,N
53,-0.230,1.020,-0.305,166.667,58.333,361.111,788.889,22.222,N
54,-0.230,0.935,-0.315,122.222,47.222,363.889,780.556,8.333,N
55,-0.265,0.765,-0.355,141.667,44.444,372.222,808.333,27.778,N
56,-0.245,0.860,-0.295,147.222,41.667,361.111,841.667,33.333,N
57,-0.180,0.945,-0.265,136.111,41.667,366.667,833.333,8.333,N
58,-0.170,1.020,-0.280,141.667,55.556,366.667,830.556,2.778,N
59,-0.230,0.810,-0.325,183.333,41.667,347.222,805.556,25.000,N
60,-0.275,0.815,-0.300,177.778,52.778,372.222,777.778,27.778,N
61,-0.225,0.805,-0.330,141.667,44.444,350.000,797.222,19.444,N
62,-0.260,0.705,-0.345,138.889,50.000,377.778,780.556,16.667,N
63,-0.275,0.775,-0.345,175.000,41.667,361.111,791.667,11.111,N
64,-0.180,0.960,-0.240,150.000,44.444,372.222,855.556,63.889,N
65,-0.155,0.955,-0.235,136.111,50.000,377.778,847.222,8.333,N
66,-0.135,0.830,-0.255,136.111,41.667,372.222,822.222,25.000,N
67,-0.175,0.885,-0.230,136.111,41.667,355.556,783.333,38.889,N
68,-0.115,1.030,-0.175,138.889,41.667,366.667,786.111,2.778,N
69,-0.080,0.910,-0.175,141.667,41.667,361.111,786.111,0.000,N
70,-0.105,0.890,-0.210,141.667,44.444,363.889,816.667,30.556,N
71,-0.140,0.985,-0.210,172.222,50.000,372.222,811.111,5.556,N
72,-0.110,1.045,-0.155,144.444,41.667,372.222,850.000,38.889,N
73,-0.100,0.915,-0.215,150.000,44.444,372.222,833.333,16.667,N
74,-0.180,0.850,-0.280,166.667,41.667,361.111,811.111,22.222,N
75,-0.210,0.910,-0.245,177.778,41.667,344.444,783.333,27.778,N
76,-0.145,0.990,-0.230,133.333,41.667,372.222,772.222,11.111,N
77,-0.170,0.875,-0.240,141.667,41.667,369.444,786.111,13.889,N
78,-0.190,0.825,-0.280,191.667,47.222,366.667,802.778,16.667,N
79,-0.170,0.905,-0.245,150.000,44.444,372.222,841.667,38.889,N
80,-0.145,0.990,-0.225,136.111,47.222,369.444,825.000,16.667,N
81,-0.140,0.875,-0.260,133.333,41.667,352.778,811.111,13.889,N
82,-0.235,0.835,-0.305,133.333,41.667,361.111,777.778,33.333,N
83,-0.200,1.065,-0.285,130.556,47.222,361.111,800.000,22.222,N
84,-0.200,0.855,-0.280,136.111,41.667,352.778,788.889,11.111,N
85,-0.215,0.835,-0.305,183.333,44.444,358.333,800.000,11.111,N
86,-0.230,0.910,-0.280,138.889,55.556,375.000,816.667,16.667,N
87,-0.185,0.910,-0.260,147.222,52.778,375.000,858.333,41.667,N
88,-0.190,0.860,-0.310,136.111,44.444,369.444,830.556,27.778,N
89,-0.220,0.770,-0.320,127.778,41.667,361.111,786.111,44.444,N
90,-0.220,0.955,-0.290,125.000,41.667,363.889,783.333,2.778,N
91,-0.185,0.945,-0.235,166.667,44.444,372.222,791.667,8.333,N
92,-0.140,0.895,-0.250,177.778,41.667,372.222,830.556,38.889,N
93,-0.190,0.940,-0.315,175.000,61.111,372.222,825.000,5.556,N
94,-0.240,0.915,-0.320,138.889,50.000,377.778,830.556,5.556,N
95,-0.240,0.890,-0.330,136.111,47.222,361.111,830.556,0.000,N
96,-0.230,0.760,-0.330,144.444,44.444,358.333,822.222,8.333,N
97,-0.265,0.735,-0.335,175.000,52.778,377.778,797.222,25.000,N
98,-0.225,0.895,-0.295,133.333,41.667,372.222,777.778,19.444,N
99,-0.190,0.995,-0.235,125.000,47.222,366.667,794.444,16.667,N
100,-0.150,0.955,-0.280,136.111,50.000,369.444,813.889,19.444,N
101,-0.200,0.925,-0.265,147.222,44.444,372.222,858.333,44.444,N
102,-0.165,1.010,-0.250,141.667,41.667,363.889,847.222,11.111,N
103,-0.170,0.875,-0.250,136.111,38.889,347.222,811.111,36.111,N
104,-0.185,0.920,-0.250,180.556,41.667,361.111,794.444,16.667,N
105,-0.160,0.975,-0.230,169.444,41.667,352.778,786.111,8.333,N
106,-0.160,0.900,-0.260,136.111,50.000,363.889,797.222,11.111,N
107,-0.200,0.800,-0.315,183.333,52.778,369.444,811.111,13.889,N
108,-0.245,0.905,-0.310,183.333,47.222,375.000,825.000,13.889,N
109,-0.225,1.005,-0.310,186.111,52.778,377.778,847.222,22.222,N
110,-0.205,0.920,-0.310,133.333,47.222,372.222,852.778,5.556,N
111,-0.255,0.890,-0.330,175.000,50.000,355.556,808.333,44.444,N
112,-0.245,0.890,-0.280,161.111,38.889,347.222,766.667,41.667,N
113,-0.160,1.085,-0.250,130.556,47.222,355.556,800.000,33.333,N
114,-0.170,0.870,-0.280,180.556,52.778,375.000,802.778,2.778,N
115,-0.225,0.900,-0.325,147.222,44.444,361.111,816.667,13.889,N
116,-0.175,1.035,-0.250,183.333,47.222,375.000,836.111,19.444,N
117,-0.150,1.000,-0.240,133.333,41.667,372.222,819.444,16.667,N
118,-0.170,0.895,-0.300,136.111,44.444,361.111,827.778,8.333,N
119,-0.215,0.925,-0.250,177.778,38.889,363.889,797.222,30.556,N
120,-0.155,1.030,-0.230,127.778,38.889,363.889,780.556,16.667,N
121,-0.160,0.970,-0.235,130.556,41.667,358.333,777.778,2.778,N
122,-0.195,0.925,-0.295,133.333,50.000,363.889,813.889,36.111,N
123,-0.225,0.940,-0.290,186.111,50.000,375.000,822.222,8.333,N
124,-0.190,0.985,-0.265,150.000,44.444,361.111,863.889,41.667,N
125,-0.190,0.890,-0.290,144.444,41.667,347.222,830.556,33.333,N
126,-0.225,0.830,-0.295,136.111,41.667,366.667,788.889,41.667,N
127,-0.210,0.915,-0.255,138.889,41.667,352.778,786.111,2.778,N
128,-0.175,0.995,-0.235,133.333,38.889,363.889,802.778,16.667,N
129,-0.170,0.865,-0.270,166.667,44.444,358.333,791.667,11.111,N
130,-0.235,0.850,-0.345,169.444,52.778,366.667,819.444,27.778,N
131,-0.260,0.890,-0.275,180.556,44.444,358.333,830.556,11.111,N
132,-0.150,0.965,-0.210,138.889,50.000,377.778,838.889,8.333,N
133,-0.150,0.820,-0.245,136.111,47.222,369.444,819.444,19.444,N
134,-0.215,0.805,-0.310,177.778,41.667,361.111,772.222,47.222,N
135,-0.240,0.920,-0.270,136.111,41.667,344.444,752.778,19.444,N
136,-0.185,0.870,-0.295,136.111,41.667,366.667,794.444,41.667,N
137,-0.210,0.760,-0.330,177.778,47.222,363.889,819.444,25.000,N
138,-0.275,0.820,-0.345,172.222,41.667,366.667,813.889,5.556,N
139,-0.220,0.900,-0.280,141.667,55.556,375.000,836.111,22.222,N
140,-0.185,0.875,-0.275,136.111,41.667,341.667,822.222,13.889,N
141,-0.245,0.780,-0.345,180.556,44.444,358.333,783.333,38.889,N
142,-0.250,0.840,-0.330,138.889,41.667,350.000,744.444,38.889,N
143,-0.255,0.965,-0.320,125.000,47.222,355.556,830.556,86.111,N
144,-0.255,0.880,-0.370,130.556,52.778,375.000,780.556,50.000,N
145,-0.285,0.810,-0.395,183.333,52.778,372.222,830.556,50.000,N
146,-0.235,0.910,-0.290,144.444,41.667,372.222,863.889,33.333,N
147,-0.200,0.850,-0.270,136.111,44.444,338.889,822.222,41.667,N
148,-0.205,0.860,-0.325,125.000,44.444,366.667,802.778,19.444,N
149,-0.260,0.860,-0.285,166.667,41.667,341.667,777.778,25.000,N
150,-0.190,0.920,-0.255,169.444,47.222,355.556,786.111,8.333,N
151,-0.185,0.935,-0.255,138.889,44.444,355.556,800.000,13.889,N
152,-0.205,0.855,-0.310,180.556,44.444,358.333,797.222,2.778,N
153,-0.250,0.850,-0.285,180.556,44.444,366.667,813.889,16.667,N
154,-0.185,0.960,-0.290,141.667,44.444,369.444,847.222,33.333,N
155,-0.210,0.795,-0.320,136.111,38.889,372.222,825.000,22.222,N
156,-0.295,0.825,-0.310,130.556,47.222,369.444,775.000,50.000,N
157,-0.225,0.940,-0.310,122.222,47.222,366.667,761.111,13.889,N
158,-0.240,0.710,-0.325,136.111,38.889,352.778,780.556,19.444,N
159,-0.300,0.720,-0.395,138.889,47.222,369.444,772.222,8.333,N
160,-0.300,0.775,-0.330,144.444,47.222,372.222,825.000,52.778,N
161,-0.210,0.895,-0.290,141.667,55.556,375.000,827.778,2.778,N
162,-0.225,0.795,-0.350,175.000,47.222,369.444,797.222,30.556,N
163,-0.305,0.735,-0.385,177.778,44.444,369.444,786.111,11.111,N
164,-0.260,0.840,-0.305,133.333,41.667,361.111,788.889,2.778,N
165,-0.215,0.920,-0.290,141.667,41.667,330.556,777.778,11.111,N
166,-0.220,0.870,-0.295,133.333,41.667,372.222,761.111,16.667,N
167,-0.235,0.875,-0.305,141.667,50.000,366.667,786.111,25.000,N
168,-0.190,0.905,-0.270,141.667,47.222,372.222,819.444,33.333,N
169,-0.175,0.910,-0.285,141.667,47.222,372.222,847.222,27.778,N
170,-0.220,0.855,-0.350,136.111,44.444,361.111,808.333,38.889,N
171,-0.290,0.815,-0.345,163.889,44.444,355.556,769.444,38.889,N
172,-0.210,0.940,-0.265,127.778,41.667,358.333,777.778,8.333,N
173,-0.190,0.900,-0.250,138.889,41.667,369.444,791.667,13.889,N
174,-0.220,0.780,-0.345,144.444,50.000,372.222,786.111,5.556,N
175,-0.280,0.815,-0.270,186.111,50.000,375.000,797.222,11.111,N
176,-0.175,0.975,-0.230,138.889,41.667,372.222,819.444,22.222,N
177,-0.160,0.900,-0.250,141.667,44.444,369.444,819.444,0.000,N
178,-0.210,0.805,-0.310,177.778,41.667,363.889,805.556,13.889,N
179,-0.240,0.845,-0.245,133.333,44.444,355.556,772.222,33.333,N
180,-0.165,0.965,-0.235,175.000,38.889,347.222,775.000,2.778,N
181,-0.175,0.860,-0.285,136.111,41.667,358.333,772.222,2.778,N
182,-0.235,0.775,-0.320,138.889,50.000,372.222,805.556,33.333,N
183,-0.225,0.885,-0.245,144.444,47.222,375.000,811.111,5.556,N
184,-0.150,0.915,-0.235,147.222,44.444,355.556,822.222,11.111,N
185,-0.160,0.810,-0.270,183.333,44.444,372.222,800.000,22.222,N
186,-0.210,0.835,-0.300,169.444,50.000,366.667,769.444,30.556,N
187,-0.165,0.940,-0.205,136.111,41.667,355.556,777.778,8.333,N
188,-0.115,0.920,-0.210,122.222,38.889,350.000,775.000,2.778,N
189,-0.135,0.870,-0.280,144.444,55.556,375.000,783.333,8.333,N
190,-0.245,0.780,-0.330,141.667,47.222,366.667,786.111,2.778,N
191,-0.210,0.850,-0.235,191.667,55.556,372.222,830.556,44.444,N
192,-0.120,0.965,-0.225,147.222,44.444,361.111,819.444,11.111,N
193,-0.145,0.895,-0.265,161.111,50.000,366.667,783.333,36.111,N
194,-0.220,0.845,-0.275,127.778,44.444,344.444,752.778,30.556,N
195,-0.185,0.975,-0.260,166.667,44.444,358.333,772.222,19.444,N
196,-0.205,0.835,-0.280,172.222,47.222,358.333,783.333,11.111,N
197,-0.245,0.860,-0.320,180.556,55.556,366.667,791.667,8.333,N
198,-0.265,0.830,-0.270,138.889,47.222,372.222,811.111,19.444,N
199,-0.170,0.940,-0.235,144.444,41.667,361.111,827.778,16.667,N
200,-0.155,0.870,-0.255,147.222,41.667,366.667,827.778,0.000,N
201,-0.205,0.795,-0.300,177.778,41.667,363.889,802.778,25.000,N
202,-0.200,0.900,-0.200,127.778,44.444,358.333,769.444,33.333,N
203,-0.140,0.900,-0.210,130.556,44.444,358.333,769.444,0.000,N
204,-0.170,0.755,-0.260,133.333,47.222,375.000,800.000,30.556,N
205,-0.250,0.825,-0.345,138.889,52.778,375.000,819.444,19.444,N
206,-0.250,0.835,-0.275,141.667,58.333,372.222,836.111,16.667,N
207,-0.175,0.850,-0.240,144.444,44.444,363.889,838.889,2.778,N
208,-0.175,0.750,-0.285,130.556,41.667,361.111,800.000,38.889,N
209,-0.240,0.745,-0.345,138.889,44.444,366.667,794.444,5.556,N
210,-0.235,0.835,-0.260,136.111,41.667,366.667,802.778,8.333,N
211,-0.155,0.910,-0.225,127.778,50.000,350.000,786.111,16.667,N
212,-0.155,0.860,-0.265,166.667,50.000,372.222,788.889,2.778,N
213,-0.210,0.885,-0.285,133.333,55.556,361.111,833.333,44.444,N
214,-0.165,0.940,-0.210,144.444,44.444,363.889,847.222,13.889,N
215,-0.120,0.960,-0.205,183.333,55.556,344.444,838.889,8.333,N
216,-0.185,0.750,-0.275,175.000,41.667,361.111,788.889,50.000,N
217,-0.225,0.805,-0.270,130.556,38.889,358.333,758.333,30.556,N
218,-0.200,0.885,-0.290,136.111,44.444,363.889,797.222,38.889,N
219,-0.200,0.770,-0.340,130.556,41.667,369.444,805.556,8.333,N
220,-0.280,0.760,-0.315,183.333,50.000,377.778,813.889,8.333,N
221,-0.220,0.920,-0.235,183.333,41.667,372.222,819.444,5.556,N
222,-0.160,0.910,-0.235,180.556,38.889,363.889,827.778,8.333,N
223,-0.160,0.815,-0.285,130.556,41.667,355.556,805.556,22.222,N
224,-0.260,0.805,-0.325,141.667,41.667,344.444,794.444,11.111,N
225,-0.205,0.950,-0.270,136.111,52.778,372.222,777.778,16.667,N
226,-0.205,0.875,-0.290,125.000,38.889,361.111,769.444,8.333,N
227,-0.190,0.780,-0.240,186.111,44.444,305.556,825.000,55.556,N
228,-0.330,1.015,-0.325,161.111,50.000,177.778,522.222,302.778,A
229,-0.210,0.880,-0.235,138.889,44.444,363.889,938.889,416.667,N
230,-0.180,0.940,-0.285,188.889,50.000,341.667,844.444,94.444,N
231,-0.230,0.780,-0.350,188.889,50.000,355.556,816.667,27.778,N
232,-0.295,0.765,-0.335,130.556,44.444,358.333,775.000,41.667,N
233,-0.235,0.955,-0.260,183.333,41.667,358.333,819.444,44.444,N
234,-0.170,0.870,-0.230,144.444,50.000,369.444,811.111,8.333,N
235,-0.175,0.860,-0.265,177.778,47.222,372.222,811.111,0.000,N
236,-0.175,0.925,-0.235,186.111,47.222,375.000,847.222,36.111,N
237,-0.150,0.970,-0.245,136.111,47.222,355.556,866.667,19.444,N
238,-0.175,0.870,-0.270,136.111,38.889,338.889,813.889,52.778,N
239,-0.220,0.835,-0.300,169.444,41.667,369.444,769.444,44.444,N
240,-0.195,0.925,-0.235,133.333,41.667,350.000,788.889,19.444,N
241,-0.155,0.950,-0.225,183.333,41.667,358.333,794.444,5.556,N
242,-0.145,0.825,-0.315,144.444,44.444,363.889,827.778,33.333,N
243,-0.240,0.820,-0.325,188.889,47.222,372.222,830.556,2.778,N
244,-0.200,0.875,-0.260,138.889,41.667,363.889,830.556,0.000,N
245,-0.190,0.885,-0.275,186.111,44.444,369.444,850.000,19.444,N
246,-0.190,0.825,-0.290,130.556,41.667,355.556,813.889,36.111,N
247,-0.220,0.875,-0.260,161.111,41.667,361.111,775.000,38.889,N
248,-0.140,1.080,-0.195,125.000,47.222,355.556,794.444,19.444,N
249,-0.150,0.915,-0.250,136.111,41.667,369.444,819.444,25.000,N
250,-0.225,0.795,-0.340,183.333,44.444,372.222,841.667,22.222,N
251,-0.290,0.765,-0.295,147.222,44.444,366.667,861.111,19.444,N
252,-0.190,0.940,-0.245,141.667,52.778,355.556,833.333,27.778,N
253,-0.160,0.920,-0.270,127.778,41.667,352.778,791.667,41.667,N
254,-0.230,0.795,-0.355,166.667,44.444,366.667,797.222,5.556,N
255,-0.255,0.880,-0.285,133.333,41.667,358.333,788.889,8.333,N
256,-0.175,0.990,-0.300,175.000,41.667,361.111,608.333,180.556,A
257,-0.210,0.840,-0.340,172.222,41.667,369.444,961.111,352.778,N
258,-0.295,0.760,-0.385,138.889,41.667,366.667,833.333,127.778,N
259,-0.240,0.815,-0.290,144.444,52.778,372.222,838.889,5.556,N
260,-0.195,0.895,-0.255,133.333,41.667,347.222,830.556,8.333,N
261,-0.160,0.850,-0.295,175.000,41.667,350.000,783.333,47.222,N
262,-0.245,0.775,-0.330,125.000,41.667,366.667,750.000,33.333,N
263,-0.210,0.920,-0.265,177.778,41.667,366.667,802.778,52.778,N
264,-0.180,0.890,-0.290,138.889,47.222,372.222,811.111,8.333,N
265,-0.220,0.745,-0.365,177.778,38.889,358.333,825.000,13.889,N
266,-0.310,0.805,-0.345,166.667,44.444,369.444,808.333,16.667,N
267,-0.240,0.930,-0.285,130.556,41.667,347.222,825.000,16.667,N
268,-0.210,0.895,-0.275,130.556,41.667,363.889,800.000,25.000,N
269,-0.250,0.870,-0.355,133.333,50.000,358.333,791.667,8.333,N
270,-0.315,0.810,-0.330,133.333,41.667,372.222,766.667,25.000,N
271,-0.265,0.885,-0.345,177.778,41.667,363.889,794.444,27.778,N
272,-0.290,0.790,-0.380,188.889,44.444,372.222,841.667,47.222,N
273,-0.340,0.670,-0.445,133.333,44.444,366.667,838.889,2.778,N
274,-0.360,0.705,-0.360,138.889,44.444,366.667,830.556,8.333,N
275,-0.245,0.895,-0.300,122.222,41.667,369.444,813.889,16.667,N
276,-0.215,0.785,-0.335,163.889,38.889,358.333,791.667,22.222,N
277,-0.310,0.865,-0.410,186.111,50.000,375.000,788.889,2.778,N
278,-0.300,0.915,-0.365,133.333,50.000,363.889,797.222,8.333,N
279,-0.280,0.865,-0.310,138.889,44.444,369.444,808.333,11.111,N
280,-0.245,0.730,-0.365,172.222,47.222,372.222,833.333,25.000,N
281,-0.295,0.865,-0.365,186.111,50.000,375.000,847.222,13.889,N
282,-0.220,0.890,-0.280,133.333,41.667,369.444,836.111,11.111,N
283,-0.200,0.890,-0.275,133.333,47.222,350.000,808.333,27.778,N
284,-0.225,0.770,-0.355,163.889,38.889,358.333,783.333,25.000,N
285,-0.290,0.820,-0.330,163.889,44.444,361.111,786.111,2.778,N
286,-0.225,0.880,-0.290,138.889,44.444,372.222,838.889,52.778,N
287,-0.190,0.810,-0.265,141.667,47.222,363.889,858.333,19.444,N
288,-0.200,0.800,-0.315,175.000,44.444,363.889,844.444,13.889,N
289,-0.245,0.865,-0.260,180.556,50.000,366.667,838.889,5.556,N
290,-0.185,0.915,-0.260,133.333,44.444,361.111,836.111,2.778,N
291,-0.200,0.785,-0.340,180.556,52.778,375.000,813.889,22.222,N
292,-0.295,0.815,-0.330,127.778,44.444,361.111,769.444,44.444,N
293,-0.225,0.880,-0.275,166.667,44.444,372.222,805.556,36.111,N
294,-0.185,0.835,-0.245,141.667,44.444,366.667,836.111,30.556,N
295,-0.195,0.795,-0.325,175.000,44.444,369.444,852.778,16.667,N
296,-0.245,0.930,-0.255,127.778,47.222,361.111,838.889,13.889,N
297,-0.150,1.140,-0.255,136.111,50.000,366.667,830.556,8.333,N
298,-0.200,0.830,-0.315,169.444,44.444,369.444,791.667,38.889,N
299,-0.280,0.825,-0.350,183.333,44.444,369.444,800.000,8.333,N
300,-0.215,0.925,-0.270,141.667,44.444,369.444,802.778,2.778,N
301,-0.210,0.875,-0.310,136.111,41.667,363.889,808.333,5.556,N
302,-0.250,0.775,-0.350,144.444,50.000,372.222,827.778,19.444,N
303,-0.240,0.890,-0.265,147.222,47.222,375.000,844.444,16.667,N
304,-0.185,0.890,-0.260,141.667,50.000,361.111,836.111,8.333,N
305,-0.180,0.855,-0.270,133.333,38.889,355.556,794.444,41.667,N
306,-0.210,0.880,-0.225,130.556,41.667,361.111,783.333,11.111,N
307,-0.120,1.015,-0.165,133.333,44.444,372.222,791.667,8.333,N
308,-0.090,0.955,-0.205,133.333,44.444,372.222,827.778,36.111,N
309,-0.155,0.875,-0.270,194.444,47.222,369.444,844.444,16.667,N
310,-0.195,0.935,-0.230,141.667,47.222,366.667,819.444,25.000,N
311,-0.130,0.990,-0.220,147.222,44.444,363.889,847.222,27.778,N
312,-0.155,0.840,-0.255,136.111,52.778,380.556,808.333,38.889,N
313,-0.205,0.860,-0.245,136.111,41.667,361.111,777.778,30.556,N
314,-0.135,1.055,-0.165,136.111,47.222,355.556,791.667,13.889,N
315,-0.105,1.015,-0.150,136.111,44.444,361.111,811.111,19.444,N
316,-0.090,0.940,-0.230,147.222,47.222,372.222,819.444,8.333,N
317,-0.185,0.825,-0.275,197.222,44.444,358.333,863.889,44.444,N
318,-0.155,0.975,-0.210,141.667,41.667,372.222,838.889,25.000,N
319,-0.115,0.965,-0.200,133.333,41.667,352.778,800.000,38.889,N
320,-0.130,0.835,-0.235,144.444,47.222,369.444,805.556,5.556,N
321,-0.160,0.870,-0.200,130.556,41.667,355.556,772.222,33.333,N
322,-0.080,1.185,-0.130,136.111,52.778,366.667,813.889,41.667,N
323,-0.080,0.980,-0.175,138.889,44.444,375.000,827.778,13.889,N
324,-0.125,0.950,-0.305,183.333,52.778,369.444,841.667,13.889,N
325,-0.255,0.795,-0.320,183.333,44.444,372.222,838.889,2.778,N
326,-0.195,0.930,-0.250,136.111,41.667,366.667,855.556,16.667,N
327,-0.170,0.895,-0.225,133.333,38.889,366.667,797.222,58.333,N
328,-0.185,0.830,-0.255,141.667,41.667,352.778,772.222,25.000,N
329,-0.185,0.860,-0.210,172.222,44.444,358.333,775.000,2.778,N
330,-0.110,0.975,-0.195,144.444,52.778,358.333,822.222,47.222,N
331,-0.120,0.870,-0.245,150.000,44.444,372.222,844.444,22.222,N
332,-0.175,0.820,-0.290,175.000,44.444,361.111,827.778,16.667,N
333,-0.185,0.830,-0.235,133.333,47.222,358.333,822.222,5.556,N
334,-0.130,0.910,-0.220,141.667,47.222,363.889,811.111,11.111,N
335,-0.140,0.870,-0.255,130.556,38.889,363.889,811.111,0.000,N
336,-0.215,0.825,-0.280,169.444,44.444,372.222,777.778,33.333,N
337,-0.185,0.910,-0.245,133.333,41.667,355.556,780.556,2.778,N
338,-0.160,0.995,-0.240,144.444,50.000,361.111,819.444,38.889,N
339,-0.175,0.785,-0.130,194.444,41.667,361.111,827.778,8.333,N
340,-0.195,0.830,-0.365,197.222,61.111,380.556,547.222,280.556,A
341,-0.275,0.850,-0.265,133.333,41.667,372.222,975.000,427.778,N
342,-0.180,0.945,-0.220,130.556,44.444,361.111,800.000,175.000,N
343,-0.150,0.845,-0.265,136.111,44.444,366.667,772.222,27.778,N
344,-0.225,0.825,-0.275,180.556,38.889,358.333,791.667,19.444,N
345,-0.190,0.935,-0.285,186.111,47.222,363.889,805.556,13.889,N
346,-0.215,0.955,-0.300,141.667,55.556,375.000,805.556,0.000,N
347,-0.265,0.720,-0.385,186.111,47.222,372.222,811.111,5.556,N
348,-0.295,0.820,-0.305,138.889,47.222,372.222,800.000,11.111,N
349,-0.205,0.925,-0.255,136.111,44.444,361.111,813.889,13.889,N
350,-0.175,0.835,-0.275,130.556,41.667,358.333,783.333,30.556,N
351,-0.225,0.855,-0.290,133.333,47.222,361.111,769.444,13.889,N
352,-0.195,0.950,-0.285,136.111,41.667,358.333,780.556,11.111,N
353,-0.205,0.860,-0.270,136.111,47.222,375.000,825.000,44.444,N
354,-0.210,0.825,-0.290,180.556,44.444,372.222,827.778,2.778,N
355,-0.195,0.960,-0.210,150.000,50.000,375.000,819.444,8.333,N
356,-0.110,1.015,-0.195,141.667,44.444,366.667,825.000,5.556,N
357,-0.120,0.940,-0.265,130.556,50.000,375.000,788.889,36.111,N
358,-0.235,0.795,-0.325,133.333,44.444,366.667,791.667,2.778,N
359,-0.225,0.880,-0.290,158.333,41.667,350.000,800.000,8.333,N
360,-0.200,0.910,-0.265,175.000,41.667,363.889,802.778,2.778,N
361,-0.190,0.825,-0.295,177.778,44.444,369.444,833.333,30.556,N
362,-0.215,0.880,-0.245,183.333,50.000,361.111,855.556,22.222,N
363,-0.115,1.055,-0.165,136.111,50.000,366.667,830.556,25.000,N
364,-0.115,0.820,-0.215,188.889,47.222,372.222,794.444,36.111,N
365,-0.180,0.605,-0.310,172.222,47.222,369.444,783.333,11.111,N
366,-0.250,0.655,-0.305,175.000,44.444,366.667,769.444,13.889,N
367,-0.195,1.125,-0.270,136.111,58.333,369.444,816.667,47.222,N
368,-0.200,0.890,-0.275,136.111,58.333,380.556,825.000,8.333,N
369,-0.230,0.795,-0.295,183.333,44.444,372.222,819.444,5.556,N
370,-0.165,1.005,-0.230,138.889,50.000,369.444,825.000,5.556,N
371,-0.130,0.985,-0.215,127.778,41.667,341.667,836.111,11.111,N
372,-0.155,0.900,-0.305,183.333,41.667,344.444,786.111,50.000,N
373,-0.240,0.890,-0.305,175.000,44.444,350.000,758.333,27.778,N
374,-0.190,1.005,-0.240,138.889,44.444,372.222,797.222,38.889,N
375,-0.180,1.035,-0.265,133.333,50.000,361.111,794.444,2.778,N
376,-0.195,0.845,-0.340,177.778,47.222,372.222,844.444,50.000,N
377,-0.205,0.930,-0.235,144.444,44.444,372.222,827.778,16.667,N
378,-0.145,1.030,-0.225,144.444,41.667,358.333,830.556,2.778,N
379,-0.165,0.890,-0.280,138.889,44.444,375.000,805.556,25.000,N
380,-0.200,0.865,-0.320,130.556,41.667,355.556,780.556,25.000,N
381,-0.190,0.975,-0.235,133.333,41.667,361.111,777.778,2.778,N
382,-0.125,1.000,-0.195,172.222,44.444,369.444,794.444,16.667,N
383,-0.105,0.925,-0.225,152.778,47.222,375.000,827.778,33.333,N
384,-0.175,0.925,-0.245,147.222,47.222,372.222,825.000,2.778,N
385,-0.135,0.980,-0.210,144.444,44.444,366.667,847.222,22.222,N
386,-0.120,0.890,-0.205,163.889,47.222,363.889,805.556,41.667,N
387,-0.160,0.880,-0.255,133.333,41.667,363.889,780.556,25.000,N
388,-0.190,0.900,-0.210,161.111,50.000,377.778,780.556,0.000,N
389,-0.115,1.060,-0.170,186.111,41.667,352.778,800.000,19.444,N
390,-0.090,1.300,-0.150,138.889,50.000,372.222,811.111,11.111,N
391,-0.095,0.985,-0.200,177.778,41.667,361.111,794.444,16.667,N
392,-0.130,0.870,-0.270,141.667,44.444,363.889,800.000,5.556,N
393,-0.170,0.825,-0.260,141.667,55.556,366.667,788.889,11.111,N
394,-0.185,0.840,-0.200,141.667,41.667,361.111,777.778,11.111,N
395,-0.160,0.905,-0.225,130.556,38.889,366.667,741.667,36.111,N
396,-0.140,0.950,-0.195,133.333,38.889,325.000,744.444,2.778,N
397,-0.115,0.945,-0.195,144.444,41.667,363.889,747.222,2.778,N
398,-0.135,0.955,-0.205,150.000,44.444,369.444,791.667,44.444,N
399,-0.120,0.890,-0.250,144.444,44.444,363.889,791.667,0.000,N
400,-0.175,0.830,-0.300,138.889,55.556,366.667,791.667,0.000,N
401,-0.245,0.815,-0.330,161.111,44.444,372.222,761.111,30.556,N
402,-0.195,0.865,-0.230,130.556,41.667,350.000,780.556,19.444,N
403,-0.120,0.870,-0.185,125.000,41.667,372.222,755.556,25.000,N
404,-0.095,0.850,-0.245,141.667,41.667,350.000,772.222,16.667,N
405,-0.165,0.875,-0.265,147.222,44.444,361.111,775.000,2.778,N
406,-0.165,0.820,-0.325,136.111,44.444,369.444,788.889,13.889,N
407,-0.225,0.690,-0.385,155.556,44.444,363.889,844.444,55.556,N
408,-0.280,0.630,-0.400,175.000,50.000,375.000,844.444,0.000,N
409,-0.275,0.715,-0.305,122.222,38.889,363.889,816.667,27.778,N
410,-0.185,0.725,-0.240,136.111,47.222,355.556,783.333,33.333,N
411,-0.120,0.795,-0.270,133.333,41.667,352.778,794.444,11.111,N
412,-0.210,0.845,-0.285,144.444,44.444,358.333,830.556,36.111,N
413,-0.175,0.880,-0.240,138.889,47.222,372.222,833.333,2.778,N
414,-0.150,0.705,-0.260,150.000,52.778,375.000,872.222,38.889,N
415,-0.205,0.730,-0.325,150.000,61.111,375.000,861.111,11.111,N
416,-0.205,0.805,-0.260,138.889,47.222,366.667,844.444,16.667,N
417,-0.155,0.810,-0.205,138.889,47.222,375.000,791.667,52.778,N
418,-0.125,0.890,-0.225,127.778,47.222,361.111,780.556,11.111,N
419,-0.175,0.760,-0.220,141.667,55.556,377.778,805.556,25.000,N
420,-0.105,0.840,-0.220,144.444,41.667,363.889,805.556,0.000,N
421,-0.145,0.765,-0.285,147.222,44.444,372.222,833.333,27.778,N
422,-0.220,0.795,-0.350,133.333,44.444,372.222,861.111,27.778,N
423,-0.200,0.800,-0.240,144.444,41.667,361.111,844.444,16.667,N
424,-0.080,0.800,-0.245,133.333,41.667,338.889,755.556,88.889,N
425,-0.185,0.805,-0.310,144.444,52.778,355.556,791.667,36.111,N
426,-0.235,0.775,-0.255,152.778,44.444,369.444,794.444,2.778,N
427,-0.130,0.790,-0.255,133.333,41.667,355.556,744.444,50.000,N
428,-0.155,0.820,-0.320,155.556,44.444,369.444,791.667,47.222,N
429,-0.230,0.765,-0.310,144.444,50.000,375.000,819.444,27.778,N
430,-0.175,0.785,-0.230,147.222,44.444,372.222,813.889,5.556,N
431,-0.140,0.845,-0.245,138.889,41.667,369.444,772.222,41.667,N
432,-0.175,0.780,-0.270,141.667,41.667,344.444,769.444,2.778,N
433,-0.160,0.800,-0.240,141.667,41.667,355.556,758.333,11.111,N
434,-0.135,0.805,-0.285,150.000,44.444,372.222,750.000,8.333,N
435,-0.175,0.755,-0.330,147.222,41.667,361.111,775.000,25.000,N
436,-0.230,0.765,-0.300,175.000,41.667,361.111,800.000,25.000,N
437,-0.135,0.850,-0.210,138.889,44.444,355.556,805.556,5.556,N
438,-0.115,0.910,-0.095,138.889,50.000,358.333,802.778,2.778,N
439,-0.125,0.950,-0.320,194.444,50.000,358.333,536.111,266.667,A
440,-0.330,0.890,-0.475,144.444,44.444,366.667,938.889,402.778,N
441,-0.415,0.800,-0.395,136.111,44.444,369.444,763.889,175.000,N
442,-0.215,0.995,-0.230,138.889,38.889,361.111,722.222,41.667,N
443,-0.150,0.905,-0.270,144.444,55.556,380.556,755.556,33.333,N
444,-0.145,0.900,-0.265,136.111,44.444,366.667,802.778,47.222,N
445,-0.130,0.955,-0.210,152.778,44.444,344.444,775.000,27.778,N
446,-0.115,0.950,-0.195,147.222,50.000,366.667,719.444,55.556,N
447,-0.130,0.935,-0.235,172.222,44.444,366.667,725.000,5.556,N
448,-0.125,0.975,-0.260,133.333,41.667,341.667,694.444,30.556,N
449,-0.200,0.785,-0.335,138.889,52.778,372.222,694.444,0.000,N
450,-0.230,0.810,-0.325,136.111,44.444,369.444,708.333,13.889,N
451,-0.225,0.875,-0.300,138.889,47.222,366.667,702.778,5.556,N
452,-0.180,0.815,-0.270,144.444,44.444,372.222,716.667,13.889,N
453,-0.155,1.080,-0.280,147.222,63.889,372.222,741.667,25.000,N
454,-0.150,0.950,-0.245,150.000,44.444,358.333,752.778,11.111,N
455,-0.160,0.930,-0.255,147.222,44.444,361.111,719.444,33.333,N
456,-0.200,0.830,-0.310,141.667,38.889,366.667,688.889,30.556,N
457,-0.240,0.890,-0.320,136.111,38.889,341.667,705.556,16.667,N
458,-0.245,0.850,-0.345,130.556,41.667,369.444,691.667,13.889,N
459,-0.270,0.720,-0.380,138.889,41.667,352.778,716.667,25.000,N
460,-0.285,0.750,-0.345,158.333,44.444,363.889,755.556,38.889,N
461,-0.195,0.885,-0.260,147.222,44.444,361.111,752.778,2.778,N
462,-0.150,0.865,-0.240,144.444,41.667,347.222,733.333,19.444,N
463,-0.135,0.760,-0.280,138.889,44.444,366.667,738.889,5.556,N
464,-0.200,0.790,-0.265,141.667,41.667,361.111,761.111,22.222,N
465,-0.165,0.925,-0.240,136.111,41.667,344.444,702.778,58.333,N
466,-0.140,0.835,-0.235,133.333,38.889,355.556,702.778,0.000,N
467,-0.170,0.830,-0.260,161.111,50.000,352.778,725.000,22.222,N
468,-0.135,0.855,-0.180,136.111,47.222,366.667,766.667,41.667,N
469,-0.075,0.915,-0.190,141.667,44.444,350.000,780.556,13.889,N
470,-0.100,0.790,-0.220,147.222,44.444,369.444,802.778,22.222,N
471,-0.155,0.960,-0.260,136.111,52.778,358.333,777.778,25.000,N
472,-0.140,0.895,-0.230,136.111,38.889,338.889,747.222,30.556,N
473,-0.155,0.765,-0.245,127.778,47.222,355.556,752.778,5.556,N
474,-0.175,0.775,-0.260,136.111,38.889,350.000,775.000,22.222,N
475,-0.155,0.870,-0.185,138.889,47.222,361.111,777.778,2.778,N
476,-0.065,0.875,-0.210,144.444,41.667,363.889,775.000,2.778,N
477,-0.130,0.795,-0.260,147.222,47.222,361.111,822.222,47.222,N
478,-0.165,0.875,-0.240,150.000,55.556,377.778,816.667,5.556,N
479,-0.110,0.780,-0.230,141.667,44.444,369.444,805.556,11.111,N
480,-0.130,0.780,-0.220,125.000,41.667,369.444,766.667,38.889,N
481,-0.150,0.810,-0.215,127.778,41.667,369.444,766.667,0.000,N
482,-0.110,0.850,-0.215,136.111,41.667,358.333,775.000,8.333,N
483,-0.110,0.755,-0.210,138.889,41.667,355.556,805.556,30.556,N
484,-0.105,0.975,-0.245,147.222,55.556,369.444,813.889,8.333,N
485,-0.170,0.825,-0.220,152.778,44.444,366.667,825.000,11.111,N
486,-0.115,0.810,-0.215,191.667,41.667,347.222,783.333,41.667,N
487,-0.135,0.755,-0.265,177.778,41.667,344.444,752.778,30.556,N
488,-0.195,0.795,-0.265,138.889,44.444,363.889,752.778,0.000,N
489,-0.140,0.920,-0.310,133.333,50.000,372.222,725.000,27.778,N
490,-0.215,0.785,-0.090,138.889,44.444,355.556,719.444,5.556,N
491,0.090,0.960,0.015,144.444,44.444,366.667,733.333,13.889,N
492,-0.015,0.895,-0.295,150.000,47.222,366.667,755.556,22.222,N
493,-0.215,0.695,-0.310,141.667,44.444,372.222,744.444,11.111,N
494,-0.210,0.665,-0.335,133.333,47.222,375.000,730.556,13.889,N
495,-0.230,0.695,-0.370,138.889,41.667,363.889,708.333,22.222,N
496,-0.260,0.785,-0.265,130.556,41.667,369.444,694.444,13.889,N
497,-0.160,0.795,-0.265,147.222,44.444,355.556,697.222,2.778,N
498,-0.175,0.750,-0.270,141.667,44.444,355.556,719.444,22.222,N
499,-0.195,0.825,-0.325,144.444,41.667,361.111,725.000,5.556,N
500,-0.195,0.800,-0.250,138.889,41.667,369.444,752.778,27.778,N
501,-0.130,0.855,-0.230,144.444,52.778,366.667,763.889,11.111,N
502,-0.140,0.765,-0.280,136.111,44.444,369.444,775.000,11.111,N
503,-0.220,0.790,-0.330,136.111,41.667,350.000,750.000,25.000,N
504,-0.170,0.860,-0.220,133.333,41.667,363.889,738.889,11.111,N
505,-0.120,0.765,-0.200,122.222,41.667,355.556,708.333,30.556,N
506,-0.100,0.880,-0.190,133.333,41.667,344.444,744.444,36.111,N
507,-0.155,0.860,-0.295,141.667,41.667,363.889,763.889,19.444,N
508,-0.145,0.925,-0.210,152.778,50.000,377.778,811.111,47.222,N
509,-0.095,0.905,-0.215,150.000,44.444,372.222,766.667,44.444,N
510,-0.135,0.960,-0.290,141.667,47.222,366.667,769.444,2.778,N
511,-0.170,0.935,-0.215,136.111,47.222,372.222,763.889,5.556,N
512,-0.055,0.940,-0.175,130.556,41.667,344.444,741.667,22.222,N
513,-0.065,0.915,-0.195,136.111,44.444,327.778,741.667,0.000,N
514,-0.125,0.890,-0.295,138.889,55.556,358.333,733.333,8.333,N
515,-0.165,0.895,-0.255,144.444,47.222,361.111,761.111,27.778,N
516,-0.140,0.875,-0.245,155.556,44.444,372.222,775.000,13.889,N
517,-0.115,1.015,-0.260,150.000,52.778,375.000,800.000,25.000,N
518,-0.210,0.865,-0.295,158.333,50.000,363.889,788.889,11.111,N
519,-0.130,0.895,-0.200,138.889,41.667,366.667,777.778,11.111,N
520,-0.120,0.930,-0.200,138.889,41.667,358.333,727.778,50.000,N
521,-0.090,0.890,-0.245,150.000,50.000,352.778,758.333,30.556,N
522,-0.200,0.845,-0.280,163.889,41.667,361.111,755.556,2.778,N
523,-0.160,0.880,-0.280,136.111,41.667,350.000,761.111,5.556,N
524,-0.185,0.800,-0.310,138.889,41.667,361.111,758.333,2.778,N
525,-0.230,0.800,-0.360,133.333,44.444,369.444,791.667,33.333,N
526,-0.200,0.980,-0.290,150.000,52.778,377.778,813.889,22.222,N
527,-0.175,0.880,-0.255,150.000,41.667,361.111,761.111,52.778,N
528,-0.175,0.880,-0.275,163.889,41.667,363.889,730.556,30.556,N
529,-0.200,0.840,-0.235,130.556,44.444,358.333,758.333,27.778,N
530,-0.135,0.840,-0.265,133.333,44.444,372.222,752.778,5.556,N
531,-0.180,0.825,-0.330,147.222,41.667,358.333,794.444,41.667,N
532,-0.250,0.775,-0.340,183.333,44.444,372.222,819.444,25.000,N
533,-0.215,0.820,-0.285,136.111,41.667,355.556,783.333,36.111,N
534,-0.180,0.790,-0.240,152.778,47.222,358.333,772.222,11.111,N
535,-0.140,0.865,-0.285,141.667,44.444,350.000,752.778,19.444,N
536,-0.225,0.800,-0.305,163.889,44.444,366.667,769.444,16.667,N
537,-0.175,0.830,-0.255,130.556,38.889,355.556,752.778,16.667,N
538,-0.150,0.785,-0.265,144.444,41.667,361.111,744.444,8.333,N
539,-0.200,0.790,-0.300,177.778,52.778,375.000,783.333,38.889,N
540,-0.205,0.870,-0.230,197.222,50.000,375.000,825.000,41.667,N
541,-0.090,0.985,-0.230,147.222,52.778,375.000,769.444,55.556,N
542,-0.180,0.900,-0.260,138.889,44.444,366.667,741.667,27.778,N
543,-0.130,0.985,-0.185,125.000,41.667,366.667,730.556,11.111,N
544,-0.080,1.040,-0.170,130.556,38.889,347.222,702.778,27.778,N
545,-0.115,0.945,-0.275,144.444,38.889,350.000,716.667,13.889,N
546,-0.150,0.970,-0.170,136.111,47.222,369.444,727.778,11.111,N
547,-0.070,1.045,-0.210,150.000,47.222,361.111,727.778,0.000,N
548,-0.115,0.985,-0.225,147.222,44.444,369.444,736.111,8.333,N
549,-0.130,0.855,-0.355,152.778,44.444,372.222,736.111,0.000,N
550,-0.240,0.905,-0.315,144.444,55.556,369.444,758.333,22.222,N
551,-0.180,0.925,-0.225,141.667,50.000,375.000,711.111,47.222,N
552,-0.150,0.895,-0.350,138.889,38.889,369.444,669.444,41.667,N
553,-0.270,0.900,-0.345,133.333,44.444,369.444,677.778,8.333,N
554,-0.215,0.950,-0.305,127.778,44.444,363.889,697.222,19.444,N
555,-0.230,0.940,-0.270,144.444,44.444,369.444,705.556,8.333,N
556,-0.170,0.890,-0.310,144.444,44.444,352.778,719.444,13.889,N
557,-0.270,0.815,-0.370,150.000,41.667,366.667,730.556,11.111,N
558,-0.225,0.935,-0.280,136.111,47.222,372.222,719.444,11.111,N
559,-0.180,0.885,-0.275,144.444,41.667,366.667,686.111,33.333,N
560,-0.165,0.945,-0.315,136.111,50.000,344.444,688.889,2.778,N
561,-0.255,0.845,-0.310,136.111,41.667,366.667,694.444,5.556,N
562,-0.165,0.995,-0.240,133.333,44.444,325.000,691.667,2.778,N
563,-0.150,0.870,-0.220,136.111,52.778,366.667,680.556,11.111,N
564,-0.135,0.825,-0.275,150.000,44.444,372.222,736.111,55.556,N
565,-0.210,0.825,-0.285,152.778,44.444,372.222,752.778,16.667,N
566,-0.155,0.940,-0.255,141.667,44.444,363.889,758.333,5.556,N
567,-0.150,0.915,-0.235,138.889,38.889,338.889,736.111,22.222,N
568,-0.175,0.795,-0.260,136.111,38.889,344.444,727.778,8.333,N
569,-0.195,0.830,-0.305,138.889,44.444,344.444,716.667,11.111,N
570,-0.230,0.940,-0.290,130.556,50.000,355.556,747.222,30.556,N
571,-0.180,0.920,-0.270,141.667,41.667,358.333,741.667,5.556,N
572,-0.205,0.845,-0.375,141.667,41.667,350.000,750.000,8.333,N
573,-0.270,0.860,-0.360,147.222,44.444,363.889,786.111,36.111,N
574,-0.210,0.955,-0.305,138.889,41.667,350.000,775.000,11.111,N
575,-0.215,0.925,-0.270,147.222,41.667,338.889,750.000,25.000,N
576,-0.190,0.825,-0.245,133.333,41.667,341.667,722.222,27.778,N
577,-0.130,0.910,-0.230,138.889,44.444,336.111,708.333,13.889,N
578,-0.110,0.840,-0.220,136.111,47.222,355.556,702.778,5.556,N
579,-0.135,0.835,-0.255,147.222,44.444,355.556,713.889,11.111,N
580,-0.170,0.855,-0.275,147.222,52.778,361.111,766.667,52.778,N
581,-0.185,0.830,-0.295,141.667,44.444,358.333,747.222,19.444,N
582,-0.195,0.760,-0.300,141.667,41.667,361.111,747.222,0.000,N
583,-0.195,0.755,-0.275,141.667,41.667,355.556,752.778,5.556,N
584,-0.195,0.815,-0.210,133.333,41.667,358.333,750.000,2.778,N
585,-0.110,0.900,-0.210,130.556,41.667,355.556,722.222,27.778,N
586,-0.135,0.800,-0.250,141.667,41.667,369.444,750.000,27.778,N
587,-0.180,0.765,-0.355,138.889,41.667,369.444,752.778,2.778,N
588,-0.240,0.765,-0.320,144.444,41.667,372.222,775.000,22.222,N
589,-0.195,0.755,-0.290,141.667,47.222,363.889,813.889,38.889,N
590,-0.145,0.810,-0.265,141.667,52.778,352.778,833.333,19.444,N
591,-0.185,0.845,-0.260,150.000,41.667,358.333,805.556,27.778,N
592,-0.150,0.835,-0.225,133.333,38.889,358.333,763.889,41.667,N
593,-0.140,0.780,-0.265,141.667,47.222,322.222,777.778,13.889,N
594,-0.185,1.030,-0.285,141.667,58.333,369.444,772.222,5.556,N
595,-0.175,0.770,-0.265,150.000,44.444,361.111,816.667,44.444,N
596,-0.155,0.800,-0.235,150.000,52.778,355.556,816.667,0.000,N
597,-0.165,0.840,-0.250,163.889,41.667,341.667,622.222,194.444,A
598,-0.205,0.840,-0.260,183.333,44.444,372.222,986.111,363.889,N
599,-0.160,0.830,-0.220,127.778,52.778,352.778,825.000,161.111,N
600,-0.145,0.745,-0.215,177.778,52.778,375.000,780.556,44.444,N
601,-0.170,0.845,-0.280,136.111,41.667,336.111,747.222,33.333,N
602,-0.180,0.795,-0.275,138.889,38.889,330.556,772.222,25.000,N
603,-0.180,0.890,-0.265,175.000,55.556,366.667,783.333,11.111,N
604,-0.210,0.795,-0.310,191.667,44.444,366.667,819.444,36.111,N
605,-0.230,0.860,-0.280,172.222,44.444,352.778,808.333,11.111,N
606,-0.160,0.890,-0.245,175.000,52.778,355.556,788.889,19.444,N
607,-0.160,0.920,-0.265,133.333,52.778,363.889,772.222,16.667,N
608,-0.235,0.815,-0.320,169.444,41.667,352.778,772.222,0.000,N
609,-0.235,0.825,-0.295,133.333,41.667,355.556,747.222,25.000,N
610,-0.185,0.830,-0.265,180.556,47.222,358.333,763.889,16.667,N
611,-0.170,0.795,-0.290,191.667,44.444,366.667,794.444,30.556,N
612,-0.200,0.820,-0.290,186.111,50.000,372.222,794.444,0.000,N
613,-0.135,0.915,-0.225,183.333,44.444,358.333,833.333,38.889,N
614,-0.135,0.790,-0.265,138.889,41.667,347.222,791.667,41.667,N
615,-0.220,0.790,-0.350,169.444,41.667,352.778,747.222,44.444,N
616,-0.280,0.865,-0.320,136.111,47.222,369.444,744.444,2.778,N
617,-0.185,0.920,-0.245,169.444,44.444,355.556,783.333,38.889,N
618,-0.165,1.045,-0.240,136.111,55.556,372.222,752.778,30.556,N
619,-0.135,0.915,-0.220,136.111,50.000,375.000,769.444,16.667,N
620,-0.160,0.985,-0.265,180.556,47.222,372.222,758.333,11.111,N
621,-0.140,0.990,-0.210,130.556,38.889,358.333,763.889,5.556,N
622,-0.075,0.965,-0.205,141.667,50.000,375.000,761.111,2.778,N
623,-0.150,1.060,-0.310,169.444,58.333,372.222,727.778,33.333,N
624,-0.245,0.940,-0.280,133.333,38.889,338.889,713.889,13.889,N
625,-0.195,1.040,-0.265,133.333,44.444,333.333,727.778,13.889,N
626,-0.155,1.015,-0.220,141.667,44.444,369.444,730.556,2.778,N
627,-0.130,0.895,-0.245,136.111,44.444,352.778,766.667,36.111,N
628,-0.205,0.930,-0.310,138.889,44.444,366.667,752.778,13.889,N
629,-0.205,1.015,-0.245,144.444,47.222,372.222,761.111,8.333,N
630,-0.140,0.935,-0.235,136.111,41.667,358.333,736.111,25.000,N
631,-0.140,0.860,-0.295,133.333,38.889,341.667,708.333,27.778,N
632,-0.245,0.830,-0.320,166.667,47.222,372.222,725.000,16.667,N
633,-0.185,0.965,-0.285,133.333,41.667,358.333,727.778,2.778,N
634,-0.210,0.755,-0.270,144.444,41.667,355.556,719.444,8.333,N
635,-0.160,0.810,-0.265,144.444,44.444,366.667,755.556,36.111,N
636,-0.205,0.885,-0.290,138.889,50.000,372.222,797.222,41.667,N
637,-0.145,1.020,-0.250,138.889,41.667,352.778,800.000,2.778,N
638,-0.125,0.865,-0.260,138.889,38.889,341.667,758.333,41.667,N
639,-0.155,0.965,-0.290,133.333,55.556,350.000,747.222,11.111,N
640,-0.210,0.965,-0.255,130.556,50.000,347.222,752.778,5.556,N
641,-0.120,1.135,-0.220,136.111,52.778,358.333,755.556,2.778,N
642,-0.125,0.900,-0.215,188.889,41.667,350.000,791.667,36.111,N
643,-0.105,0.935,-0.215,147.222,44.444,363.889,816.667,25.000,N
644,-0.145,0.935,-0.225,138.889,52.778,366.667,841.667,25.000,N
645,-0.065,1.050,-0.175,144.444,55.556,372.222,813.889,27.778,N
646,-0.065,1.040,-0.190,136.111,47.222,369.444,805.556,8.333,N
647,-0.095,0.925,-0.205,133.333,41.667,352.778,800.000,5.556,N
648,-0.130,0.970,-0.170,127.778,38.889,350.000,788.889,11.111,N
649,-0.065,1.040,-0.155,141.667,44.444,336.111,777.778,11.111,N
650,-0.065,0.945,-0.235,141.667,47.222,366.667,825.000,47.222,N
651,-0.180,0.820,-0.325,191.667,44.444,363.889,883.333,58.333,N
652,-0.195,0.880,-0.280,150.000,47.222,372.222,858.333,25.000,N
653,-0.165,0.845,-0.265,138.889,44.444,366.667,808.333,50.000,N
654,-0.195,0.855,-0.295,180.556,41.667,350.000,802.778,5.556,N
655,-0.230,0.890,-0.285,163.889,50.000,352.778,800.000,2.778,N
656,-0.175,0.890,-0.285,127.778,41.667,352.778,794.444,5.556,N
657,-0.220,0.935,-0.360,180.556,55.556,363.889,794.444,0.000,N
658,-0.270,0.830,-0.300,186.111,44.444,369.444,819.444,25.000,N
659,-0.155,0.985,-0.250,144.444,52.778,369.444,852.778,33.333,N
660,-0.170,0.875,-0.295,147.222,44.444,363.889,838.889,13.889,N
661,-0.205,0.870,-0.225,138.889,44.444,350.000,783.333,55.556,N
662,-0.095,1.010,-0.200,127.778,44.444,336.111,777.778,5.556,N
663,-0.125,0.875,-0.260,136.111,41.667,358.333,797.222,19.444,N
664,-0.205,0.835,-0.270,166.667,41.667,369.444,816.667,19.444,N
665,-0.135,0.875,-0.220,141.667,41.667,372.222,847.222,30.556,N
666,-0.105,0.930,-0.215,163.889,41.667,361.111,830.556,16.667,N
667,-0.170,0.875,-0.270,166.667,41.667,358.333,836.111,5.556,N
668,-0.200,0.865,-0.220,172.222,41.667,347.222,808.333,27.778,N
669,-0.130,0.885,-0.220,169.444,41.667,352.778,811.111,2.778,N
670,-0.150,0.910,-0.290,136.111,50.000,355.556,786.111,25.000,N
671,-0.250,0.810,-0.310,163.889,47.222,366.667,775.000,11.111,N
672,-0.165,0.895,-0.245,150.000,47.222,372.222,841.667,66.667,N
673,-0.130,0.840,-0.265,147.222,44.444,372.222,844.444,2.778,N
674,-0.195,0.835,-0.310,180.556,44.444,372.222,816.667,27.778,N
675,-0.185,0.820,-0.235,133.333,38.889,344.444,797.222,19.444,N
676,-0.115,0.910,-0.200,130.556,41.667,358.333,788.889,8.333,N
677,-0.150,0.860,-0.305,169.444,41.667,372.222,769.444,19.444,N
678,-0.265,0.860,-0.290,177.778,41.667,361.111,777.778,8.333,N
679,-0.165,0.910,-0.250,141.667,44.444,369.444,808.333,30.556,N
680,-0.155,0.845,-0.295,141.667,41.667,355.556,797.222,11.111,N
681,-0.235,0.815,-0.370,183.333,50.000,372.222,813.889,16.667,N
682,-0.255,1.070,-0.250,180.556,52.778,375.000,816.667,2.778,N
683,-0.090,1.090,-0.205,133.333,44.444,341.667,800.000,16.667,N
684,-0.115,0.845,-0.260,166.667,47.222,350.000,750.000,50.000,N
685,-0.255,0.785,-0.425,130.556,38.889,344.444,763.889,13.889,N
686,-0.365,0.835,-0.345,141.667,44.444,358.333,769.444,5.556,N
687,-0.245,0.875,-0.285,147.222,44.444,369.444,805.556,36.111,N
688,-0.170,0.870,-0.235,147.222,44.444,372.222,811.111,5.556,N
689,-0.180,0.815,-0.340,180.556,55.556,380.556,797.222,13.889,N
690,-0.225,0.975,-0.220,138.889,50.000,375.000,791.667,5.556,N
691,-0.145,0.995,-0.200,130.556,44.444,352.778,783.333,8.333,N
692,-0.125,0.870,-0.270,125.000,38.889,350.000,752.778,30.556,N
693,-0.240,0.850,-0.350,188.889,44.444,369.444,736.111,16.667,N
694,-0.220,1.070,-0.250,138.889,50.000,375.000,761.111,25.000,N
695,-0.100,0.990,-0.205,147.222,44.444,361.111,777.778,16.667,N
696,-0.120,0.895,-0.255,144.444,47.222,361.111,797.222,19.444,N
697,-0.230,0.865,-0.330,144.444,44.444,369.444,788.889,8.333,N
698,-0.150,1.060,-0.235,133.333,41.667,369.444,772.222,16.667,N
699,-0.160,0.970,-0.265,133.333,41.667,363.889,738.889,33.333,N
700,-0.200,0.825,-0.360,141.667,44.444,350.000,763.889,25.000,N
701,-0.295,0.815,-0.340,138.889,58.333,366.667,741.667,22.222,N
702,-0.205,1.030,-0.300,127.778,52.778,358.333,758.333,16.667,N
703,-0.170,0.930,-0.305,155.556,55.556,380.556,777.778,19.444,N
704,-0.210,0.865,-0.360,141.667,50.000,377.778,775.000,2.778,N
705,-0.240,0.855,-0.300,133.333,44.444,372.222,772.222,2.778,N
706,-0.130,0.985,-0.295,141.667,41.667,363.889,761.111,11.111,N
707,-0.190,0.855,-0.345,138.889,44.444,355.556,725.000,36.111,N
708,-0.255,0.855,-0.350,138.889,41.667,363.889,725.000,0.000,N
709,-0.175,0.945,-0.260,136.111,44.444,358.333,755.556,30.556,N
710,-0.120,0.980,-0.280,144.444,52.778,369.444,763.889,8.333,N
711,-0.170,0.825,-0.325,147.222,41.667,361.111,783.333,19.444,N
712,-0.235,0.855,-0.325,152.778,47.222,369.444,794.444,11.111,N
713,-0.160,0.940,-0.280,150.000,44.444,355.556,794.444,0.000,N
714,-0.185,0.840,-0.300,144.444,41.667,363.889,758.333,36.111,N
715,-0.215,0.770,-0.340,144.444,44.444,350.000,777.778,19.444,N
716,-0.230,0.855,-0.275,138.889,41.667,361.111,772.222,5.556,N
717,-0.125,1.015,-0.225,138.889,52.778,338.889,763.889,8.333,N
718,-0.125,0.890,-0.240,152.778,44.444,372.222,777.778,13.889,N
719,-0.135,0.860,-0.250,180.556,44.444,361.111,844.444,66.667,N
720,-0.155,0.945,-0.225,158.333,44.444,375.000,836.111,8.333,N
721,-0.130,0.960,-0.225,141.667,44.444,366.667,772.222,63.889,N
722,-0.125,0.945,-0.245,133.333,50.000,347.222,775.000,2.778,N
723,-0.175,0.830,-0.320,133.333,41.667,361.111,755.556,19.444,N
724,-0.200,0.955,-0.255,136.111,44.444,350.000,775.000,19.444,N
725,-0.115,0.970,-0.225,138.889,50.000,369.444,769.444,5.556,N
726,-0.130,0.840,-0.270,152.778,41.667,366.667,794.444,25.000,N
727,-0.180,0.815,-0.345,152.778,41.667,372.222,808.333,13.889,N
728,-0.270,0.825,-0.345,150.000,55.556,377.778,841.667,33.333,N
729,-0.190,0.855,-0.345,133.333,47.222,344.444,777.778,63.889,N
730,-0.215,0.715,-0.315,133.333,41.667,361.111,758.333,19.444,N
731,-0.225,0.805,-0.295,136.111,38.889,363.889,752.778,5.556,N
732,-0.180,0.900,-0.225,138.889,41.667,366.667,761.111,8.333,N
733,-0.085,0.920,-0.225,147.222,41.667,347.222,772.222,11.111,N
734,-0.140,0.790,-0.285,150.000,44.444,352.778,811.111,38.889,N
735,-0.215,0.750,-0.350,147.222,41.667,358.333,808.333,2.778,N
736,-0.240,0.850,-0.280,138.889,44.444,355.556,805.556,2.778,N
737,-0.145,0.890,-0.270,138.889,47.222,355.556,786.111,19.444,N
738,-0.155,0.775,-0.290,141.667,47.222,338.889,772.222,13.889,N
739,-0.195,0.875,-0.280,133.333,38.889,366.667,763.889,8.333,N
740,-0.150,0.840,-0.230,138.889,50.000,375.000,766.667,2.778,N
741,-0.135,0.830,-0.225,141.667,38.889,361.111,775.000,8.333,N
742,-0.145,0.835,-0.290,147.222,47.222,375.000,805.556,30.556,N
743,-0.180,0.865,-0.260,147.222,44.444,361.111,825.000,19.444,N
744,-0.150,0.850,-0.265,144.444,41.667,358.333,769.444,55.556,N
745,-0.160,0.840,-0.255,136.111,41.667,333.333,761.111,8.333,N
746,-0.170,0.785,-0.285,136.111,41.667,363.889,763.889,2.778,N
747,-0.180,0.870,-0.280,138.889,44.444,355.556,780.556,16.667,N
748,-0.170,0.835,-0.280,141.667,47.222,361.111,744.444,36.111,N
749,-0.210,0.725,-0.325,175.000,44.444,366.667,777.778,33.333,N
750,-0.240,0.665,-0.360,144.444,44.444,366.667,800.000,22.222,N
751,-0.280,0.775,-0.360,152.778,47.222,375.000,797.222,2.778,N
752,-0.215,0.805,-0.315,144.444,41.667,366.667,788.889,8.333,N
753,-0.195,0.780,-0.295,138.889,38.889,355.556,758.333,30.556,N
754,-0.215,0.755,-0.330,125.000,44.444,363.889,741.667,16.667,N
755,-0.260,0.885,-0.320,136.111,50.000,366.667,763.889,22.222,N
756,-0.180,0.830,-0.310,152.778,41.667,344.444,786.111,22.222,N
757,-0.190,0.740,-0.310,152.778,47.222,369.444,797.222,11.111,N
758,-0.235,0.790,-0.375,144.444,44.444,358.333,808.333,11.111,N
759,-0.235,0.835,-0.295,147.222,47.222,375.000,805.556,2.778,N
760,-0.145,0.885,-0.245,144.444,41.667,347.222,775.000,30.556,N
761,-0.090,0.835,-0.220,136.111,41.667,352.778,777.778,2.778,N
762,-0.140,0.800,-0.250,130.556,41.667,344.444,772.222,5.556,N
763,-0.120,0.920,-0.210,133.333,41.667,358.333,775.000,2.778,N
764,-0.110,0.850,-0.240,138.889,50.000,372.222,769.444,5.556,N
765,-0.130,0.790,-0.235,152.778,44.444,372.222,827.778,58.333,N
766,-0.160,0.975,-0.270,169.444,55.556,377.778,816.667,11.111,N
767,-0.145,0.950,-0.210,133.333,50.000,350.000,797.222,19.444,N
768,-0.100,0.855,-0.200,133.333,41.667,361.111,747.222,50.000,N
769,-0.105,0.850,-0.225,127.778,41.667,355.556,761.111,13.889,N
770,-0.155,1.050,-0.245,133.333,55.556,372.222,786.111,25.000,N
771,-0.145,0.925,-0.240,138.889,41.667,358.333,788.889,2.778,N
772,-0.150,0.775,-0.285,152.778,47.222,352.778,791.667,2.778,N
773,-0.180,0.770,-0.315,136.111,44.444,372.222,813.889,22.222,N
774,-0.230,0.920,-0.315,141.667,52.778,375.000,833.333,19.444,N
775,-0.155,0.920,-0.255,136.111,38.889,358.333,794.444,38.889,N
776,-0.150,0.800,-0.295,125.000,38.889,344.444,763.889,30.556,N
777,-0.240,0.780,-0.360,138.889,41.667,366.667,763.889,0.000,N
778,-0.255,0.845,-0.325,130.556,38.889,344.444,769.444,5.556,N
779,-0.180,0.860,-0.305,147.222,41.667,358.333,769.444,0.000,N
780,-0.195,0.770,-0.375,150.000,44.444,366.667,816.667,47.222,N
781,-0.255,0.840,-0.335,138.889,47.222,372.222,808.333,8.333,N
782,-0.185,0.890,-0.255,136.111,47.222,363.889,791.667,16.667,N
783,-0.110,0.860,-0.270,141.667,50.000,363.889,766.667,25.000,N
784,-0.160,0.830,-0.325,125.000,41.667,366.667,777.778,11.111,N
785,-0.205,0.820,-0.280,136.111,41.667,347.222,766.667,11.111,N
786,-0.140,0.910,-0.240,138.889,41.667,363.889,733.333,33.333,N
787,-0.155,0.825,-0.295,147.222,52.778,355.556,780.556,47.222,N
788,-0.225,0.800,-0.320,155.556,47.222,372.222,813.889,33.333,N
789,-0.160,0.895,-0.205,147.222,44.444,372.222,816.667,2.778,N
790,-0.050,1.025,-0.155,141.667,41.667,361.111,777.778,38.889,N
791,-0.055,0.930,-0.220,136.111,41.667,341.667,769.444,8.333,N
792,-0.135,1.035,-0.265,133.333,50.000,361.111,752.778,16.667,N
793,-0.120,0.945,-0.225,144.444,41.667,341.667,780.556,27.778,N
794,-0.120,0.870,-0.215,150.000,47.222,355.556,755.556,25.000,N
795,-0.130,0.980,-0.275,141.667,58.333,372.222,769.444,13.889,N
796,-0.180,0.900,-0.255,147.222,47.222,366.667,805.556,36.111,N
797,-0.125,1.055,-0.240,141.667,52.778,369.444,780.556,25.000,N
798,-0.155,0.905,-0.265,141.667,50.000,369.444,786.111,5.556,N
799,-0.220,0.760,-0.365,127.778,38.889,344.444,763.889,22.222,N
800,-0.280,0.790,-0.330,130.556,44.444,355.556,758.333,5.556,N
801,-0.210,0.840,-0.270,138.889,38.889,355.556,730.556,27.778,N
802,-0.175,0.850,-0.270,141.667,58.333,372.222,772.222,41.667,N
803,-0.190,0.830,-0.320,152.778,47.222,375.000,811.111,38.889,N
804,-0.215,0.840,-0.240,138.889,44.444,361.111,794.444,16.667,N
805,-0.090,0.905,-0.215,144.444,41.667,369.444,783.333,11.111,N
806,-0.130,0.885,-0.275,144.444,38.889,358.333,788.889,5.556,N
807,-0.240,0.810,-0.330,136.111,41.667,358.333,766.667,22.222,N
808,-0.195,0.860,-0.245,138.889,44.444,369.444,772.222,5.556,N
809,-0.135,0.865,-0.240,150.000,41.667,352.778,752.778,19.444,N
810,-0.125,0.820,-0.290,141.667,44.444,372.222,766.667,13.889,N
811,-0.220,0.825,-0.335,166.667,44.444,361.111,825.000,58.333,N
812,-0.150,0.835,-0.235,147.222,55.556,377.778,830.556,5.556,N
813,-0.130,0.775,-0.240,138.889,41.667,361.111,780.556,50.000,N
814,-0.165,0.730,-0.310,138.889,38.889,366.667,763.889,16.667,N
815,-0.240,0.820,-0.285,138.889,38.889,350.000,769.444,5.556,N
816,-0.180,0.845,-0.235,172.222,47.222,355.556,747.222,22.222,N
817,-0.130,0.900,-0.255,147.222,47.222,361.111,758.333,11.111,N
818,-0.125,0.865,-0.230,152.778,47.222,372.222,788.889,30.556,N
819,-0.105,0.900,-0.175,138.889,41.667,363.889,791.667,2.778,N
820,-0.080,0.920,-0.190,158.333,44.444,352.778,797.222,5.556,N
821,-0.120,0.840,-0.270,172.222,44.444,366.667,797.222,0.000,N
822,-0.200,0.825,-0.275,138.889,41.667,355.556,766.667,30.556,N
823,-0.145,0.865,-0.215,138.889,41.667,372.222,733.333,33.333,N
824,-0.120,0.850,-0.225,138.889,44.444,358.333,747.222,13.889,N
825,-0.170,0.820,-0.285,150.000,41.667,358.333,763.889,16.667,N
826,-0.210,0.810,-0.305,150.000,44.444,372.222,805.556,41.667,N
827,-0.135,0.865,-0.235,150.000,47.222,363.889,827.778,22.222,N
828,-0.145,0.855,-0.270,141.667,41.667,361.111,780.556,47.222,N
829,-0.230,0.715,-0.385,144.444,47.222,366.667,777.778,2.778,N
830,-0.290,0.780,-0.330,138.889,50.000,369.444,783.333,5.556,N
831,-0.180,0.905,-0.255,138.889,55.556,377.778,761.111,22.222,N
832,-0.150,0.815,-0.250,136.111,52.778,363.889,730.556,30.556,N
833,-0.180,0.800,-0.320,150.000,44.444,358.333,772.222,41.667,N
834,-0.215,0.795,-0.270,175.000,41.667,363.889,805.556,33.333,N
835,-0.120,0.890,-0.215,147.222,41.667,361.111,800.000,5.556,N
836,-0.120,0.810,-0.225,150.000,50.000,375.000,797.222,2.778,N
837,-0.150,0.785,-0.250,180.556,41.667,355.556,758.333,38.889,N
838,-0.170,1.010,-0.230,136.111,50.000,369.444,741.667,16.667,N
839,-0.095,0.915,-0.210,138.889,41.667,355.556,761.111,19.444,N
840,-0.105,0.885,-0.245,138.889,50.000,372.222,758.333,2.778,N
841,-0.175,0.810,-0.265,141.667,41.667,361.111,766.667,8.333,N
842,-0.170,0.965,-0.180,147.222,47.222,372.222,788.889,22.222,N
843,-0.065,1.250,-0.215,141.667,52.778,358.333,775.000,13.889,N
844,-0.130,0.985,-0.225,147.222,55.556,377.778,750.000,25.000,N
845,-0.125,0.865,-0.250,141.667,44.444,355.556,763.889,13.889,N
846,-0.155,1.050,-0.195,130.556,50.000,361.111,744.444,19.444,N
847,-0.090,1.010,-0.175,133.333,38.889,344.444,711.111,33.333,N
848,-0.060,0.920,-0.210,138.889,41.667,358.333,702.778,8.333,N
849,-0.110,1.005,-0.245,144.444,47.222,366.667,750.000,47.222,N
850,-0.120,1.085,-0.205,147.222,44.444,372.222,741.667,8.333,N
851,-0.100,0.975,-0.205,141.667,41.667,369.444,719.444,22.222,N
852,-0.125,0.840,-0.280,138.889,41.667,363.889,719.444,0.000,N
853,-0.180,1.015,-0.230,141.667,41.667,361.111,719.444,0.000,N
854,-0.085,1.035,-0.215,136.111,41.667,355.556,686.111,33.333,N
855,-0.085,0.915,-0.260,136.111,41.667,358.333,702.778,16.667,N
856,-0.215,0.850,-0.320,133.333,41.667,344.444,711.111,8.333,N
857,-0.190,1.000,-0.200,125.000,47.222,372.222,708.333,2.778,N
858,-0.070,0.990,-0.190,152.778,44.444,369.444,736.111,27.778,N
859,-0.125,0.810,-0.280,152.778,55.556,380.556,786.111,50.000,N
860,-0.200,0.990,-0.250,175.000,50.000,366.667,750.000,36.111,N
861,-0.110,1.100,-0.215,133.333,38.889,366.667,744.444,5.556,N
862,-0.110,1.040,-0.210,130.556,38.889,341.667,708.333,36.111,N
863,-0.105,1.045,-0.220,136.111,47.222,372.222,727.778,19.444,N
864,-0.160,0.940,-0.220,138.889,44.444,369.444,747.222,19.444,N
865,-0.095,1.155,-0.210,136.111,47.222,375.000,766.667,19.444,N
866,-0.105,1.045,-0.200,144.444,47.222,363.889,761.111,5.556,N
867,-0.095,0.970,-0.230,144.444,41.667,363.889,797.222,36.111,N
868,-0.175,0.870,-0.275,144.444,41.667,358.333,819.444,22.222,N
869,-0.095,1.070,-0.170,130.556,41.667,361.111,800.000,19.444,N
870,-0.100,1.035,-0.190,141.667,50.000,358.333,738.889,61.111,N
871,-0.075,0.945,-0.235,144.444,44.444,361.111,744.444,5.556,N
872,-0.165,0.875,-0.250,141.667,41.667,369.444,758.333,13.889,N
873,-0.140,0.910,-0.240,141.667,44.444,372.222,763.889,5.556,N
874,-0.150,0.985,-0.270,150.000,47.222,372.222,786.111,22.222,N
875,-0.185,0.810,-0.330,136.111,44.444,358.333,794.444,8.333,N
876,-0.230,0.835,-0.290,144.444,44.444,363.889,811.111,16.667,N
877,-0.165,1.140,-0.255,136.111,55.556,358.333,777.778,33.333,N
878,-0.160,0.890,-0.290,133.333,41.667,355.556,763.889,13.889,N
879,-0.205,0.770,-0.345,133.333,44.444,347.222,758.333,5.556,N
880,-0.295,0.740,-0.330,163.889,41.667,363.889,783.333,25.000,N
881,-0.215,0.895,-0.315,141.667,44.444,372.222,791.667,8.333,N
882,-0.225,0.955,-0.345,136.111,52.778,369.444,791.667,0.000,N
883,-0.235,0.740,-0.385,147.222,44.444,363.889,833.333,41.667,N
884,-0.275,0.815,-0.325,136.111,38.889,358.333,838.889,5.556,N
885,-0.190,0.885,-0.280,127.778,38.889,341.667,780.556,58.333,N
886,-0.180,0.830,-0.300,138.889,50.000,369.444,747.222,33.333,N
887,-0.220,0.820,-0.330,138.889,41.667,372.222,788.889,41.667,N
888,-0.260,0.795,-0.345,138.889,47.222,369.444,808.333,19.444,N
889,-0.195,0.835,-0.300,138.889,52.778,380.556,830.556,22.222,N
890,-0.185,0.915,-0.290,141.667,44.444,366.667,788.889,41.667,N
891,-0.175,0.930,-0.270,144.444,44.444,358.333,808.333,19.444,N
892,-0.190,0.895,-0.280,127.778,52.778,366.667,825.000,16.667,N
893,-0.170,0.965,-0.235,122.222,38.889,355.556,791.667,33.333,N
894,-0.135,1.000,-0.225,141.667,38.889,341.667,747.222,44.444,N
895,-0.110,0.965,-0.235,136.111,41.667,355.556,755.556,8.333,N
896,-0.175,0.880,-0.255,150.000,47.222,369.444,841.667,86.111,N
897,-0.165,0.930,-0.255,150.000,52.778,369.444,850.000,8.333,N
898,-0.155,0.985,-0.275,147.222,47.222,375.000,775.000,75.000,N
899,-0.155,0.945,-0.265,141.667,41.667,366.667,786.111,11.111,N
900,-0.205,0.955,-0.340,127.778,50.000,344.444,791.667,5.556,N
901,-0.250,0.895,-0.290,125.000,41.667,361.111,802.778,11.111,N
902,-0.170,0.940,-0.330,138.889,38.889,347.222,744.444,58.333,N
903,-0.250,0.870,-0.335,141.667,41.667,361.111,769.444,25.000,N
904,-0.240,0.790,-0.345,147.222,55.556,369.444,800.000,30.556,N
905,-0.235,0.935,-0.285,150.000,55.556,377.778,825.000,25.000,N
906,-0.155,0.890,-0.245,147.222,41.667,366.667,783.333,41.667,N
907,-0.135,0.840,-0.285,136.111,36.111,347.222,752.778,30.556,N
908,-0.210,1.000,-0.285,127.778,44.444,358.333,711.111,41.667,N
909,-0.155,1.005,-0.240,138.889,41.667,333.333,722.222,11.111,N
910,-0.105,0.945,-0.235,138.889,47.222,352.778,700.000,22.222,N
911,-0.125,0.815,-0.325,141.667,44.444,363.889,719.444,19.444,N
912,-0.245,1.015,-0.355,144.444,58.333,377.778,744.444,25.000,N
913,-0.200,0.970,-0.305,150.000,44.444,355.556,763.889,19.444,N
914,-0.175,0.915,-0.275,141.667,44.444,369.444,725.000,38.889,N
915,-0.165,0.850,-0.290,136.111,41.667,361.111,750.000,25.000,N
916,-0.205,0.880,-0.315,141.667,44.444,363.889,736.111,13.889,N
917,-0.175,1.070,-0.255,125.000,38.889,361.111,716.667,19.444,N
918,-0.160,0.950,-0.250,133.333,38.889,344.444,697.222,19.444,N
919,-0.170,0.950,-0.295,138.889,47.222,361.111,741.667,44.444,N
920,-0.225,0.890,-0.300,150.000,44.444,366.667,777.778,36.111,N
921,-0.110,1.040,-0.190,155.556,44.444,358.333,791.667,13.889,N
922,-0.080,1.050,-0.190,138.889,47.222,369.444,758.333,33.333,N
923,-0.110,1.000,-0.280,136.111,47.222,361.111,772.222,13.889,N
924,-0.205,0.990,-0.255,161.111,44.444,361.111,758.333,13.889,N
925,-0.130,1.050,-0.225,141.667,41.667,352.778,763.889,5.556,N
926,-0.135,0.945,-0.240,147.222,41.667,344.444,758.333,5.556,N
927,-0.175,0.820,-0.335,141.667,52.778,361.111,758.333,0.000,N
928,-0.280,0.875,-0.325,150.000,47.222,369.444,800.000,41.667,N
929,-0.170,1.020,-0.260,150.000,44.444,363.889,808.333,8.333,N
930,-0.125,0.940,-0.220,150.000,41.667,352.778,805.556,2.778,N
931,-0.115,0.865,-0.315,166.667,41.667,358.333,794.444,11.111,N
932,-0.230,0.910,-0.290,130.556,41.667,361.111,783.333,11.111,N
933,-0.160,1.040,-0.265,136.111,50.000,355.556,758.333,25.000,N
934,-0.150,0.855,-0.270,147.222,47.222,366.667,805.556,47.222,N
935,-0.175,0.810,-0.285,152.778,47.222,358.333,811.111,5.556,N
936,-0.190,0.860,-0.255,147.222,55.556,380.556,825.000,13.889,N
937,-0.115,0.995,-0.210,150.000,47.222,372.222,822.222,2.778,N
938,-0.090,0.920,-0.215,144.444,44.444,350.000,808.333,13.889,N
939,-0.135,0.815,-0.240,138.889,41.667,355.556,805.556,2.778,N
940,-0.170,0.950,-0.230,163.889,38.889,363.889,797.222,8.333,N
941,-0.095,0.975,-0.185,136.111,47.222,363.889,788.889,8.333,N
942,-0.105,0.830,-0.230,147.222,44.444,372.222,766.667,22.222,N
943,-0.160,0.865,-0.280,180.556,44.444,358.333,844.444,77.778,N
944,-0.195,0.890,-0.250,144.444,44.444,363.889,830.556,13.889,N
945,-0.130,0.940,-0.215,150.000,47.222,366.667,783.333,47.222,N
946,-0.115,0.850,-0.235,144.444,47.222,347.222,788.889,5.556,N
947,-0.160,0.865,-0.270,138.889,44.444,366.667,775.000,13.889,N
948,-0.150,0.920,-0.220,141.667,41.667,358.333,775.000,0.000,N
949,-0.095,1.020,-0.205,136.111,50.000,361.111,783.333,8.333,N
950,-0.110,0.835,-0.215,138.889,44.444,366.667,791.667,8.333,N
951,-0.080,1.020,-0.200,147.222,52.778,377.778,808.333,16.667,N
952,-0.075,0.850,-0.230,155.556,44.444,366.667,825.000,16.667,N
953,-0.155,0.795,-0.270,150.000,44.444,352.778,813.889,11.111,N
954,-0.160,0.890,-0.220,125.000,41.667,352.778,752.778,61.111,N
955,-0.080,0.880,-0.200,141.667,38.889,355.556,758.333,5.556,N
956,-0.120,0.840,-0.290,136.111,44.444,358.333,766.667,8.333,N
957,-0.215,0.855,-0.330,136.111,50.000,366.667,794.444,27.778,N
958,-0.160,0.960,-0.235,141.667,50.000,375.000,822.222,27.778,N
959,-0.120,0.905,-0.240,147.222,50.000,369.444,811.111,11.111,N
960,-0.155,0.830,-0.285,144.444,41.667,366.667,802.778,8.333,N
961,-0.200,0.870,-0.285,144.444,50.000,369.444,850.000,47.222,N
962,-0.165,0.930,-0.245,138.889,38.889,352.778,788.889,61.111,N
963,-0.145,0.960,-0.230,138.889,41.667,338.889,752.778,36.111,N
964,-0.110,0.910,-0.225,136.111,44.444,372.222,780.556,27.778,N
965,-0.140,0.925,-0.230,127.778,41.667,363.889,811.111,30.556,N
966,-0.100,0.990,-0.210,150.000,44.444,372.222,825.000,13.889,N
967,-0.115,0.915,-0.230,144.444,41.667,363.889,822.222,2.778,N
968,-0.130,0.885,-0.250,141.667,44.444,358.333,811.111,11.111,N
969,-0.145,0.910,-0.220,138.889,52.778,372.222,775.000,36.111,N
970,-0.115,1.050,-0.235,147.222,41.667,372.222,755.556,19.444,N
971,-0.130,0.985,-0.225,138.889,41.667,361.111,744.444,11.111,N
972,-0.160,0.905,-0.260,136.111,41.667,355.556,772.222,27.778,N
973,-0.130,0.935,-0.230,144.444,44.444,363.889,794.444,22.222,N
974,-0.060,1.100,-0.185,136.111,41.667,352.778,780.556,13.889,N
975,-0.130,1.020,-0.250,144.444,52.778,375.000,800.000,19.444,N
976,-0.200,0.860,-0.325,150.000,47.222,372.222,827.778,27.778,N
977,-0.235,1.020,-0.280,130.556,52.778,366.667,794.444,33.333,N
978,-0.145,1.080,-0.265,136.111,44.444,352.778,725.000,69.444,N
979,-0.170,1.110,-0.270,136.111,47.222,361.111,761.111,36.111,N
980,-0.160,0.915,-0.310,130.556,44.444,363.889,800.000,38.889,N
981,-0.235,0.905,-0.285,144.444,41.667,372.222,852.778,52.778,N
982,-0.125,1.190,-0.270,141.667,50.000,372.222,822.222,30.556,N
983,-0.145,1.095,-0.265,141.667,44.444,344.444,788.889,33.333,N
984,-0.170,1.005,-0.115,180.556,44.444,358.333,788.889,0.000,N
985,-0.170,0.905,-0.325,197.222,50.000,344.444,538.889,250.000,A
986,-0.205,1.105,-0.195,169.444,47.222,372.222,950.000,411.111,N
987,-0.125,1.230,-0.225,130.556,47.222,366.667,808.333,141.667,N
988,-0.155,0.975,-0.255,186.111,44.444,372.222,838.889,30.556,N
989,-0.180,0.890,-0.305,177.778,41.667,358.333,841.667,2.778,N
990,-0.220,1.060,-0.250,138.889,47.222,372.222,822.222,19.444,N
991,-0.150,1.185,-0.220,138.889,41.667,344.444,811.111,11.111,N
992,-0.135,1.070,-0.200,136.111,41.667,352.778,777.778,33.333,N
993,-0.140,0.995,-0.240,163.889,41.667,363.889,758.333,19.444,N
994,-0.165,0.960,-0.215,177.778,55.556,380.556,769.444,11.111,N
995,-0.110,1.180,-0.200,127.778,44.444,358.333,780.556,11.111,N
996,-0.125,1.080,-0.195,144.444,44.444,358.333,800.000,19.444,N
997,-0.130,1.055,-0.235,144.444,44.444,372.222,819.444,19.444,N
998,-0.175,0.995,-0.280,180.556,44.444,363.889,813.889,5.556,N
999,-0.145,1.135,-0.210,133.333,41.667,361.111,786.111,27.778,N
1000,-0.145,1.210,-0.215,130.556,44.444,355.556,755.556,30.556,N
1001,-0.145,1.045,-0.230,138.889,41.667,347.222,755.556,0.000,N
1002,-0.165,0.940,-0.295,144.444,52.778,355.556,763.889,8.333,N
1003,-0.225,1.025,-0.265,186.111,55.556,366.667,797.222,33.333,N
1004,-0.140,1.160,-0.255,138.889,41.667,355.556,819.444,22.222,N
1005,-0.145,1.150,-0.230,141.667,44.444,363.889,805.556,13.889,N
1006,-0.125,1.110,-0.210,136.111,41.667,372.222,805.556,0.000,N
1007,-0.150,1.000,-0.235,166.667,44.444,338.889,786.111,19.444,N
1008,-0.110,1.160,-0.180,133.333,41.667,344.444,761.111,25.000,N
1009,-0.100,1.185,-0.165,166.667,44.444,363.889,766.667,5.556,N
1010,-0.040,1.210,-0.155,133.333,52.778,361.111,769.444,2.778,N
1011,-0.115,0.970,-0.265,183.333,47.222,372.222,800.000,30.556,N
1012,-0.175,1.195,-0.245,188.889,58.333,380.556,838.889,38.889,N
1013,-0.135,1.110,-0.215,130.556,52.778,369.444,838.889,0.000,N
1014,-0.125,1.110,-0.200,133.333,41.667,330.556,802.778,36.111,N
1015,-0.120,0.950,-0.200,177.778,38.889,363.889,780.556,22.222,N
1016,-0.130,0.960,-0.145,141.667,44.444,355.556,780.556,0.000,N
1017,-0.030,1.190,-0.120,136.111,50.000,358.333,794.444,13.889,N
1018,-0.065,1.165,-0.160,138.889,44.444,369.444,788.889,5.556,N
1019,-0.120,1.040,-0.250,191.667,41.667,361.111,825.000,36.111,N
1020,-0.195,0.985,-0.270,147.222,44.444,363.889,816.667,8.333,N
1021,-0.115,1.145,-0.190,138.889,44.444,372.222,844.444,27.778,N
1022,-0.095,1.020,-0.160,133.333,44.444,358.333,794.444,50.000,N
1023,-0.115,0.995,-0.215,133.333,41.667,358.333,780.556,13.889,N
1024,-0.180,0.970,-0.235,166.667,44.444,347.222,763.889,16.667,N
1025,-0.140,1.090,-0.240,133.333,55.556,377.778,822.222,58.333,N
1026,-0.165,1.090,-0.225,150.000,58.333,372.222,827.778,5.556,N
1027,-0.170,0.995,-0.270,180.556,55.556,361.111,802.778,25.000,N
1028,-0.190,0.995,-0.240,183.333,44.444,361.111,816.667,13.889,N
1029,-0.145,1.105,-0.235,138.889,44.444,366.667,808.333,8.333,N
1030,-0.165,0.990,-0.265,133.333,41.667,355.556,791.667,16.667,N
1031,-0.175,0.895,-0.285,122.222,41.667,352.778,772.222,19.444,N
1032,-0.225,0.915,-0.270,172.222,44.444,363.889,775.000,2.778,N
1033,-0.170,1.010,-0.265,130.556,41.667,361.111,800.000,25.000,N
1034,-0.165,0.985,-0.250,144.444,47.222,361.111,836.111,36.111,N
1035,-0.165,0.920,-0.255,147.222,47.222,366.667,830.556,5.556,N
1036,-0.180,0.970,-0.200,136.111,52.778,375.000,791.667,38.889,N
1037,-0.120,1.045,-0.180,161.111,41.667,361.111,791.667,0.000,N
1038,-0.110,1.180,-0.205,127.778,50.000,366.667,766.667,25.000,N
1039,-0.145,1.005,-0.230,130.556,50.000,375.000,791.667,25.000,N
1040,-0.190,0.930,-0.260,161.111,47.222,358.333,775.000,16.667,N
1041,-0.130,1.050,-0.170,183.333,44.444,372.222,822.222,47.222,N
1042,-0.055,1.120,-0.175,138.889,44.444,372.222,822.222,0.000,N
1043,-0.115,0.995,-0.200,136.111,44.444,355.556,850.000,27.778,N
1044,-0.155,0.920,-0.265,133.333,44.444,361.111,811.111,38.889,N
1045,-0.200,0.980,-0.220,169.444,41.667,358.333,772.222,38.889,N
1046,-0.105,1.080,-0.230,130.556,41.667,347.222,777.778,5.556,N
1047,-0.155,1.045,-0.255,136.111,50.000,366.667,780.556,2.778,N
1048,-0.180,0.895,-0.270,141.667,44.444,369.444,800.000,19.444,N
1049,-0.175,0.960,-0.220,175.000,44.444,363.889,816.667,16.667,N
1050,-0.075,1.210,-0.175,133.333,44.444,361.111,838.889,22.222,N
1051,-0.105,1.055,-0.240,144.444,38.889,358.333,813.889,25.000,N
1052,-0.165,1.000,-0.280,138.889,50.000,350.000,813.889,0.000,N
1053,-0.230,0.925,-0.275,138.889,41.667,369.444,794.444,19.444,N
1054,-0.195,1.090,-0.250,172.222,44.444,366.667,769.444,25.000,N
1055,-0.140,1.110,-0.260,138.889,44.444,363.889,758.333,11.111,N
1056,-0.145,0.960,-0.260,144.444,44.444,372.222,819.444,61.111,N
1057,-0.210,0.910,-0.320,147.222,50.000,375.000,858.333,38.889,N
1058,-0.245,0.995,-0.285,141.667,47.222,372.222,838.889,19.444,N
1059,-0.160,1.110,-0.280,130.556,41.667,372.222,772.222,66.667,N
1060,-0.160,0.995,-0.255,138.889,41.667,350.000,750.000,22.222,N
1061,-0.165,0.875,-0.325,144.444,44.444,369.444,788.889,38.889,N
1062,-0.260,0.845,-0.310,136.111,47.222,369.444,797.222,8.333,N
1063,-0.170,1.210,-0.265,136.111,52.778,372.222,783.333,13.889,N
1064,-0.175,1.020,-0.280,150.000,44.444,363.889,788.889,5.556,N
1065,-0.170,0.935,-0.285,150.000,44.444,372.222,825.000,36.111,N
1066,-0.205,0.855,-0.315,141.667,50.000,372.222,841.667,16.667,N
1067,-0.160,1.010,-0.245,136.111,41.667,350.000,813.889,27.778,N
1068,-0.160,1.175,-0.290,133.333,47.222,338.889,730.556,83.333,N
1069,-0.210,1.055,-0.305,133.333,47.222,355.556,750.000,19.444,N
1070,-0.235,0.815,-0.365,150.000,55.556,380.556,811.111,61.111,N
1071,-0.250,0.870,-0.310,144.444,52.778,375.000,822.222,11.111,N
1072,-0.185,1.050,-0.270,147.222,41.667,366.667,772.222,50.000,N
1073,-0.185,0.960,-0.270,144.444,41.667,361.111,788.889,16.667,N
1074,-0.175,0.995,-0.315,166.667,50.000,363.889,800.000,11.111,N
1075,-0.280,0.765,-0.355,161.111,44.444,363.889,794.444,5.556,N
1076,-0.215,0.990,-0.345,166.667,44.444,330.556,588.889,205.556,A
1077,-0.200,0.985,-0.260,136.111,44.444,355.556,905.556,316.667,N
1078,-0.170,0.955,-0.220,144.444,41.667,363.889,838.889,66.667,N
1079,-0.155,0.935,-0.250,186.111,47.222,375.000,844.444,5.556,N
1080,-0.120,1.130,-0.195,141.667,58.333,377.778,838.889,5.556,N
1081,-0.095,1.090,-0.210,133.333,41.667,361.111,808.333,30.556,N
1082,-0.115,1.010,-0.240,141.667,41.667,363.889,777.778,30.556,N
1083,-0.150,0.975,-0.275,150.000,41.667,344.444,641.667,136.111,A
1084,-0.220,0.825,-0.275,133.333,44.444,358.333,880.556,238.889,N
1085,-0.165,0.990,-0.280,130.556,38.889,355.556,797.222,83.333,N
1086,-0.175,0.985,-0.275,150.000,44.444,363.889,766.667,30.556,N
1087,-0.175,0.905,-0.305,144.444,44.444,369.444,797.222,30.556,N
1088,-0.230,0.855,-0.355,150.000,55.556,372.222,844.444,47.222,N
1089,-0.220,0.930,-0.265,136.111,52.778,361.111,830.556,13.889,N
1090,-0.160,1.040,-0.270,130.556,41.667,350.000,736.111,94.444,N
1091,-0.190,0.905,-0.280,138.889,38.889,344.444,755.556,19.444,N
1092,-0.215,0.815,-0.320,136.111,41.667,355.556,777.778,22.222,N
1093,-0.250,0.815,-0.275,147.222,58.333,380.556,816.667,38.889,N
1094,-0.165,1.010,-0.275,152.778,47.222,375.000,800.000,16.667,N
1095,-0.165,1.005,-0.270,147.222,50.000,363.889,791.667,8.333,N
1096,-0.205,0.960,-0.300,136.111,52.778,369.444,802.778,11.111,N
1097,-0.230,0.970,-0.230,144.444,41.667,372.222,819.444,16.667,N
1098,-0.095,1.120,-0.185,141.667,41.667,350.000,775.000,44.444,N
1099,-0.090,0.985,-0.205,127.778,41.667,361.111,736.111,38.889,N
1100,-0.115,0.980,-0.255,141.667,41.667,344.444,772.222,36.111,N
1101,-0.170,0.890,-0.295,166.667,55.556,375.000,611.111,161.111,A
1102,-0.165,0.965,-0.205,147.222,58.333,383.333,1022.222,411.111,N
1103,-0.095,1.070,-0.190,141.667,47.222,369.444,875.000,147.222,N
1104,-0.130,1.070,-0.235,130.556,50.000,372.222,833.333,41.667,N
1105,-0.195,0.810,-0.295,175.000,50.000,372.222,783.333,50.000,N
1106,-0.180,1.005,-0.230,175.000,41.667,366.667,786.111,2.778,N
1107,-0.125,1.070,-0.180,136.111,44.444,355.556,808.333,22.222,N
1108,-0.120,1.030,-0.220,130.556,41.667,355.556,800.000,8.333,N
1109,-0.200,0.895,-0.305,141.667,41.667,358.333,813.889,13.889,N
1110,-0.210,0.920,-0.240,136.111,44.444,369.444,822.222,8.333,N
1111,-0.165,1.085,-0.245,141.667,41.667,363.889,838.889,16.667,N
1112,-0.155,1.045,-0.215,144.444,44.444,372.222,813.889,25.000,N
1113,-0.145,0.925,-0.240,141.667,44.444,358.333,775.000,38.889,N
1114,-0.205,1.000,-0.230,172.222,41.667,366.667,772.222,2.778,N
1115,-0.115,1.135,-0.220,144.444,58.333,383.333,797.222,25.000,N
1116,-0.130,1.060,-0.205,138.889,41.667,366.667,794.444,2.778,N
1117,-0.115,0.950,-0.280,141.667,44.444,361.111,816.667,22.222,N
1118,-0.210,0.865,-0.310,166.667,47.222,375.000,625.000,191.667,A
1119,-0.215,1.035,-0.230,138.889,44.444,355.556,1000.000,375.000,N
1120,-0.160,1.080,-0.235,133.333,41.667,358.333,813.889,186.111,N
1121,-0.150,1.005,-0.255,141.667,41.667,369.444,808.333,5.556,N
1122,-0.210,0.855,-0.280,158.333,41.667,372.222,783.333,25.000,N
1123,-0.105,0.985,-0.285,191.667,41.667,363.889,588.889,194.444,A
1124,-0.180,1.045,-0.270,144.444,44.444,372.222,1008.333,419.444,N
1125,-0.185,0.940,-0.265,138.889,47.222,372.222,883.333,125.000,N
1126,-0.225,0.865,-0.330,172.222,44.444,369.444,836.111,47.222,N
1127,-0.280,0.975,-0.250,125.000,47.222,363.889,800.000,36.111,N
1128,-0.155,1.175,-0.220,166.667,41.667,338.889,813.889,13.889,N
1129,-0.145,1.110,-0.230,133.333,44.444,361.111,794.444,19.444,N
1130,-0.135,0.920,-0.265,141.667,41.667,355.556,830.556,36.111,N
1131,-0.200,0.925,-0.275,175.000,44.444,372.222,811.111,19.444,N
1132,-0.185,1.145,-0.260,186.111,44.444,375.000,847.222,36.111,N
1133,-0.180,1.095,-0.255,138.889,47.222,372.222,852.778,5.556,N
1134,-0.160,1.025,-0.275,138.889,41.667,372.222,827.778,25.000,N
1135,-0.225,0.850,-0.300,169.444,41.667,369.444,786.111,41.667,N
1136,-0.210,1.050,-0.235,169.444,50.000,377.778,783.333,2.778,N
1137,-0.155,1.070,-0.240,127.778,38.889,363.889,797.222,13.889,N
1138,-0.160,1.015,-0.255,183.333,50.000,377.778,847.222,50.000,N
1139,-0.165,0.865,-0.280,186.111,44.444,372.222,872.222,25.000,N
1140,-0.195,1.065,-0.255,158.333,55.556,369.444,822.222,50.000,N
1141,-0.160,1.135,-0.210,147.222,44.444,366.667,836.111,13.889,N
1142,-0.105,1.050,-0.205,130.556,44.444,369.444,800.000,36.111,N
1143,-0.155,0.985,-0.260,133.333,38.889,366.667,794.444,5.556,N
1144,-0.220,1.000,-0.325,161.111,47.222,372.222,777.778,16.667,N
1145,-0.245,0.915,-0.280,138.889,44.444,366.667,797.222,19.444,N
1146,-0.185,1.090,-0.275,144.444,47.222,369.444,850.000,52.778,N
1147,-0.205,1.170,-0.305,177.778,58.333,372.222,852.778,2.778,N
1148,-0.225,0.865,-0.325,136.111,47.222,369.444,841.667,11.111,N
1149,-0.255,0.860,-0.240,169.444,41.667,366.667,800.000,41.667,N
1150,-0.115,1.125,-0.180,138.889,41.667,363.889,805.556,5.556,N
1151,-0.085,1.125,-0.215,133.333,44.444,363.889,805.556,0.000,N
1152,-0.145,0.970,-0.300,141.667,52.778,369.444,811.111,5.556,N
1153,-0.255,0.875,-0.310,172.222,44.444,372.222,808.333,2.778,N
1154,-0.185,1.035,-0.240,147.222,47.222,369.444,841.667,33.333,N
1155,-0.155,1.020,-0.265,177.778,44.444,366.667,836.111,5.556,N
1156,-0.140,1.105,-0.235,133.333,50.000,375.000,841.667,5.556,N
1157,-0.185,0.885,-0.260,169.444,41.667,355.556,786.111,55.556,N
1158,-0.190,0.935,-0.230,166.667,41.667,344.444,777.778,8.333,N
1159,-0.145,1.050,-0.200,141.667,41.667,358.333,813.889,36.111,N
1160,-0.135,0.970,-0.235,144.444,44.444,369.444,844.444,30.556,N
1161,-0.170,0.905,-0.275,180.556,44.444,361.111,855.556,11.111,N
1162,-0.220,0.915,-0.260,180.556,47.222,372.222,819.444,36.111,N
1163,-0.145,1.110,-0.230,180.556,47.222,347.222,847.222,27.778,N
1164,-0.185,0.965,-0.250,130.556,41.667,363.889,797.222,50.000,N
1165,-0.175,1.030,-0.230,136.111,50.000,369.444,813.889,16.667,N
1166,-0.210,0.870,-0.295,177.778,50.000,366.667,791.667,22.222,N
1167,-0.210,1.005,-0.235,169.444,47.222,372.222,805.556,13.889,N
1168,-0.165,1.010,-0.250,150.000,41.667,363.889,858.333,52.778,N
1169,-0.175,0.945,-0.270,136.111,44.444,372.222,858.333,0.000,N
1170,-0.210,0.840,-0.315,177.778,41.667,366.667,838.889,19.444,N
1171,-0.250,0.995,-0.230,130.556,41.667,372.222,777.778,61.111,N
1172,-0.125,1.215,-0.215,125.000,44.444,369.444,802.778,25.000,N
1173,-0.140,1.005,-0.235,177.778,41.667,352.778,800.000,2.778,N
1174,-0.180,0.890,-0.285,186.111,44.444,375.000,811.111,11.111,N
1175,-0.235,0.900,-0.220,186.111,47.222,372.222,819.444,8.333,N
1176,-0.135,1.050,-0.215,136.111,44.444,372.222,833.333,13.889,N
1177,-0.145,0.995,-0.215,147.222,44.444,372.222,847.222,13.889,N
1178,-0.105,0.960,-0.240,130.556,41.667,372.222,819.444,27.778,N
1179,-0.190,0.900,-0.270,161.111,38.889,341.667,777.778,41.667,N
1180,-0.145,1.095,-0.195,125.000,41.667,358.333,769.444,8.333,N
1181,-0.130,1.025,-0.220,136.111,38.889,363.889,791.667,22.222,N
1182,-0.170,0.895,-0.295,158.333,47.222,369.444,816.667,25.000,N
1183,-0.240,0.820,-0.300,188.889,44.444,366.667,833.333,16.667,N
1184,-0.160,1.140,-0.265,141.667,52.778,363.889,838.889,5.556,N
1185,-0.210,0.945,-0.315,136.111,41.667,355.556,805.556,33.333,N
1186,-0.235,0.795,-0.335,138.889,52.778,358.333,808.333,2.778,N
1187,-0.310,0.810,-0.375,125.000,47.222,366.667,786.111,22.222,N
1188,-0.265,0.960,-0.315,175.000,41.667,352.778,797.222,11.111,N
1189,-0.240,0.985,-0.305,172.222,52.778,375.000,800.000,2.778,N
1190,-0.220,0.865,-0.350,136.111,41.667,372.222,847.222,47.222,N
1191,-0.270,0.820,-0.370,144.444,44.444,363.889,838.889,8.333,N
1192,-0.235,1.000,-0.310,177.778,58.333,369.444,852.778,13.889,N
1193,-0.220,0.970,-0.300,138.889,41.667,366.667,811.111,41.667,N
1194,-0.230,1.055,-0.330,166.667,52.778,361.111,775.000,36.111,N
1195,-0.285,0.885,-0.405,180.556,58.333,372.222,797.222,22.222,N
1196,-0.310,0.920,-0.320,141.667,47.222,372.222,800.000,2.778,N
1197,-0.215,1.080,-0.275,136.111,44.444,375.000,819.444,19.444,N
1198,-0.170,1.020,-0.255,144.444,47.222,369.444,844.444,25.000,N
1199,-0.200,0.805,-0.310,188.889,55.556,366.667,847.222,2.778,N
1200,-0.260,0.880,-0.320,172.222,50.000,363.889,805.556,41.667,N
1201,-0.175,1.120,-0.240,122.222,44.444,350.000,811.111,5.556,N
1202,-0.195,1.005,-0.275,130.556,44.444,338.889,780.556,30.556,N
1203,-0.215,0.930,-0.300,166.667,41.667,361.111,763.889,16.667,N
1204,-0.260,0.770,-0.385,147.222,63.889,383.333,813.889,50.000,N
1205,-0.305,0.875,-0.325,180.556,55.556,377.778,816.667,2.778,N
1206,-0.225,1.000,-0.290,138.889,44.444,369.444,822.222,5.556,N
1207,-0.225,0.975,-0.285,141.667,44.444,369.444,805.556,16.667,N
1208,-0.205,1.005,-0.310,130.556,52.778,347.222,788.889,16.667,N
1209,-0.245,0.870,-0.250,163.889,44.444,361.111,769.444,19.444,N
1210,-0.110,1.220,-0.155,127.778,50.000,366.667,797.222,27.778,N
1211,-0.105,1.075,-0.195,144.444,41.667,350.000,794.444,2.778,N
1212,-0.145,0.925,-0.285,138.889,44.444,372.222,794.444,0.000,N
1213,-0.245,0.790,-0.350,188.889,47.222,372.222,852.778,58.333,N
1214,-0.275,0.985,-0.315,133.333,52.778,372.222,819.444,33.333,N
1215,-0.210,1.070,-0.275,130.556,44.444,358.333,808.333,11.111,N
1216,-0.215,0.905,-0.290,177.778,41.667,358.333,800.000,8.333,N
1217,-0.205,0.790,-0.355,175.000,38.889,347.222,577.778,222.222,A
1218,-0.315,0.800,-0.295,163.889,50.000,372.222,952.778,375.000,N
1219,-0.195,1.040,-0.265,136.111,44.444,361.111,852.778,100.000,N
1220,-0.185,0.995,-0.270,141.667,41.667,366.667,847.222,5.556,N
1221,-0.215,0.840,-0.325,186.111,50.000,375.000,844.444,2.778,N
1222,-0.260,1.010,-0.280,180.556,55.556,363.889,844.444,0.000,N
1223,-0.170,1.080,-0.195,175.000,47.222,372.222,808.333,36.111,N
1224,-0.115,1.035,-0.165,130.556,41.667,363.889,766.667,41.667,N
1225,-0.105,0.990,-0.175,141.667,50.000,361.111,797.222,30.556,N
1226,-0.155,1.030,-0.295,169.444,55.556,366.667,780.556,16.667,N
1227,-0.200,0.955,-0.235,175.000,50.000,372.222,838.889,58.333,N
1228,-0.135,1.140,-0.220,138.889,41.667,363.889,855.556,16.667,N
1229,-0.145,1.025,-0.215,141.667,41.667,366.667,827.778,27.778,N
1230,-0.145,0.880,-0.270,172.222,44.444,369.444,783.333,44.444,N
1231,-0.215,0.975,-0.235,186.111,44.444,372.222,800.000,16.667,N
1232,-0.135,1.175,-0.180,136.111,41.667,358.333,791.667,8.333,N
1233,-0.115,1.135,-0.215,152.778,38.889,355.556,600.000,191.667,A
1234,-0.145,0.975,-0.330,175.000,55.556,369.444,944.444,344.444,N
1235,-0.255,0.835,-0.350,138.889,50.000,375.000,816.667,127.778,N
1236,-0.255,1.035,-0.305,141.667,44.444,366.667,836.111,19.444,N
1237,-0.210,1.015,-0.300,166.667,38.889,361.111,819.444,16.667,N
1238,-0.240,0.815,-0.345,127.778,38.889,361.111,763.889,55.556,N
1239,-0.310,0.805,-0.430,177.778,41.667,361.111,752.778,11.111,N
1240,-0.305,0.840,-0.340,141.667,55.556,380.556,805.556,52.778,N
1241,-0.250,0.970,-0.315,144.444,41.667,361.111,791.667,13.889,N
1242,-0.205,0.930,-0.280,180.556,47.222,375.000,822.222,30.556,N
1243,-0.225,0.885,-0.340,191.667,44.444,366.667,827.778,5.556,N
1244,-0.250,0.950,-0.305,169.444,44.444,358.333,808.333,19.444,N
1245,-0.185,1.070,-0.275,130.556,44.444,363.889,827.778,19.444,N
1246,-0.195,0.985,-0.285,130.556,38.889,347.222,797.222,30.556,N
1247,-0.220,0.870,-0.320,161.111,41.667,344.444,769.444,27.778,N
1248,-0.280,0.925,-0.315,169.444,47.222,372.222,775.000,5.556,N
1249,-0.190,1.105,-0.255,150.000,47.222,369.444,852.778,77.778,N
1250,-0.165,1.035,-0.260,150.000,44.444,358.333,827.778,25.000,N
1251,-0.165,0.945,-0.270,186.111,47.222,375.000,819.444,8.333,N
1252,-0.215,0.920,-0.275,169.444,47.222,372.222,797.222,22.222,N
1253,-0.180,1.045,-0.255,130.556,47.222,358.333,783.333,13.889,N
1254,-0.155,1.170,-0.235,133.333,47.222,372.222,786.111,2.778,N
1255,-0.170,1.015,-0.250,136.111,38.889,347.222,805.556,19.444,N
1256,-0.185,0.990,-0.270,141.667,47.222,375.000,794.444,11.111,N
1257,-0.235,0.925,-0.285,188.889,61.111,377.778,822.222,27.778,N
1258,-0.180,1.010,-0.275,191.667,50.000,369.444,850.000,27.778,N
1259,-0.115,1.270,-0.185,138.889,44.444,369.444,827.778,22.222,N
1260,-0.170,1.010,-0.290,177.778,41.667,361.111,775.000,52.778,N
1261,-0.205,0.895,-0.290,133.333,41.667,366.667,747.222,27.778,N
1262,-0.210,0.895,-0.270,133.333,41.667,369.444,747.222,0.000,N
1263,-0.165,0.975,-0.275,166.667,41.667,363.889,775.000,27.778,N
1264,-0.180,1.095,-0.190,141.667,41.667,358.333,802.778,27.778,N
1265,-0.055,1.155,-0.140,191.667,41.667,363.889,811.111,8.333,N
1266,-0.055,1.115,-0.180,177.778,47.222,366.667,800.000,11.111,N
1267,-0.135,0.990,-0.210,186.111,55.556,375.000,811.111,11.111,N
1268,-0.140,1.250,-0.245,136.111,50.000,372.222,783.333,27.778,N
1269,-0.140,1.105,-0.240,130.556,41.667,355.556,747.222,36.111,N
1270,-0.145,0.980,-0.235,125.000,41.667,358.333,744.444,2.778,N
1271,-0.155,1.130,-0.175,166.667,41.667,372.222,802.778,58.333,N
1272,-0.050,1.270,-0.145,136.111,44.444,363.889,780.556,22.222,N
1273,-0.035,1.185,-0.175,138.889,44.444,369.444,816.667,36.111,N
1274,-0.115,0.990,-0.245,141.667,44.444,372.222,811.111,5.556,N
1275,-0.110,1.085,-0.235,138.889,44.444,355.556,800.000,11.111,N
1276,-0.125,1.100,-0.220,138.889,41.667,350.000,755.556,44.444,N
1277,-0.085,1.025,-0.220,136.111,41.667,372.222,777.778,22.222,N
1278,-0.170,0.940,-0.240,122.222,41.667,366.667,800.000,22.222,N
1279,-0.130,1.030,-0.220,133.333,47.222,366.667,788.889,11.111,N
1280,-0.115,1.070,-0.200,136.111,41.667,372.222,811.111,22.222,N
1281,-0.095,1.030,-0.245,141.667,55.556,372.222,855.556,44.444,N
1282,-0.135,1.020,-0.225,138.889,44.444,372.222,861.111,5.556,N
1283,-0.110,1.115,-0.245,144.444,50.000,347.222,761.111,100.000,N
1284,-0.160,1.015,-0.250,138.889,47.222,344.444,769.444,8.333,N
1285,-0.165,0.905,-0.260,144.444,58.333,375.000,808.333,38.889,N
1286,-0.145,1.055,-0.265,133.333,50.000,375.000,822.222,13.889,N
1287,-0.135,1.025,-0.250,144.444,41.667,363.889,791.667,30.556,N
1288,-0.135,0.935,-0.310,138.889,44.444,366.667,833.333,41.667,N
1289,-0.225,0.980,-0.265,152.778,44.444,372.222,863.889,30.556,N
1290,-0.150,1.130,-0.250,138.889,41.667,363.889,794.444,69.444,N
1291,-0.135,1.035,-0.220,138.889,38.889,344.444,797.222,2.778,N
1292,-0.130,0.965,-0.220,130.556,47.222,372.222,788.889,8.333,N
1293,-0.130,1.070,-0.220,136.111,44.444,363.889,813.889,25.000,N
1294,-0.100,1.090,-0.215,144.444,52.778,377.778,791.667,22.222,N
1295,-0.120,1.030,-0.245,144.444,47.222,375.000,836.111,44.444,N
1296,-0.175,0.895,-0.260,138.889,47.222,372.222,844.444,8.333,N
1297,-0.190,1.170,-0.260,136.111,58.333,372.222,822.222,22.222,N
1298,-0.120,1.085,-0.255,136.111,38.889,363.889,747.222,75.000,N
1299,-0.135,1.045,-0.220,138.889,41.667,350.000,772.222,25.000,N
1300,-0.120,0.990,-0.215,136.111,44.444,372.222,791.667,19.444,N
1301,-0.095,1.100,-0.185,147.222,44.444,372.222,802.778,11.111,N
1302,-0.075,1.180,-0.240,150.000,50.000,366.667,763.889,38.889,N
1303,-0.170,0.980,-0.280,147.222,44.444,369.444,825.000,61.111,N
1304,-0.225,0.935,-0.315,150.000,47.222,361.111,844.444,19.444,N
1305,-0.130,1.105,-0.200,130.556,47.222,363.889,811.111,33.333,N
1306,-0.070,1.180,-0.140,130.556,38.889,361.111,716.667,94.444,N
1307,-0.055,1.310,-0.160,127.778,47.222,358.333,769.444,52.778,N
1308,-0.110,0.970,-0.245,169.444,44.444,372.222,802.778,33.333,N
1309,-0.140,1.125,-0.210,144.444,41.667,358.333,847.222,44.444,N
1310,-0.100,1.170,-0.240,155.556,52.778,363.889,788.889,58.333,N
1311,-0.125,1.085,-0.260,150.000,41.667,358.333,800.000,11.111,N
1312,-0.165,0.965,-0.275,144.444,52.778,369.444,841.667,41.667,N
1313,-0.130,1.185,-0.185,141.667,41.667,369.444,811.111,30.556,N
1314,-0.060,1.255,-0.170,133.333,47.222,352.778,722.222,88.889,N
1315,-0.085,1.085,-0.205,136.111,38.889,363.889,747.222,25.000,N
1316,-0.160,0.990,-0.250,136.111,41.667,366.667,800.000,52.778,N
1317,-0.110,1.135,-0.205,147.222,44.444,372.222,841.667,41.667,N
1318,-0.125,1.160,-0.225,147.222,47.222,375.000,786.111,55.556,N
1319,-0.110,1.070,-0.215,150.000,44.444,366.667,802.778,16.667,N
1320,-0.130,1.005,-0.230,172.222,44.444,366.667,802.778,0.000,N
1321,-0.135,1.145,-0.195,138.889,47.222,361.111,791.667,11.111,N
1322,-0.070,1.270,-0.215,191.667,44.444,350.000,611.111,180.556,A
1323,-0.095,1.090,-0.200,127.778,41.667,366.667,897.222,286.111,N
1324,-0.175,1.015,-0.275,180.556,47.222,366.667,822.222,75.000,N
1325,-0.140,1.170,-0.180,141.667,41.667,366.667,847.222,25.000,N
1326,-0.085,1.195,-0.185,183.333,44.444,372.222,841.667,5.556,N
1327,-0.095,1.175,-0.210,133.333,44.444,361.111,833.333,8.333,N
1328,-0.200,1.190,-0.255,169.444,50.000,375.000,772.222,61.111,N
1329,-0.140,1.250,-0.215,130.556,44.444,344.444,758.333,13.889,N
1330,-0.135,1.155,-0.215,125.000,44.444,366.667,777.778,19.444,N
1331,-0.135,1.310,-0.250,183.333,52.778,377.778,811.111,33.333,N
1332,-0.215,0.925,-0.275,180.556,50.000,366.667,811.111,0.000,N
1333,-0.220,1.075,-0.240,141.667,41.667,358.333,802.778,8.333,N
1334,-0.165,1.165,-0.240,130.556,41.667,363.889,827.778,25.000,N
1335,-0.155,1.080,-0.210,175.000,44.444,366.667,800.000,27.778,N
1336,-0.170,1.030,-0.215,175.000,44.444,350.000,763.889,36.111,N
1337,-0.100,1.160,-0.175,180.556,44.444,358.333,775.000,11.111,N
1338,-0.090,1.185,-0.195,169.444,52.778,358.333,755.556,19.444,N
1339,-0.130,1.070,-0.295,144.444,61.111,375.000,805.556,50.000,N
1340,-0.235,0.890,-0.300,138.889,44.444,372.222,816.667,11.111,N
1341,-0.140,1.185,-0.200,138.889,50.000,369.444,830.556,13.889,N
1342,-0.125,1.120,-0.200,138.889,41.667,366.667,800.000,30.556,N
1343,-0.150,0.970,-0.260,136.111,41.667,350.000,800.000,0.000,N
1344,-0.240,0.870,-0.280,183.333,50.000,363.889,761.111,38.889,N
1345,-0.195,1.070,-0.250,183.333,44.444,347.222,794.444,33.333,N
1346,-0.170,1.045,-0.235,144.444,41.667,372.222,788.889,5.556,N
1347,-0.165,1.020,-0.265,138.889,50.000,375.000,805.556,16.667,N
1348,-0.225,0.840,-0.335,194.444,47.222,372.222,825.000,19.444,N
1349,-0.175,1.060,-0.215,138.889,44.444,361.111,836.111,11.111,N
1350,-0.150,1.095,-0.215,125.000,44.444,352.778,805.556,30.556,N
1351,-0.170,1.065,-0.260,130.556,47.222,375.000,783.333,22.222,N
1352,-0.245,0.775,-0.345,166.667,41.667,338.889,780.556,2.778,N
1353,-0.270,0.900,-0.290,183.333,44.444,355.556,783.333,2.778,N
1354,-0.210,1.050,-0.305,150.000,44.444,366.667,830.556,47.222,N
1355,-0.220,0.940,-0.310,183.333,44.444,361.111,833.333,2.778,N
1356,-0.275,0.845,-0.355,141.667,44.444,363.889,811.111,22.222,N
1357,-0.250,0.900,-0.275,147.222,55.556,375.000,833.333,22.222,N
1358,-0.220,1.060,-0.305,133.333,41.667,355.556,811.111,22.222,N
1359,-0.220,0.925,-0.315,130.556,38.889,327.778,772.222,38.889,N
1360,-0.285,0.795,-0.370,166.667,44.444,352.778,758.333,13.889,N
1361,-0.230,1.110,-0.275,136.111,50.000,358.333,802.778,44.444,N
1362,-0.185,1.010,-0.275,144.444,47.222,361.111,827.778,25.000,N
1363,-0.200,0.990,-0.295,147.222,50.000,372.222,855.556,27.778,N
1364,-0.275,0.840,-0.335,141.667,50.000,366.667,827.778,27.778,N
1365,-0.215,0.990,-0.240,138.889,41.667,352.778,794.444,33.333,N
1366,-0.160,1.125,-0.215,180.556,44.444,361.111,825.000,30.556,N
1367,-0.165,0.950,-0.290,133.333,41.667,372.222,802.778,22.222,N
1368,-0.265,0.835,-0.360,130.556,38.889,363.889,791.667,11.111,N
1369,-0.255,0.935,-0.260,180.556,44.444,372.222,822.222,30.556,N
1370,-0.165,1.035,-0.180,141.667,38.889,363.889,858.333,36.111,N
1371,-0.120,1.070,-0.215,141.667,52.778,377.778,847.222,11.111,N
1372,-0.185,0.915,-0.275,180.556,41.667,372.222,825.000,22.222,N
1373,-0.175,1.070,-0.205,177.778,41.667,358.333,786.111,38.889,N
1374,-0.150,1.095,-0.230,175.000,41.667,363.889,777.778,8.333,N
1375,-0.185,0.945,-0.310,141.667,44.444,361.111,802.778,25.000,N
1376,-0.295,0.785,-0.360,177.778,44.444,366.667,797.222,5.556,N
1377,-0.205,1.060,-0.235,133.333,41.667,372.222,825.000,27.778,N
1378,-0.120,1.095,-0.185,136.111,44.444,361.111,833.333,8.333,N
1379,-0.105,1.060,-0.220,172.222,47.222,372.222,825.000,8.333,N
1380,-0.215,0.885,-0.270,175.000,38.889,361.111,786.111,38.889,N
1381,-0.145,1.075,-0.240,127.778,41.667,369.444,794.444,8.333,N
1382,-0.170,0.990,-0.265,172.222,41.667,372.222,766.667,27.778,N
1383,-0.200,0.935,-0.290,175.000,41.667,369.444,783.333,16.667,N
1384,-0.250,0.860,-0.330,175.000,50.000,372.222,819.444,36.111,N
1385,-0.160,1.075,-0.215,183.333,52.778,380.556,847.222,27.778,N
1386,-0.145,1.065,-0.205,175.000,41.667,366.667,822.222,25.000,N
1387,-0.150,1.000,-0.255,169.444,44.444,369.444,811.111,11.111,N
1388,-0.230,0.875,-0.305,130.556,38.889,361.111,775.000,36.111,N
1389,-0.170,1.105,-0.215,138.889,47.222,375.000,791.667,16.667,N
1390,-0.135,1.065,-0.200,133.333,41.667,361.111,811.111,19.444,N
1391,-0.125,0.970,-0.120,130.556,44.444,372.222,800.000,11.111,N
1392,-0.105,0.780,-0.315,197.222,47.222,363.889,561.111,238.889,A
1393,-0.165,1.075,-0.225,150.000,44.444,372.222,1025.000,463.889,N
1394,-0.150,1.060,-0.190,141.667,41.667,369.444,841.667,183.333,N
1395,-0.115,0.990,-0.235,127.778,41.667,352.778,797.222,44.444,N
1396,-0.230,0.950,-0.255,133.333,44.444,355.556,763.889,33.333,N
1397,-0.130,1.065,-0.185,130.556,52.778,375.000,788.889,25.000,N
1398,-0.150,1.060,-0.215,133.333,44.444,372.222,794.444,5.556,N
1399,-0.210,1.005,-0.360,141.667,55.556,372.222,825.000,30.556,N
1400,-0.255,0.930,-0.300,194.444,50.000,369.444,816.667,8.333,N
1401,-0.230,1.020,-0.300,188.889,44.444,366.667,813.889,2.778,N
1402,-0.240,0.915,-0.325,141.667,58.333,369.444,827.778,13.889,N
1403,-0.300,0.800,-0.395,125.000,41.667,363.889,772.222,55.556,N
1404,-0.310,0.915,-0.280,130.556,38.889,361.111,772.222,0.000,N
1405,-0.190,1.050,-0.230,136.111,44.444,350.000,794.444,22.222,N
1406,-0.135,1.150,-0.245,180.556,47.222,363.889,805.556,11.111,N
1407,-0.225,0.830,-0.380,141.667,52.778,375.000,844.444,38.889,N
1408,-0.265,0.970,-0.255,133.333,44.444,361.111,844.444,0.000,N
1409,-0.165,1.165,-0.225,141.667,44.444,361.111,833.333,11.111,N
1410,-0.155,1.100,-0.275,133.333,47.222,369.444,791.667,41.667,N
1411,-0.230,0.880,-0.380,172.222,41.667,352.778,797.222,5.556,N
1412,-0.260,0.920,-0.235,136.111,44.444,369.444,783.333,13.889,N
1413,-0.125,1.145,-0.160,144.444,41.667,369.444,816.667,33.333,N
1414,-0.105,1.030,-0.185,172.222,50.000,372.222,819.444,2.778,N
1415,-0.165,0.950,-0.315,180.556,52.778,363.889,822.222,2.778,N
1416,-0.225,0.955,-0.220,186.111,44.444,372.222,841.667,19.444,N
1417,-0.140,1.150,-0.205,127.778,47.222,352.778,816.667,25.000,N
1418,-0.120,1.035,-0.220,175.000,41.667,333.333,786.111,30.556,N
1419,-0.190,0.925,-0.250,138.889,47.222,375.000,763.889,22.222,N
1420,-0.110,1.105,-0.155,141.667,50.000,375.000,800.000,36.111,N
1421,-0.085,1.120,-0.180,186.111,47.222,375.000,813.889,13.889,N
1422,-0.120,0.995,-0.270,172.222,44.444,375.000,819.444,5.556,N
1423,-0.270,0.805,-0.375,183.333,50.000,375.000,816.667,2.778,N
1424,-0.245,1.035,-0.255,130.556,52.778,363.889,805.556,11.111,N
1425,-0.180,1.100,-0.215,136.111,44.444,361.111,805.556,0.000,N
1426,-0.150,0.895,-0.290,133.333,55.556,338.889,786.111,19.444,N
1427,-0.255,0.820,-0.300,122.222,41.667,369.444,752.778,33.333,N
1428,-0.160,1.140,-0.240,141.667,50.000,369.444,805.556,52.778,N
1429,-0.160,1.080,-0.245,144.444,52.778,366.667,838.889,33.333,N
1430,-0.195,0.895,-0.360,150.000,47.222,375.000,836.111,2.778,N
1431,-0.240,0.965,-0.215,147.222,41.667,358.333,816.667,19.444,N
1432,-0.125,1.200,-0.160,169.444,47.222,372.222,788.889,27.778,N
1433,-0.060,1.145,-0.155,130.556,41.667,363.889,788.889,0.000,N
1434,-0.135,0.965,-0.250,166.667,44.444,361.111,786.111,2.778,N
1435,-0.175,1.055,-0.160,136.111,41.667,358.333,788.889,2.778,N
1436,-0.070,1.205,-0.145,133.333,44.444,369.444,822.222,33.333,N
1437,-0.090,1.095,-0.200,188.889,44.444,372.222,833.333,11.111,N
1438,-0.180,0.890,-0.325,186.111,47.222,369.444,844.444,11.111,N
1439,-0.260,0.910,-0.215,141.667,44.444,366.667,805.556,38.889,N
1440,-0.110,1.300,-0.145,127.778,52.778,372.222,780.556,25.000,N
1441,-0.075,1.215,-0.150,130.556,47.222,358.333,777.778,2.778,N
1442,-0.105,1.000,-0.265,169.444,50.000,372.222,786.111,8.333,N
1443,-0.250,0.925,-0.275,177.778,47.222,366.667,808.333,22.222,N
1444,-0.130,1.285,-0.220,141.667,50.000,369.444,850.000,41.667,N
1445,-0.120,1.080,-0.210,138.889,50.000,375.000,844.444,5.556,N
1446,-0.165,1.020,-0.325,180.556,52.778,375.000,813.889,30.556,N
1447,-0.270,0.925,-0.260,180.556,41.667,358.333,813.889,0.000,N
1448,-0.145,1.125,-0.215,138.889,41.667,358.333,805.556,8.333,N
1449,-0.135,1.085,-0.205,138.889,47.222,355.556,769.444,36.111,N
1450,-0.165,0.940,-0.275,183.333,44.444,358.333,777.778,8.333,N
1451,-0.240,0.940,-0.310,194.444,55.556,375.000,811.111,33.333,N
1452,-0.180,1.090,-0.260,144.444,44.444,361.111,850.000,38.889,N
1453,-0.160,1.065,-0.225,141.667,41.667,372.222,822.222,27.778,N
1454,-0.200,1.005,-0.320,163.889,50.000,363.889,797.222,25.000,N
1455,-0.265,0.945,-0.255,172.222,41.667,372.222,758.333,38.889,N
1456,-0.170,1.145,-0.245,141.667,38.889,361.111,808.333,50.000,N
1457,-0.190,1.240,-0.275,177.778,55.556,369.444,780.556,27.778,N
1458,-0.265,0.830,-0.345,141.667,44.444,369.444,777.778,2.778,N
1459,-0.300,0.865,-0.325,188.889,50.000,375.000,816.667,38.889,N
1460,-0.160,1.120,-0.215,147.222,55.556,372.222,841.667,25.000,N
1461,-0.145,1.110,-0.235,144.444,41.667,366.667,813.889,27.778,N
1462,-0.180,0.920,-0.275,163.889,41.667,358.333,786.111,27.778,N
1463,-0.200,1.040,-0.205,163.889,44.444,352.778,772.222,13.889,N
1464,-0.105,1.130,-0.175,172.222,50.000,361.111,769.444,2.778,N
1465,-0.110,1.205,-0.215,141.667,52.778,361.111,816.667,47.222,N
1466,-0.175,1.005,-0.300,188.889,47.222,372.222,802.778,13.889,N
1467,-0.195,1.065,-0.260,141.667,47.222,366.667,802.778,0.000,N
1468,-0.150,1.105,-0.220,141.667,47.222,372.222,827.778,25.000,N
1469,-0.155,1.080,-0.250,144.444,47.222,366.667,811.111,16.667,N
1470,-0.220,0.915,-0.305,138.889,41.667,372.222,769.444,41.667,N
1471,-0.185,1.080,-0.245,127.778,41.667,347.222,777.778,8.333,N
1472,-0.145,1.090,-0.215,130.556,41.667,344.444,780.556,2.778,N
1473,-0.165,1.020,-0.255,183.333,50.000,363.889,805.556,25.000,N
1474,-0.205,0.945,-0.290,150.000,47.222,369.444,833.333,27.778,N
1475,-0.145,1.115,-0.150,150.000,44.444,375.000,836.111,2.778,N
1476,-0.065,1.155,-0.180,147.222,55.556,375.000,811.111,25.000,N
1477,-0.120,1.110,-0.205,158.333,44.444,361.111,633.333,177.778,A
1478,-0.200,0.930,-0.260,169.444,50.000,372.222,905.556,272.222,N
1479,-0.200,1.010,-0.250,169.444,47.222,372.222,786.111,119.444,N
1480,-0.135,1.110,-0.275,166.667,41.667,341.667,597.222,188.889,A
1481,-0.205,1.000,-0.260,125.000,41.667,363.889,961.111,363.889,N
1482,-0.235,0.885,-0.315,191.667,47.222,375.000,827.778,133.333,N
1483,-0.250,0.885,-0.285,183.333,50.000,375.000,847.222,19.444,N
1484,-0.180,1.105,-0.225,138.889,41.667,363.889,825.000,22.222,N
1485,-0.170,0.930,-0.245,130.556,38.889,366.667,763.889,61.111,N
1486,-0.200,0.905,-0.305,177.778,41.667,361.111,769.444,5.556,N
1487,-0.265,0.895,-0.280,133.333,44.444,361.111,769.444,0.000,N
1488,-0.165,1.240,-0.235,144.444,50.000,375.000,819.444,50.000,N
1489,-0.115,1.055,-0.240,138.889,55.556,375.000,841.667,22.222,N
1490,-0.175,0.865,-0.295,180.556,41.667,355.556,825.000,16.667,N
1491,-0.245,0.910,-0.305,158.333,47.222,369.444,805.556,19.444,N
1492,-0.195,1.065,-0.275,138.889,44.444,366.667,838.889,33.333,N
1493,-0.220,0.945,-0.315,138.889,41.667,352.778,780.556,58.333,N
1494,-0.265,0.820,-0.365,125.000,41.667,358.333,769.444,11.111,N
1495,-0.295,0.860,-0.325,172.222,44.444,372.222,797.222,27.778,N
1496,-0.195,1.085,-0.250,147.222,44.444,372.222,827.778,30.556,N
1497,-0.175,1.005,-0.255,144.444,44.444,361.111,844.444,16.667,N
1498,-0.155,0.950,-0.260,138.889,41.667,372.222,838.889,5.556,N
1499,-0.215,0.935,-0.245,125.000,41.667,366.667,788.889,50.000,N
1500,-0.150,1.125,-0.205,166.667,44.444,361.111,791.667,2.778,N
1501,-0.120,1.100,-0.190,138.889,41.667,344.444,816.667,25.000,N
1502,-0.090,1.080,-0.195,138.889,52.778,361.111,788.889,27.778,N
1503,-0.165,0.915,-0.260,169.444,44.444,372.222,783.333,5.556,N
1504,-0.170,1.055,-0.220,194.444,44.444,363.889,858.333,75.000,N
1505,-0.155,1.000,-0.220,141.667,44.444,372.222,827.778,30.556,N
1506,-0.125,0.995,-0.210,138.889,44.444,372.222,847.222,19.444,N
1507,-0.190,0.900,-0.245,158.333,44.444,363.889,788.889,58.333,N
1508,-0.170,1.100,-0.225,133.333,50.000,341.667,777.778,11.111,N
1509,-0.145,1.045,-0.220,130.556,44.444,358.333,780.556,2.778,N
1510,-0.120,0.990,-0.210,133.333,44.444,355.556,833.333,52.778,N
1511,-0.145,0.965,-0.210,186.111,44.444,369.444,819.444,13.889,N
1512,-0.120,1.300,-0.165,177.778,50.000,375.000,830.556,11.111,N
1513,-0.090,1.155,-0.155,136.111,44.444,358.333,833.333,2.778,N
1514,-0.095,1.050,-0.150,141.667,41.667,372.222,805.556,27.778,N
1515,-0.110,0.985,-0.215,141.667,47.222,372.222,786.111,19.444,N
1516,-0.175,0.985,-0.235,169.444,38.889,366.667,783.333,2.778,N
1517,-0.170,1.130,-0.110,133.333,41.667,347.222,788.889,5.556,N
1518,-0.145,0.995,-0.300,197.222,44.444,358.333,536.111,252.778,A
1519,-0.225,0.930,-0.285,144.444,50.000,372.222,1027.778,491.667,N
1520,-0.225,0.995,-0.260,180.556,41.667,361.111,838.889,188.889,N
1521,-0.155,1.080,-0.265,141.667,44.444,369.444,825.000,13.889,N
1522,-0.185,1.225,-0.220,133.333,52.778,355.556,794.444,30.556,N
1523,-0.155,0.950,-0.230,138.889,44.444,363.889,761.111,33.333,N
1524,-0.145,1.055,-0.235,141.667,44.444,363.889,800.000,38.889,N
1525,-0.160,1.080,-0.090,141.667,41.667,363.889,813.889,13.889,N
1526,-0.065,1.015,-0.295,197.222,52.778,366.667,550.000,263.889,A
1527,-0.255,0.865,-0.330,183.333,63.889,386.111,1008.333,458.333,N
1528,-0.245,0.950,-0.270,136.111,44.444,372.222,852.778,155.556,N
1529,-0.165,1.170,-0.240,136.111,41.667,358.333,830.556,22.222,N
1530,-0.185,1.020,-0.240,136.111,41.667,341.667,783.333,47.222,N
1531,-0.185,0.945,-0.265,136.111,41.667,363.889,783.333,0.000,N
1532,-0.210,1.225,-0.270,147.222,55.556,377.778,786.111,2.778,N
1533,-0.170,1.095,-0.260,141.667,47.222,366.667,841.667,55.556,N
1534,-0.185,1.170,-0.230,183.333,55.556,363.889,838.889,2.778,N
1535,-0.180,0.965,-0.240,183.333,44.444,355.556,819.444,19.444,N
1536,-0.180,1.030,-0.245,177.778,41.667,372.222,813.889,5.556,N
1537,-0.155,1.150,-0.230,138.889,41.667,338.889,822.222,8.333,N
1538,-0.170,1.110,-0.250,138.889,47.222,363.889,794.444,27.778,N
1539,-0.220,0.840,-0.325,177.778,44.444,358.333,783.333,11.111,N
1540,-0.240,1.085,-0.315,136.111,55.556,372.222,805.556,22.222,N
1541,-0.215,1.100,-0.285,147.222,44.444,363.889,861.111,55.556,N
1542,-0.170,1.080,-0.265,147.222,44.444,361.111,866.667,5.556,N
1543,-0.195,0.845,-0.305,169.444,44.444,372.222,822.222,44.444,N
1544,-0.245,0.920,-0.305,136.111,44.444,372.222,800.000,22.222,N
1545,-0.200,1.115,-0.260,136.111,41.667,366.667,822.222,22.222,N
1546,-0.175,1.050,-0.260,175.000,41.667,350.000,819.444,2.778,N
1547,-0.175,0.920,-0.280,138.889,41.667,361.111,825.000,5.556,N
1548,-0.180,0.910,-0.280,166.667,44.444,372.222,602.778,222.222,A
1549,-0.200,1.065,-0.250,163.889,44.444,369.444,1025.000,422.222,N
1550,-0.175,0.990,-0.280,180.556,44.444,363.889,866.667,158.333,N
1551,-0.190,0.895,-0.275,166.667,44.444,341.667,838.889,27.778,N
1552,-0.210,0.935,-0.305,166.667,38.889,355.556,783.333,55.556,N
1553,-0.200,1.035,-0.290,133.333,44.444,361.111,797.222,13.889,N
1554,-0.210,0.980,-0.255,141.667,44.444,363.889,827.778,30.556,N
1555,-0.155,1.030,-0.260,152.778,44.444,375.000,644.444,183.333,A
1556,-0.175,0.930,-0.235,175.000,50.000,375.000,986.111,341.667,N
1557,-0.180,1.015,-0.255,138.889,50.000,372.222,838.889,147.222,N
1558,-0.170,1.110,-0.250,138.889,41.667,355.556,822.222,16.667,N
1559,-0.160,1.030,-0.225,136.111,41.667,369.444,805.556,16.667,N
1560,-0.165,0.910,-0.235,161.111,41.667,363.889,772.222,33.333,N
1561,-0.180,1.195,-0.245,172.222,55.556,372.222,780.556,8.333,N
1562,-0.180,1.140,-0.270,188.889,44.444,355.556,813.889,33.333,N
1563,-0.185,1.145,-0.260,147.222,55.556,380.556,844.444,30.556,N
1564,-0.185,1.035,-0.300,144.444,61.111,366.667,827.778,16.667,N
1565,-0.220,0.950,-0.290,144.444,55.556,377.778,813.889,13.889,N
1566,-0.205,1.150,-0.265,180.556,41.667,361.111,791.667,22.222,N
1567,-0.190,1.090,-0.235,172.222,41.667,372.222,788.889,2.778,N
1568,-0.175,0.945,-0.235,175.000,44.444,366.667,788.889,0.000,N
1569,-0.155,1.100,-0.250,133.333,50.000,366.667,794.444,5.556,N
1570,-0.125,1.385,-0.235,133.333,52.778,366.667,841.667,47.222,N
1571,-0.130,1.095,-0.180,150.000,44.444,369.444,844.444,2.778,N
1572,-0.130,1.030,-0.180,191.667,50.000,372.222,852.778,8.333,N
1573,-0.130,1.085,-0.230,177.778,41.667,363.889,805.556,47.222,N
1574,-0.150,1.170,-0.215,133.333,38.889,344.444,797.222,8.333,N
1575,-0.160,1.110,-0.235,136.111,41.667,363.889,783.333,13.889,N
1576,-0.140,1.090,-0.220,138.889,50.000,369.444,800.000,16.667,N
1577,-0.145,1.060,-0.260,183.333,47.222,375.000,827.778,27.778,N
1578,-0.110,1.225,-0.190,141.667,44.444,366.667,855.556,27.778,N
1579,-0.085,1.160,-0.145,138.889,44.444,355.556,844.444,11.111,N
1580,-0.060,1.125,-0.180,125.000,41.667,366.667,822.222,22.222,N
1581,-0.120,1.075,-0.180,161.111,41.667,363.889,802.778,19.444,N
1582,-0.095,1.265,-0.095,138.889,41.667,369.444,800.000,2.778,N
1583,-0.010,1.275,-0.135,138.889,44.444,338.889,780.556,19.444,N
1584,-0.085,1.290,-0.195,180.556,55.556,363.889,808.333,27.778,N
1585,-0.150,1.035,-0.260,186.111,52.778,375.000,819.444,11.111,N
1586,-0.175,1.130,-0.210,188.889,47.222,372.222,852.778,33.333,N
1587,-0.085,1.230,-0.175,144.444,47.222,352.778,838.889,13.889,N
1588,-0.100,1.205,-0.180,133.333,38.889,341.667,805.556,33.333,N
1589,-0.080,1.045,-0.255,158.333,44.444,366.667,575.000,230.556,A
1590,-0.170,1.155,-0.230,169.444,41.667,372.222,961.111,386.111,N
1591,-0.115,1.140,-0.230,127.778,41.667,352.778,822.222,138.889,N
1592,-0.125,1.100,-0.220,141.667,44.444,366.667,819.444,2.778,N
1593,-0.170,1.030,-0.250,186.111,47.222,369.444,833.333,13.889,N
1594,-0.165,1.295,-0.225,144.444,58.333,366.667,836.111,2.778,N
1595,-0.070,1.235,-0.145,141.667,47.222,366.667,827.778,8.333,N
1596,-0.060,1.135,-0.145,138.889,41.667,358.333,788.889,38.889,N
1597,-0.115,1.025,-0.240,155.556,50.000,366.667,761.111,27.778,N
1598,-0.210,1.150,-0.300,138.889,44.444,372.222,800.000,38.889,N
1599,-0.215,1.050,-0.265,144.444,52.778,380.556,836.111,36.111,N
1600,-0.155,1.080,-0.275,133.333,44.444,355.556,841.667,5.556,N
1601,-0.200,1.000,-0.270,163.889,47.222,369.444,641.667,200.000,A
1602,-0.155,1.260,-0.170,141.667,41.667,350.000,988.889,347.222,N
1603,-0.120,1.200,-0.200,136.111,41.667,366.667,811.111,177.778,N
1604,-0.105,1.130,-0.200,138.889,41.667,336.111,797.222,13.889,N
1605,-0.150,1.000,-0.225,172.222,44.444,366.667,769.444,27.778,N
1606,-0.145,1.180,-0.195,127.778,47.222,363.889,788.889,19.444,N
1607,-0.125,1.215,-0.195,147.222,50.000,377.778,838.889,50.000,N
1608,-0.090,1.125,-0.185,138.889,41.667,363.889,858.333,19.444,N
1609,-0.135,1.125,-0.240,130.556,55.556,363.889,822.222,36.111,N
1610,-0.180,1.040,-0.215,175.000,47.222,369.444,797.222,25.000,N
1611,-0.130,1.135,-0.240,133.333,44.444,361.111,805.556,8.333,N
1612,-0.155,1.040,-0.225,177.778,41.667,366.667,791.667,13.889,N
1613,-0.135,0.975,-0.260,138.889,41.667,363.889,800.000,8.333,N
1614,-0.225,0.970,-0.265,186.111,44.444,366.667,813.889,13.889,N
1615,-0.140,1.160,-0.220,141.667,55.556,377.778,833.333,19.444,N
1616,-0.140,1.065,-0.250,152.778,50.000,372.222,852.778,19.444,N
1617,-0.155,0.970,-0.250,138.889,41.667,355.556,827.778,25.000,N
1618,-0.190,1.080,-0.250,130.556,50.000,366.667,772.222,55.556,N
1619,-0.160,1.155,-0.255,136.111,44.444,363.889,788.889,16.667,N
1620,-0.140,1.130,-0.255,169.444,50.000,361.111,788.889,0.000,N
1621,-0.230,0.910,-0.260,161.111,41.667,372.222,788.889,0.000,N
1622,-0.190,1.005,-0.235,191.667,44.444,369.444,866.667,77.778,N
1623,-0.125,1.325,-0.170,136.111,55.556,375.000,841.667,25.000,N
1624,-0.095,1.175,-0.150,183.333,44.444,375.000,822.222,19.444,N
1625,-0.080,1.085,-0.210,180.556,44.444,363.889,825.000,2.778,N
1626,-0.180,0.875,-0.235,161.111,41.667,361.111,780.556,44.444,N
1627,-0.150,1.110,-0.175,175.000,41.667,366.667,783.333,2.778,N
1628,-0.090,1.160,-0.215,130.556,44.444,366.667,788.889,5.556,N
1629,-0.140,1.055,-0.230,166.667,41.667,361.111,833.333,44.444,N
1630,-0.175,0.920,-0.285,183.333,44.444,366.667,841.667,8.333,N
1631,-0.195,0.930,-0.250,180.556,41.667,358.333,841.667,0.000,N
1632,-0.165,1.120,-0.265,127.778,41.667,366.667,827.778,13.889,N
1633,-0.190,1.025,-0.265,136.111,41.667,366.667,780.556,47.222,N
1634,-0.210,0.905,-0.340,172.222,55.556,358.333,802.778,22.222,N
1635,-0.280,0.880,-0.285,172.222,47.222,375.000,794.444,8.333,N
1636,-0.175,1.100,-0.225,141.667,44.444,372.222,819.444,25.000,N
1637,-0.135,1.100,-0.220,147.222,41.667,361.111,841.667,22.222,N
1638,-0.145,0.905,-0.270,188.889,52.778,377.778,841.667,0.000,N
1639,-0.245,0.970,-0.305,169.444,41.667,361.111,827.778,13.889,N
1640,-0.165,1.115,-0.235,125.000,47.222,352.778,825.000,2.778,N
1641,-0.160,1.080,-0.245,127.778,44.444,369.444,783.333,41.667,N
1642,-0.190,0.865,-0.290,172.222,44.444,366.667,800.000,16.667,N
1643,-0.235,1.040,-0.285,191.667,52.778,375.000,833.333,33.333,N
1644,-0.180,1.120,-0.240,147.222,44.444,369.444,852.778,19.444,N
1645,-0.145,1.125,-0.210,150.000,44.444,363.889,838.889,13.889,N
1646,-0.115,1.040,-0.225,147.222,44.444,366.667,847.222,8.333,N
1647,-0.170,0.980,-0.270,180.556,41.667,361.111,786.111,61.111,N
1648,-0.170,1.140,-0.230,141.667,44.444,369.444,811.111,25.000,N
1649,-0.135,1.130,-0.210,136.111,41.667,358.333,791.667,19.444,N
1650,-0.120,1.020,-0.205,136.111,41.667,366.667,791.667,0.000,N
1651,-0.150,1.045,-0.250,180.556,50.000,375.000,827.778,36.111,N
1652,-0.105,1.180,-0.175,136.111,47.222,369.444,872.222,44.444,N
1653,-0.105,1.170,-0.200,133.333,47.222,358.333,825.000,47.222,N
1654,-0.135,0.995,-0.255,183.333,47.222,363.889,816.667,8.333,N
1655,-0.230,0.960,-0.300,130.556,41.667,341.667,783.333,33.333,N
1656,-0.220,1.060,-0.330,138.889,47.222,361.111,800.000,16.667,N
1657,-0.250,0.960,-0.335,144.444,44.444,369.444,805.556,5.556,N
1658,-0.275,0.950,-0.400,175.000,55.556,369.444,805.556,0.000,N
1659,-0.310,0.915,-0.325,141.667,44.444,372.222,819.444,13.889,N
1660,-0.210,1.075,-0.305,138.889,52.778,375.000,861.111,41.667,N
1661,-0.225,1.040,-0.300,138.889,41.667,358.333,844.444,16.667,N
1662,-0.255,0.865,-0.370,163.889,38.889,347.222,791.667,52.778,N
1663,-0.305,0.940,-0.320,169.444,41.667,369.444,780.556,11.111,N
1664,-0.215,1.130,-0.315,133.333,44.444,369.444,800.000,19.444,N
1665,-0.240,1.015,-0.310,144.444,44.444,369.444,819.444,19.444,N
1666,-0.210,0.885,-0.335,141.667,44.444,347.222,852.778,33.333,N
1667,-0.245,0.890,-0.340,138.889,55.556,380.556,825.000,27.778,N
1668,-0.225,1.115,-0.300,133.333,44.444,372.222,816.667,8.333,N
1669,-0.195,1.045,-0.265,138.889,41.667,366.667,825.000,8.333,N
1670,-0.180,0.925,-0.295,136.111,41.667,358.333,791.667,33.333,N
1671,-0.255,0.950,-0.310,166.667,41.667,369.444,769.444,22.222,N
1672,-0.220,1.135,-0.260,138.889,44.444,375.000,786.111,16.667,N
1673,-0.175,1.130,-0.260,130.556,44.444,375.000,811.111,25.000,N
1674,-0.160,1.040,-0.295,138.889,44.444,369.444,836.111,25.000,N
1675,-0.230,0.970,-0.355,141.667,44.444,361.111,827.778,8.333,N
1676,-0.230,1.055,-0.265,130.556,44.444,366.667,797.222,30.556,N
1677,-0.195,1.170,-0.250,133.333,41.667,361.111,766.667,30.556,N
1678,-0.150,1.070,-0.245,136.111,44.444,372.222,791.667,25.000,N
1679,-0.185,0.980,-0.290,172.222,41.667,366.667,772.222,19.444,N
1680,-0.215,1.020,-0.235,147.222,52.778,361.111,786.111,13.889,N
1681,-0.110,1.335,-0.195,133.333,52.778,366.667,836.111,50.000,N
1682,-0.105,1.190,-0.195,138.889,41.667,358.333,833.333,2.778,N
1683,-0.110,0.955,-0.335,127.778,44.444,363.889,827.778,5.556,N
1684,-0.245,0.995,-0.260,180.556,41.667,355.556,794.444,33.333,N
1685,-0.125,1.090,-0.180,122.222,41.667,355.556,766.667,27.778,N
1686,-0.110,0.980,-0.175,138.889,41.667,372.222,750.000,16.667,N
1687,-0.150,0.905,-0.325,177.778,44.444,366.667,775.000,25.000,N
1688,-0.265,1.095,-0.345,177.778,52.778,363.889,788.889,13.889,N
1689,-0.225,1.110,-0.295,130.556,47.222,369.444,822.222,33.333,N
1690,-0.215,1.030,-0.250,175.000,50.000,372.222,805.556,16.667,N
1691,-0.170,0.975,-0.295,175.000,41.667,350.000,797.222,8.333,N
1692,-0.230,1.085,-0.220,136.111,41.667,358.333,775.000,22.222,N
1693,-0.100,1.240,-0.195,130.556,41.667,358.333,797.222,22.222,N
1694,-0.130,1.330,-0.205,169.444,52.778,355.556,775.000,22.222,N
1695,-0.135,1.000,-0.255,138.889,41.667,366.667,802.778,27.778,N
1696,-0.180,1.060,-0.220,186.111,55.556,375.000,827.778,25.000,N
1697,-0.115,1.195,-0.200,144.444,44.444,372.222,872.222,44.444,N
1698,-0.125,1.075,-0.250,136.111,41.667,355.556,841.667,30.556,N
1699,-0.215,0.940,-0.305,130.556,38.889,358.333,800.000,41.667,N
1700,-0.240,0.995,-0.260,169.444,38.889,363.889,791.667,8.333,N
1701,-0.195,1.055,-0.295,130.556,50.000,358.333,816.667,25.000,N
1702,-0.230,0.990,-0.320,136.111,44.444,369.444,822.222,5.556,N
1703,-0.265,0.850,-0.390,141.667,55.556,377.778,830.556,8.333,N
1704,-0.250,0.965,-0.290,144.444,44.444,363.889,838.889,8.333,N
1705,-0.170,1.040,-0.260,152.778,55.556,380.556,875.000,36.111,N
1706,-0.175,1.015,-0.265,138.889,41.667,361.111,822.222,52.778,N
1707,-0.220,0.880,-0.335,161.111,38.889,369.444,786.111,36.111,N
1708,-0.265,0.955,-0.250,166.667,41.667,358.333,786.111,0.000,N
1709,-0.175,1.140,-0.260,127.778,47.222,369.444,808.333,22.222,N
1710,-0.190,1.015,-0.300,141.667,50.000,363.889,838.889,30.556,N
1711,-0.225,0.895,-0.355,188.889,50.000,377.778,841.667,2.778,N
1712,-0.240,1.070,-0.270,138.889,50.000,369.444,838.889,2.778,N
1713,-0.170,1.155,-0.230,133.333,47.222,372.222,830.556,8.333,N
1714,-0.145,1.040,-0.255,136.111,41.667,352.778,813.889,16.667,N
1715,-0.225,0.865,-0.330,175.000,41.667,366.667,786.111,27.778,N
1716,-0.305,0.920,-0.280,136.111,41.667,372.222,777.778,8.333,N
1717,-0.190,1.095,-0.255,144.444,44.444,372.222,819.444,41.667,N
1718,-0.190,1.075,-0.270,141.667,47.222,375.000,833.333,13.889,N
1719,-0.215,0.880,-0.340,183.333,44.444,372.222,847.222,13.889,N
1720,-0.270,0.965,-0.275,172.222,44.444,369.444,822.222,25.000,N
1721,-0.165,1.200,-0.235,125.000,41.667,366.667,816.667,5.556,N
1722,-0.170,0.995,-0.260,175.000,38.889,366.667,786.111,30.556,N
1723,-0.185,0.915,-0.370,133.333,41.667,344.444,808.333,22.222,N
1724,-0.325,0.835,-0.325,188.889,44.444,366.667,791.667,16.667,N
1725,-0.195,1.115,-0.255,186.111,47.222,358.333,811.111,19.444,N
1726,-0.150,1.005,-0.225,144.444,55.556,372.222,827.778,16.667,N
1727,-0.160,0.925,-0.315,150.000,44.444,372.222,822.222,5.556,N
1728,-0.280,0.870,-0.345,175.000,50.000,375.000,791.667,30.556,N
1729,-0.195,1.155,-0.260,169.444,41.667,355.556,775.000,16.667,N
1730,-0.180,1.075,-0.255,166.667,38.889,358.333,763.889,11.111,N
1731,-0.185,1.050,-0.265,127.778,41.667,372.222,769.444,5.556,N
1732,-0.225,0.865,-0.335,141.667,52.778,369.444,827.778,58.333,N
1733,-0.225,0.870,-0.355,197.222,47.222,358.333,591.667,236.111,A
1734,-0.210,1.150,-0.295,144.444,44.444,366.667,1005.556,413.889,N
1735,-0.225,1.055,-0.280,186.111,44.444,363.889,838.889,166.667,N
1736,-0.205,0.930,-0.330,136.111,41.667,358.333,800.000,38.889,N
1737,-0.255,0.955,-0.300,175.000,44.444,363.889,780.556,19.444,N
1738,-0.175,1.165,-0.245,130.556,41.667,372.222,791.667,11.111,N
1739,-0.155,1.105,-0.265,144.444,50.000,363.889,797.222,5.556,N
1740,-0.190,1.015,-0.335,152.778,47.222,358.333,819.444,22.222,N
1741,-0.270,0.870,-0.345,172.222,44.444,369.444,838.889,19.444,N
1742,-0.170,1.115,-0.205,147.222,50.000,366.667,841.667,2.778,N
1743,-0.105,1.145,-0.200,133.333,47.222,355.556,788.889,52.778,N
1744,-0.125,1.125,-0.215,141.667,41.667,344.444,794.444,5.556,N
1745,-0.190,1.005,-0.330,172.222,55.556,369.444,780.556,13.889,N
1746,-0.265,0.975,-0.310,177.778,44.444,372.222,780.556,0.000,N
1747,-0.200,1.220,-0.320,136.111,55.556,363.889,827.778,47.222,N
1748,-0.235,1.075,-0.325,177.778,41.667,363.889,827.778,0.000,N
1749,-0.265,0.885,-0.390,155.556,52.778,377.778,841.667,13.889,N
1750,-0.335,0.830,-0.375,177.778,44.444,363.889,825.000,16.667,N
1751,-0.265,1.100,-0.315,138.889,50.000,355.556,816.667,8.333,N
1752,-0.235,1.060,-0.275,138.889,47.222,366.667,769.444,47.222,N
1753,-0.190,0.975,-0.365,141.667,44.444,355.556,791.667,22.222,N
1754,-0.335,0.815,-0.395,188.889,47.222,372.222,797.222,5.556,N
1755,-0.240,1.090,-0.290,191.667,47.222,366.667,841.667,44.444,N
1756,-0.180,1.060,-0.265,138.889,44.444,369.444,847.222,5.556,N
1757,-0.170,1.050,-0.275,136.111,41.667,369.444,827.778,19.444,N
1758,-0.245,0.940,-0.340,133.333,52.778,375.000,794.444,33.333,N
1759,-0.175,0.990,-0.240,138.889,58.333,358.333,811.111,16.667,N
1760,-0.155,1.115,-0.235,138.889,38.889,333.333,783.333,27.778,N
1761,-0.160,1.145,-0.270,172.222,47.222,372.222,783.333,0.000,N
1762,-0.205,0.950,-0.305,183.333,44.444,372.222,808.333,25.000,N
1763,-0.175,1.075,-0.210,147.222,44.444,372.222,836.111,27.778,N
1764,-0.115,1.225,-0.170,188.889,47.222,372.222,838.889,2.778,N
1765,-0.090,1.165,-0.195,177.778,41.667,347.222,819.444,19.444,N
1766,-0.145,1.020,-0.320,166.667,44.444,358.333,758.333,61.111,N
1767,-0.215,1.075,-0.235,180.556,41.667,361.111,780.556,22.222,N
1768,-0.165,1.170,-0.240,169.444,41.667,352.778,805.556,25.000,N
1769,-0.175,1.095,-0.265,169.444,44.444,355.556,797.222,8.333,N
1770,-0.215,0.860,-0.355,175.000,44.444,363.889,822.222,25.000,N
1771,-0.305,0.930,-0.300,197.222,41.667,358.333,841.667,19.444,N
1772,-0.180,1.170,-0.245,138.889,52.778,358.333,844.444,2.778,N
1773,-0.170,1.100,-0.245,133.333,38.889,358.333,822.222,22.222,N
1774,-0.190,0.955,-0.335,130.556,44.444,361.111,802.778,19.444,N
1775,-0.300,0.885,-0.300,161.111,38.889,363.889,763.889,38.889,N
1776,-0.175,1.185,-0.225,175.000,44.444,363.889,833.333,69.444,N
1777,-0.125,1.195,-0.190,136.111,47.222,366.667,844.444,11.111,N
1778,-0.115,0.980,-0.270,172.222,41.667,363.889,833.333,11.111,N
1779,-0.240,0.935,-0.330,175.000,47.222,372.222,825.000,8.333,N
1780,-0.175,1.115,-0.250,133.333,44.444,347.222,833.333,8.333,N
1781,-0.160,1.095,-0.220,169.444,47.222,341.667,788.889,44.444,N
1782,-0.145,1.035,-0.255,133.333,41.667,366.667,802.778,13.889,N
1783,-0.225,0.930,-0.330,127.778,38.889,358.333,772.222,30.556,N
1784,-0.190,1.105,-0.260,141.667,41.667,361.111,802.778,30.556,N
1785,-0.160,1.080,-0.235,144.444,47.222,372.222,861.111,58.333,N
1786,-0.110,1.060,-0.245,144.444,44.444,347.222,852.778,8.333,N
1787,-0.210,0.845,-0.290,138.889,55.556,383.333,805.556,47.222,N
1788,-0.205,1.040,-0.185,138.889,41.667,369.444,788.889,16.667,N
1789,-0.105,1.170,-0.175,161.111,47.222,369.444,788.889,0.000,N
1790,-0.110,1.150,-0.220,141.667,41.667,363.889,802.778,13.889,N
1791,-0.225,0.910,-0.415,133.333,52.778,377.778,819.444,16.667,N
1792,-0.365,0.840,-0.395,169.444,44.444,355.556,819.444,0.000,N
1793,-0.235,1.190,-0.295,144.444,52.778,363.889,844.444,25.000,N
1794,-0.180,1.120,-0.220,141.667,44.444,355.556,861.111,16.667,N
1795,-0.145,1.070,-0.260,166.667,41.667,341.667,808.333,52.778,N
1796,-0.225,0.990,-0.325,163.889,55.556,366.667,763.889,44.444,N
1797,-0.170,1.235,-0.220,130.556,50.000,363.889,783.333,19.444,N
1798,-0.115,1.175,-0.220,138.889,47.222,372.222,794.444,11.111,N
1799,-0.125,1.105,-0.265,150.000,44.444,372.222,841.667,47.222,N
1800,-0.185,0.920,-0.320,141.667,44.444,372.222,850.000,8.333,N
1801,-0.275,1.120,-0.285,169.444,52.778,372.222,822.222,27.778,N
1802,-0.145,1.210,-0.200,180.556,41.667,366.667,841.667,19.444,N
1803,-0.100,1.220,-0.170,136.111,41.667,355.556,822.222,19.444,N
1804,-0.115,1.050,-0.270,183.333,38.889,336.111,797.222,25.000,N
1805,-0.225,0.920,-0.305,177.778,44.444,369.444,775.000,22.222,N
1806,-0.190,1.230,-0.200,188.889,58.333,375.000,819.444,44.444,N
1807,-0.130,1.155,-0.200,147.222,44.444,369.444,830.556,11.111,N
1808,-0.110,1.160,-0.190,191.667,47.222,366.667,855.556,25.000,N
1809,-0.135,1.010,-0.260,136.111,52.778,372.222,816.667,38.889,N
1810,-0.210,0.970,-0.225,155.556,41.667,366.667,775.000,41.667,N
1811,-0.065,1.285,-0.140,133.333,41.667,372.222,797.222,22.222,N
1812,-0.040,1.205,-0.145,133.333,41.667,355.556,800.000,2.778,N
1813,-0.095,1.030,-0.255,144.444,44.444,366.667,741.667,58.333,N
1814,-0.250,1.035,-0.295,161.111,50.000,366.667,872.222,130.556,N
1815,-0.140,1.140,-0.195,127.778,47.222,363.889,847.222,25.000,N
1816,-0.085,1.145,-0.200,166.667,44.444,372.222,594.444,252.778,A
1817,-0.110,1.115,-0.210,172.222,44.444,369.444,1000.000,405.556,N
1818,-0.220,0.860,-0.305,130.556,41.667,363.889,791.667,208.333,N
1819,-0.155,1.135,-0.200,138.889,41.667,350.000,794.444,2.778,N
1820,-0.110,1.200,-0.215,141.667,41.667,361.111,822.222,27.778,N
1821,-0.155,1.020,-0.285,136.111,44.444,372.222,838.889,16.667,N
1822,-0.240,1.085,-0.350,175.000,61.111,369.444,844.444,5.556,N
1823,-0.260,0.985,-0.215,163.889,47.222,375.000,836.111,8.333,N
1824,-0.090,1.165,-0.180,133.333,38.889,355.556,833.333,2.778,N
1825,-0.120,1.080,-0.220,172.222,47.222,352.778,811.111,22.222,N
1826,-0.210,0.970,-0.335,183.333,50.000,355.556,808.333,2.778,N
1827,-0.290,0.890,-0.265,163.889,41.667,358.333,777.778,30.556,N
1828,-0.155,1.180,-0.190,138.889,47.222,372.222,827.778,50.000,N
1829,-0.115,1.100,-0.245,144.444,52.778,369.444,869.444,41.667,N
1830,-0.160,0.985,-0.295,144.444,47.222,361.111,855.556,13.889,N
1831,-0.215,0.900,-0.335,130.556,47.222,372.222,816.667,38.889,N
1832,-0.190,1.060,-0.220,125.000,47.222,361.111,800.000,16.667,N
1833,-0.145,1.215,-0.225,122.222,44.444,358.333,788.889,11.111,N
1834,-0.150,0.965,-0.235,136.111,41.667,361.111,808.333,19.444,N
1835,-0.210,0.830,-0.340,136.111,50.000,377.778,808.333,0.000,N
1836,-0.230,1.030,-0.220,141.667,44.444,372.222,819.444,11.111,N
1837,-0.140,1.065,-0.225,147.222,44.444,366.667,838.889,19.444,N
1838,-0.155,1.060,-0.270,144.444,44.444,366.667,850.000,11.111,N
1839,-0.240,0.855,-0.350,180.556,44.444,361.111,802.778,47.222,N
1840,-0.285,0.905,-0.255,172.222,44.444,366.667,777.778,25.000,N
1841,-0.175,1.140,-0.255,133.333,41.667,361.111,788.889,11.111,N
1842,-0.180,1.030,-0.260,177.778,41.667,366.667,797.222,8.333,N
1843,-0.225,0.860,-0.380,183.333,44.444,372.222,838.889,41.667,N
1844,-0.320,0.890,-0.335,172.222,47.222,372.222,838.889,0.000,N
1845,-0.165,1.235,-0.205,130.556,50.000,372.222,850.000,11.111,N
1846,-0.110,1.140,-0.190,136.111,41.667,358.333,827.778,22.222,N
1847,-0.140,0.955,-0.310,183.333,41.667,344.444,816.667,11.111,N
1848,-0.285,0.870,-0.315,158.333,44.444,366.667,777.778,38.889,N
1849,-0.215,1.080,-0.260,138.889,50.000,361.111,808.333,30.556,N
1850,-0.180,0.990,-0.240,186.111,47.222,358.333,819.444,11.111,N
1851,-0.155,0.985,-0.315,186.111,50.000,375.000,836.111,16.667,N
1852,-0.235,0.925,-0.330,183.333,44.444,372.222,861.111,25.000,N
1853,-0.200,1.040,-0.240,136.111,41.667,358.333,830.556,30.556,N
1854,-0.145,1.140,-0.210,136.111,41.667,352.778,805.556,25.000,N
1855,-0.165,1.005,-0.335,183.333,41.667,350.000,797.222,8.333,N
1856,-0.285,1.040,-0.340,175.000,50.000,375.000,788.889,8.333,N
1857,-0.205,1.045,-0.200,136.111,44.444,372.222,813.889,25.000,N
1858,-0.100,1.195,-0.155,186.111,44.444,358.333,819.444,5.556,N
1859,-0.090,1.085,-0.225,141.667,52.778,369.444,841.667,22.222,N
1860,-0.205,1.125,-0.360,175.000,61.111,366.667,813.889,27.778,N
1861,-0.260,1.005,-0.280,175.000,44.444,361.111,819.444,5.556,N
1862,-0.190,1.110,-0.240,141.667,52.778,361.111,791.667,27.778,N
1863,-0.170,1.295,-0.245,133.333,50.000,341.667,780.556,11.111,N
1864,-0.205,1.005,-0.345,133.333,50.000,361.111,800.000,19.444,N
1865,-0.270,0.990,-0.295,175.000,44.444,361.111,827.778,27.778,N
1866,-0.140,1.270,-0.220,133.333,44.444,369.444,858.333,30.556,N
1867,-0.135,1.200,-0.195,183.333,47.222,358.333,830.556,27.778,N
1868,-0.100,1.090,-0.230,175.000,41.667,347.222,825.000,5.556,N
