id,Pamp,Ramp,Tamp,PR,QRS,QT,RRI,dRRI,label
1,-0.220,-0.945,-0.130,58.333,0.000,225.000,1016.667,52.778,N
2,-0.055,-0.915,-0.045,197.222,2.778,222.222,938.889,77.778,N
3,0.010,-0.955,0.005,194.444,0.000,222.222,911.111,27.778,N
4,-0.100,-1.000,-0.100,191.667,0.000,225.000,933.333,22.222,N
5,-0.215,-0.975,-0.070,197.222,0.000,238.889,1000.000,66.667,N
6,-0.210,-1.020,-0.120,197.222,0.000,258.333,1033.333,33.333,N
7,-0.185,-1.065,-0.150,197.222,2.778,241.667,969.444,63.889,N
8,-0.230,-0.985,-0.130,197.222,0.000,236.111,986.111,16.667,N
9,-0.035,-0.875,-0.010,194.444,5.556,216.667,919.444,66.667,N
10,-0.170,0.130,-0.120,194.444,80.556,272.222,502.778,416.667,V
11,-0.120,-0.455,-0.210,27.778,0.000,291.667,255.556,247.222,x
12,0.075,-0.780,-0.020,188.889,2.778,230.556,1125.000,869.444,N
13,-0.100,-0.835,0.050,197.222,0.000,241.667,1025.000,100.000,N
14,-0.110,-0.890,0.025,197.222,0.000,222.222,1052.778,27.778,N
15,0.010,-0.950,0.005,191.667,0.000,222.222,1013.889,38.889,N
16,0.045,-0.780,-0.015,197.222,2.778,180.556,1111.111,97.222,N
17,-0.015,-0.855,-0.005,197.222,2.778,225.000,1011.111,100.000,N
18,-0.195,-0.865,-0.025,177.778,2.778,238.889,1130.556,119.444,N
19,-0.110,-0.930,-0.055,197.222,2.778,222.222,1113.889,16.667,N
20,0.005,-0.850,-0.020,197.222,0.000,230.556,1111.111,2.778,N
21,0.000,-0.880,-0.040,197.222,2.778,219.444,1025.000,86.111,N
22,-0.155,-0.860,-0.035,197.222,0.000,236.111,1044.444,19.444,N
23,0.035,-0.860,-0.020,197.222,0.000,211.111,1033.333,11.111,N
24,-0.170,-0.850,-0.040,197.222,2.778,238.889,1088.889,55.556,N
25,-0.235,-0.845,-0.015,61.111,2.778,225.000,1083.333,5.556,N
26,-0.055,-0.990,0.080,197.222,2.778,291.667,1047.222,36.111,N
27,0.110,-0.840,-0.005,194.444,0.000,183.333,1005.556,41.667,N
28,-0.165,-0.900,-0.105,197.222,2.778,266.667,1030.556,25.000,N
29,-0.180,1.050,-0.140,197.222,88.889,386.111,500.000,530.556,V
30,-0.520,-0.165,-0.180,58.333,91.667,263.889,344.444,155.556,x
31,-0.045,-0.815,-0.050,197.222,2.778,244.444,1258.333,913.889,N
32,0.080,-0.885,0.015,197.222,2.778,238.889,1016.667,241.667,N
33,-0.015,-0.840,0.040,197.222,2.778,211.111,986.111,30.556,N
34,0.075,-0.870,-0.015,197.222,2.778,255.556,930.556,55.556,N
35,-0.010,-0.910,-0.050,197.222,0.000,219.444,963.889,33.333,N
36,-0.315,-0.995,-0.110,172.222,2.778,227.778,1055.556,91.667,N
37,-0.105,-1.035,-0.180,197.222,0.000,194.444,1133.333,77.778,N
38,-0.095,-0.955,-0.070,197.222,5.556,233.333,1191.667,58.333,N
39,-0.015,-0.910,-0.025,197.222,0.000,208.333,1094.444,97.222,N
40,0.015,-0.930,-0.015,194.444,0.000,230.556,1055.556,38.889,N
41,-0.110,-0.905,-0.025,197.222,2.778,244.444,1041.667,13.889,N
42,-0.270,-0.925,-0.030,61.111,0.000,225.000,1105.556,63.889,N
43,-0.035,-0.890,0.045,197.222,0.000,216.667,1105.556,0.000,N
44,-0.020,-0.925,-0.035,197.222,0.000,208.333,1069.444,36.111,N
45,-0.005,-0.865,0.035,197.222,2.778,241.667,1069.444,0.000,N
46,0.040,-0.855,0.045,197.222,2.778,213.889,1036.111,33.333,N
47,0.030,-0.940,0.060,197.222,0.000,252.778,1036.111,0.000,N
48,-0.180,-0.915,0.085,197.222,0.000,280.556,1105.556,69.444,N
49,-0.135,-0.890,0.045,52.778,0.000,258.333,1097.222,8.333,N
50,0.140,-0.735,-0.110,55.556,0.000,55.556,994.444,102.778,N
51,-0.010,-0.800,-0.150,55.556,2.778,233.333,1000.000,5.556,N
52,-0.115,-0.835,-0.200,61.111,5.556,261.111,1030.556,30.556,N
53,-0.310,-1.155,-0.350,197.222,2.778,222.222,1072.222,41.667,N
54,-0.430,-1.070,-0.115,58.333,0.000,269.444,1086.111,13.889,N
55,0.185,-0.675,0.135,50.000,0.000,241.667,1091.667,5.556,N
56,0.290,-0.550,0.180,191.667,0.000,250.000,988.889,102.778,N
57,0.310,-0.385,0.225,61.111,11.111,241.667,1016.667,27.778,N
58,0.205,-0.665,0.170,197.222,2.778,261.111,1022.222,5.556,N
59,0.100,-0.775,0.075,197.222,2.778,247.222,1050.000,27.778,N
60,-0.035,-0.920,-0.070,197.222,0.000,238.889,1036.111,13.889,N
61,-0.125,-0.905,-0.060,197.222,0.000,241.667,1019.444,16.667,N
62,-0.060,-0.910,-0.065,197.222,0.000,225.000,1097.222,77.778,N
63,0.000,-0.970,-0.075,194.444,0.000,238.889,1169.444,72.222,N
64,-0.180,-0.940,-0.060,197.222,0.000,252.778,1186.111,16.667,N
65,-0.150,-0.815,-0.005,52.778,0.000,233.333,1158.333,27.778,N
66,-0.015,-0.810,0.000,197.222,0.000,227.778,1100.000,58.333,N
67,0.060,-0.820,0.020,197.222,2.778,233.333,1061.111,38.889,N
68,-0.055,-0.835,0.015,197.222,2.778,230.556,1069.444,8.333,N
69,-0.030,-0.885,-0.015,197.222,0.000,225.000,1038.889,30.556,N
70,-0.150,-0.870,-0.095,197.222,0.000,261.111,1097.222,58.333,N
71,-0.150,-0.840,-0.065,55.556,0.000,250.000,1113.889,16.667,N
72,-0.180,-0.935,-0.135,197.222,2.778,222.222,1094.444,19.444,N
73,-0.055,-0.995,-0.105,197.222,0.000,255.556,1011.111,83.333,N
74,0.000,-0.910,-0.120,197.222,0.000,233.333,1058.333,47.222,N
75,-0.070,-0.915,-0.100,194.444,0.000,238.889,1075.000,16.667,N
76,-0.270,-0.885,-0.105,52.778,2.778,236.111,1122.222,47.222,N
77,-0.195,-0.910,-0.110,197.222,2.778,238.889,1063.889,58.333,N
78,0.025,-0.780,0.000,183.333,2.778,219.444,986.111,77.778,N
79,0.035,-0.770,0.030,194.444,2.778,227.778,947.222,38.889,N
80,0.000,-0.785,0.055,197.222,2.778,238.889,983.333,36.111,N
81,-0.120,-0.815,0.015,58.333,0.000,258.333,1097.222,113.889,N
82,0.015,-0.750,0.040,197.222,0.000,255.556,1197.222,100.000,N
83,-0.045,-0.710,0.085,197.222,2.778,241.667,1233.333,36.111,N
84,0.060,-0.775,-0.015,183.333,2.778,230.556,1208.333,25.000,N
85,0.135,-0.750,-0.010,194.444,0.000,241.667,1130.556,77.778,N
86,-0.275,-0.935,-0.060,197.222,0.000,258.333,1211.111,80.556,N
87,-0.060,-0.885,-0.070,197.222,0.000,247.222,1175.000,36.111,N
88,-0.125,-0.830,-0.035,197.222,0.000,241.667,1088.889,86.111,N
89,-0.125,-0.875,-0.030,197.222,0.000,236.111,1044.444,44.444,N
90,-0.055,-0.910,-0.055,194.444,0.000,238.889,1027.778,16.667,N
91,0.010,-0.910,0.005,197.222,0.000,241.667,1016.667,11.111,N
92,-0.170,-0.815,0.000,55.556,0.000,263.889,1091.667,75.000,N
93,-0.105,-0.780,0.005,55.556,2.778,263.889,1100.000,8.333,N
94,-0.020,-0.820,0.010,197.222,0.000,222.222,972.222,127.778,N
95,0.020,-0.815,-0.055,186.111,2.778,216.667,975.000,2.778,N
96,-0.125,-0.820,-0.035,197.222,0.000,269.444,994.444,19.444,N
97,-0.155,-0.850,-0.075,197.222,0.000,255.556,1044.444,50.000,N
98,-0.330,-0.970,-0.065,55.556,8.333,272.222,1244.444,200.000,N
99,0.180,-0.590,0.215,197.222,0.000,252.778,1344.444,100.000,N
100,0.200,-0.705,0.080,197.222,0.000,213.889,1158.333,186.111,N
101,0.155,-0.755,0.055,191.667,0.000,236.111,1088.889,69.444,N
102,-0.105,-0.805,0.000,58.333,2.778,227.778,1113.889,25.000,N
103,-0.045,-0.850,-0.080,197.222,0.000,238.889,1102.778,11.111,N
104,-0.200,-0.835,-0.065,55.556,2.778,252.778,1088.889,13.889,N
105,-0.010,-0.860,-0.100,197.222,2.778,219.444,1083.333,5.556,N
106,-0.130,-0.905,-0.090,197.222,0.000,230.556,1022.222,61.111,N
107,-0.010,-0.860,-0.075,188.889,0.000,216.667,1047.222,25.000,N
108,-0.055,-0.725,0.015,58.333,2.778,252.778,1091.667,44.444,N
109,-0.080,-0.840,-0.065,55.556,0.000,261.111,1091.667,0.000,N
110,-0.270,-0.950,-0.235,58.333,0.000,244.444,1086.111,5.556,N
111,-0.245,-1.020,-0.200,197.222,2.778,225.000,1044.444,41.667,N
112,-0.050,-0.845,-0.150,197.222,2.778,277.778,1030.556,13.889,N
113,-0.040,-0.700,-0.020,58.333,0.000,241.667,1061.111,30.556,N
114,0.110,-0.685,-0.040,61.111,0.000,225.000,1102.778,41.667,N
115,-0.085,-0.705,-0.025,197.222,5.556,258.333,1083.333,19.444,N
116,0.015,-0.745,0.020,197.222,2.778,258.333,1063.889,19.444,N
117,-0.100,-0.685,-0.025,197.222,11.111,247.222,1072.222,8.333,N
118,-0.035,-0.815,-0.095,194.444,2.778,225.000,1027.778,44.444,N
119,-0.085,-0.770,-0.060,61.111,13.889,269.444,1030.556,2.778,N
120,0.175,-0.740,-0.085,69.444,2.778,261.111,1077.778,47.222,N
121,0.190,-0.670,-0.080,63.889,0.000,258.333,1108.333,30.556,N
122,0.120,-0.605,0.195,58.333,11.111,258.333,986.111,122.222,N
123,0.115,-0.595,0.025,38.889,2.778,261.111,961.111,25.000,N
124,0.180,-0.625,-0.160,33.333,0.000,83.333,961.111,0.000,N
125,0.005,-0.720,-0.035,30.556,0.000,280.556,1041.667,80.556,N
126,0.340,-0.600,0.100,47.222,0.000,311.111,1297.222,255.556,N
127,0.295,-0.615,-0.030,38.889,2.778,311.111,1233.333,63.889,N
128,0.175,-0.655,0.010,33.333,0.000,227.778,1030.556,202.778,N
129,-0.025,-0.765,-0.160,63.889,0.000,261.111,1066.667,36.111,N
130,-0.030,-0.775,-0.180,36.111,2.778,280.556,1077.778,11.111,N
131,0.030,-0.715,-0.065,61.111,13.889,269.444,1100.000,22.222,N
132,0.005,-0.790,-0.075,197.222,5.556,330.556,1022.222,77.778,N
133,-0.020,-0.660,-0.025,61.111,13.889,250.000,1025.000,2.778,N
134,0.040,-0.770,-0.005,194.444,5.556,208.333,980.556,44.444,N
135,-0.045,-0.730,0.065,197.222,0.000,219.444,988.889,8.333,N
136,-0.110,-0.795,-0.045,41.667,2.778,244.444,1072.222,83.333,N
137,-0.005,-0.745,-0.070,52.778,5.556,247.222,1075.000,2.778,N
138,0.105,-0.675,0.045,55.556,8.333,280.556,1052.778,22.222,N
139,0.200,-0.530,0.350,58.333,2.778,230.556,1038.889,13.889,N
140,-0.030,0.115,-0.155,180.556,83.333,308.333,977.778,61.111,N
141,-0.020,0.275,0.015,177.778,88.889,325.000,1011.111,33.333,N
142,0.325,-0.360,0.115,47.222,13.889,286.111,1097.222,86.111,N
143,0.260,-0.425,0.095,61.111,13.889,311.111,1116.667,19.444,N
144,0.210,-0.535,-0.065,58.333,13.889,269.444,1047.222,69.444,N
145,0.140,-0.655,-0.115,55.556,13.889,247.222,1033.333,13.889,N
146,0.135,-0.590,-0.095,58.333,2.778,219.444,1030.556,2.778,N
147,0.150,-0.615,-0.075,63.889,2.778,250.000,1086.111,55.556,N
148,0.140,-0.560,-0.030,61.111,2.778,244.444,1088.889,2.778,N
149,0.145,-0.670,-0.195,63.889,2.778,255.556,1119.444,30.556,N
150,0.040,0.180,-0.075,152.778,108.333,391.667,1002.778,116.667,N
151,0.080,0.200,-0.140,169.444,105.556,322.222,1063.889,61.111,N
152,0.025,0.100,-0.115,169.444,80.556,338.889,1022.222,41.667,N
153,0.155,-0.570,-0.120,63.889,11.111,244.444,1122.222,100.000,N
154,0.005,0.120,-0.060,175.000,100.000,369.444,1063.889,58.333,N
155,-0.160,-1.185,-0.610,33.333,2.778,319.444,1172.222,108.333,N
156,-0.275,0.005,-0.405,172.222,97.222,388.889,1000.000,172.222,N
157,-0.030,0.430,-0.040,163.889,91.667,397.222,980.556,19.444,N
158,0.305,0.670,0.095,172.222,86.111,358.333,1022.222,41.667,N
159,0.230,0.525,-0.060,188.889,100.000,372.222,1158.333,136.111,N
160,0.105,0.435,-0.120,180.556,94.444,397.222,1091.667,66.667,N
161,0.085,0.435,-0.140,183.333,91.667,400.000,1113.889,22.222,N
162,0.120,0.460,-0.080,175.000,97.222,386.111,1033.333,80.556,N
163,0.135,0.450,-0.090,177.778,97.222,380.556,1025.000,8.333,N
164,0.090,0.455,-0.120,172.222,88.889,391.667,1044.444,19.444,N
165,0.435,-0.635,-0.135,44.444,0.000,311.111,1138.889,94.444,N
166,0.090,0.445,-0.140,191.667,91.667,394.444,1063.889,75.000,N
167,0.040,0.455,-0.210,180.556,97.222,391.667,1058.333,5.556,N
168,0.040,0.370,-0.120,169.444,88.889,391.667,1041.667,16.667,N
169,0.055,0.475,-0.155,166.667,91.667,391.667,1022.222,19.444,N
170,0.095,0.505,-0.120,191.667,100.000,391.667,1055.556,33.333,N
171,0.055,0.465,-0.200,197.222,91.667,377.778,1105.556,50.000,N
172,0.020,0.520,-0.185,180.556,97.222,405.556,1108.333,2.778,N
173,0.050,0.445,-0.205,169.444,83.333,391.667,1019.444,88.889,N
174,-0.020,0.455,-0.260,183.333,94.444,388.889,1061.111,41.667,N
175,0.045,0.490,-0.125,180.556,94.444,391.667,1030.556,30.556,N
176,0.055,0.480,-0.175,180.556,100.000,397.222,1066.667,36.111,N
177,0.060,0.585,-0.105,186.111,88.889,394.444,1080.556,13.889,N
178,0.115,0.540,-0.135,191.667,91.667,391.667,1083.333,2.778,N
179,-0.015,0.500,-0.175,175.000,91.667,386.111,1044.444,38.889,N
180,0.035,0.470,-0.170,186.111,97.222,402.778,966.667,77.778,N
181,0.040,0.505,-0.170,177.778,88.889,375.000,1038.889,72.222,N
182,0.145,0.560,-0.105,177.778,97.222,397.222,986.111,52.778,N
183,0.645,-0.600,-0.020,36.111,2.778,327.778,1091.667,105.556,N
184,0.215,0.550,-0.025,183.333,88.889,391.667,986.111,105.556,N
185,0.080,0.455,-0.200,166.667,91.667,377.778,1252.778,266.667,N
186,0.045,0.370,-0.230,175.000,91.667,394.444,1197.222,55.556,N
187,-0.010,0.450,-0.205,180.556,91.667,391.667,1305.556,108.333,N
188,0.010,0.335,-0.285,183.333,88.889,375.000,1191.667,113.889,N
189,-0.115,0.295,-0.300,169.444,94.444,400.000,1113.889,77.778,N
190,-0.065,0.280,-0.290,177.778,94.444,388.889,1058.333,55.556,N
191,-0.095,0.355,-0.285,183.333,97.222,402.778,1058.333,0.000,N
192,0.480,-0.660,-0.165,36.111,2.778,344.444,1066.667,8.333,N
193,0.035,0.375,-0.210,177.778,100.000,388.889,1111.111,44.444,N
194,-0.005,0.425,-0.265,177.778,97.222,394.444,1080.556,30.556,N
195,0.125,-0.990,-0.420,33.333,0.000,266.667,1072.222,8.333,N
196,-0.110,0.245,-0.215,180.556,86.111,358.333,980.556,91.667,N
197,0.040,0.340,-0.155,172.222,100.000,405.556,1052.778,72.222,N
198,0.110,0.710,-0.145,191.667,94.444,397.222,1061.111,8.333,N
199,0.145,0.705,-0.035,197.222,94.444,402.778,1155.556,94.444,N
200,0.125,0.710,-0.070,177.778,94.444,405.556,1094.444,61.111,N
201,0.180,0.690,-0.125,180.556,91.667,391.667,997.222,97.222,N
202,0.130,0.665,-0.070,183.333,91.667,402.778,1036.111,38.889,N
203,0.110,-1.005,-0.380,58.333,0.000,302.778,1094.444,58.333,N
204,-0.070,0.260,-0.200,177.778,91.667,388.889,1022.222,72.222,N
205,0.200,0.700,0.025,194.444,88.889,375.000,1097.222,75.000,N
206,0.290,0.580,0.120,183.333,97.222,344.444,1069.444,27.778,N
207,0.275,0.515,-0.025,163.889,80.556,358.333,1002.778,66.667,N
208,0.335,-0.695,-0.050,38.889,2.778,316.667,1072.222,69.444,N
209,0.365,-0.805,-0.170,33.333,0.000,316.667,1077.778,5.556,N
210,0.325,-0.815,-0.170,36.111,0.000,327.778,1055.556,22.222,N
211,0.085,0.360,-0.160,194.444,100.000,402.778,1022.222,33.333,N
212,0.105,0.480,-0.145,169.444,83.333,369.444,991.667,30.556,N
213,0.045,0.475,-0.145,169.444,94.444,388.889,944.444,47.222,N
214,0.090,0.530,-0.110,186.111,86.111,377.778,955.556,11.111,N
215,-0.045,0.310,-0.695,188.889,86.111,138.889,1055.556,100.000,N
216,-0.185,0.330,-0.150,186.111,97.222,402.778,1094.444,38.889,N
217,0.250,0.750,-0.005,180.556,91.667,402.778,1275.000,180.556,N
218,0.250,0.685,0.095,172.222,83.333,394.444,1141.667,133.333,N
219,0.040,0.705,0.100,163.889,75.000,155.556,775.000,366.667,V
220,0.270,-0.825,-0.225,63.889,0.000,325.000,1488.889,713.889,N
221,0.275,-0.675,-0.105,66.667,2.778,347.222,1247.222,241.667,N
222,0.300,-0.650,-0.045,52.778,0.000,344.444,1155.556,91.667,N
223,0.165,0.420,-0.005,169.444,102.778,405.556,994.444,161.111,N
224,0.195,0.485,-0.175,172.222,83.333,366.667,1063.889,69.444,N
225,0.140,0.215,0.105,147.222,88.889,361.111,975.000,88.889,N
226,0.230,-0.675,0.085,52.778,0.000,266.667,1091.667,116.667,N
227,0.100,0.155,-0.045,172.222,86.111,347.222,1022.222,69.444,N
228,0.085,0.095,-0.090,172.222,97.222,352.778,1077.778,55.556,N
229,-0.045,0.000,-0.155,147.222,72.222,336.111,1030.556,47.222,N
230,-0.085,-0.005,-0.235,169.444,94.444,355.556,1052.778,22.222,N
231,-0.090,-0.075,-0.165,172.222,77.778,341.667,1061.111,8.333,N
232,-0.100,-0.125,-0.125,161.111,69.444,305.556,1080.556,19.444,N
233,-0.385,-1.170,-0.455,55.556,2.778,263.889,1177.778,97.222,N
234,-0.155,-0.895,-0.220,52.778,0.000,258.333,1113.889,63.889,N
235,0.155,-0.550,0.185,50.000,2.778,269.444,1069.444,44.444,N
236,0.295,-0.510,0.300,50.000,2.778,250.000,1016.667,52.778,N
237,0.135,-0.635,-0.010,197.222,0.000,116.667,1102.778,86.111,N
238,0.130,-0.700,-0.065,55.556,2.778,244.444,1105.556,2.778,N
239,0.120,-0.625,-0.025,55.556,13.889,288.889,1091.667,13.889,N
240,0.145,-0.620,0.000,55.556,5.556,269.444,1030.556,61.111,N
241,0.115,-0.645,-0.005,55.556,2.778,255.556,1030.556,0.000,N
242,0.195,-0.590,-0.020,55.556,11.111,247.222,1036.111,5.556,N
243,0.105,-0.885,-0.300,61.111,0.000,316.667,1105.556,69.444,N
244,-0.165,0.120,-0.395,177.778,86.111,386.111,1005.556,100.000,N
245,-0.105,0.310,-0.200,180.556,100.000,402.778,1055.556,50.000,N
246,0.105,0.485,-0.125,169.444,88.889,386.111,1000.000,55.556,N
247,0.395,-0.585,0.025,58.333,2.778,272.222,1013.889,13.889,N
248,0.405,-0.605,-0.020,58.333,0.000,269.444,950.000,63.889,N
249,0.335,-0.630,-0.095,61.111,0.000,322.222,1044.444,94.444,N
250,0.235,-0.660,-0.115,66.667,13.889,325.000,1177.778,133.333,N
251,-0.005,0.300,-0.140,163.889,86.111,352.778,1269.444,91.667,N
252,0.470,-0.790,-0.175,30.556,0.000,319.444,1208.333,61.111,N
253,0.055,0.545,-0.100,169.444,83.333,377.778,1052.778,155.556,N
254,0.635,-0.245,-0.085,144.444,38.889,222.222,150.000,902.778,|
255,0.510,-0.790,-0.295,36.111,2.778,325.000,1011.111,861.111,N
256,0.310,-1.055,-0.465,44.444,0.000,311.111,1163.889,152.778,N
257,-0.570,-0.145,-0.650,175.000,88.889,394.444,1030.556,133.333,N
258,-0.185,0.490,-0.095,166.667,88.889,386.111,980.556,50.000,N
259,0.305,0.790,0.095,163.889,86.111,375.000,1005.556,25.000,N
260,0.335,0.855,0.125,188.889,97.222,402.778,1044.444,38.889,N
261,0.785,-0.485,0.120,33.333,2.778,305.556,1094.444,50.000,N
262,0.360,0.675,-0.065,183.333,86.111,375.000,1044.444,50.000,N
263,0.350,0.825,0.130,169.444,97.222,388.889,1025.000,19.444,N
264,0.205,0.640,-0.080,158.333,88.889,391.667,1005.556,19.444,N
265,-0.050,0.280,-0.395,180.556,94.444,394.444,1008.333,2.778,N
266,-0.145,0.390,-0.405,188.889,94.444,388.889,1005.556,2.778,N
267,-0.100,0.505,-0.220,188.889,88.889,394.444,1025.000,19.444,N
268,0.030,0.490,-0.225,175.000,88.889,394.444,1011.111,13.889,N
269,0.060,0.565,-0.140,188.889,88.889,391.667,1036.111,25.000,N
270,0.110,0.620,-0.150,177.778,88.889,391.667,1233.333,197.222,N
271,0.125,0.575,-0.145,175.000,91.667,372.222,1119.444,113.889,N
272,-0.085,0.550,-0.145,191.667,97.222,405.556,1169.444,50.000,N
273,0.080,0.540,-0.175,177.778,83.333,391.667,1155.556,13.889,N
274,0.060,0.680,-0.145,169.444,86.111,391.667,1066.667,88.889,N
275,0.135,0.650,-0.115,177.778,86.111,388.889,1066.667,0.000,N
276,0.115,0.740,-0.125,180.556,94.444,375.000,1041.667,25.000,N
277,0.075,0.535,-0.225,175.000,91.667,394.444,1058.333,16.667,N
278,-0.005,0.575,-0.190,183.333,94.444,405.556,1108.333,50.000,N
279,0.095,0.570,-0.190,186.111,97.222,388.889,1152.778,44.444,N
280,0.010,0.565,-0.225,172.222,83.333,375.000,1052.778,100.000,N
281,-0.225,0.375,-0.265,100.000,77.778,319.444,427.778,625.000,V
282,-0.210,0.525,-0.235,63.889,94.444,391.667,730.556,302.778,N
283,0.000,0.575,-0.190,183.333,97.222,388.889,986.111,255.556,N
284,0.005,0.500,-0.250,183.333,83.333,394.444,1088.889,102.778,N
285,0.095,0.630,-0.020,191.667,88.889,391.667,1102.778,13.889,N
286,0.265,0.755,0.005,183.333,86.111,380.556,1127.778,25.000,N
287,0.000,0.565,-0.385,177.778,91.667,366.667,1086.111,41.667,N
288,-0.070,0.590,-0.200,183.333,88.889,377.778,988.889,97.222,N
289,0.045,0.515,-0.210,183.333,97.222,402.778,1141.667,152.778,N
290,0.010,0.585,-0.305,197.222,94.444,380.556,1144.444,2.778,N
291,0.035,0.495,-0.230,175.000,91.667,394.444,1077.778,66.667,N
292,-0.055,0.500,-0.380,183.333,97.222,402.778,1111.111,33.333,N
293,-0.255,0.205,-0.370,177.778,88.889,388.889,1005.556,105.556,N
294,0.030,0.490,-0.155,177.778,94.444,400.000,1066.667,61.111,N
295,0.140,0.600,-0.105,183.333,86.111,391.667,1127.778,61.111,N
296,0.085,0.640,-0.100,191.667,94.444,405.556,1100.000,27.778,N
297,0.115,0.550,-0.150,180.556,88.889,391.667,1075.000,25.000,N
298,0.040,0.470,-0.250,180.556,94.444,391.667,1066.667,8.333,N
299,-0.115,0.420,-0.230,177.778,88.889,394.444,1055.556,11.111,N
300,0.075,0.555,-0.140,180.556,86.111,394.444,1033.333,22.222,N
301,0.085,0.525,-0.145,180.556,97.222,405.556,1163.889,130.556,N
302,0.080,0.550,-0.225,175.000,94.444,388.889,1077.778,86.111,N
303,0.015,0.530,-0.165,183.333,94.444,388.889,1086.111,8.333,N
304,0.025,0.485,-0.215,172.222,91.667,400.000,1036.111,50.000,N
305,-0.075,0.405,-0.105,175.000,86.111,388.889,1058.333,22.222,N
306,0.125,0.520,-0.125,186.111,83.333,391.667,1027.778,30.556,N
307,0.035,0.475,-0.195,197.222,88.889,394.444,1166.667,138.889,N
308,-0.265,-0.270,0.325,44.444,75.000,383.333,741.667,425.000,|
309,-0.060,0.520,-0.230,166.667,91.667,402.778,366.667,375.000,N
310,-0.050,0.430,-0.325,188.889,91.667,375.000,1063.889,697.222,N
311,-0.035,0.505,-0.215,183.333,83.333,375.000,1061.111,2.778,N
312,0.010,0.620,-0.155,180.556,94.444,386.111,1094.444,33.333,N
313,0.060,0.565,-0.190,180.556,97.222,391.667,1083.333,11.111,N
314,-0.030,0.560,-0.190,194.444,91.667,397.222,1155.556,72.222,N
315,0.100,0.665,-0.110,180.556,83.333,352.778,1055.556,100.000,N
316,0.155,0.650,-0.110,172.222,83.333,388.889,1025.000,30.556,N
317,0.090,0.505,-0.135,186.111,94.444,388.889,1077.778,52.778,N
318,0.045,0.510,-0.180,183.333,97.222,358.333,1116.667,38.889,N
319,-0.175,-0.380,-0.265,136.111,77.778,255.556,502.778,613.889,|
320,-0.030,0.485,-0.190,177.778,88.889,391.667,608.333,105.556,N
321,0.105,0.625,-0.120,188.889,94.444,405.556,1091.667,483.333,N
322,0.400,-0.625,-0.040,30.556,0.000,258.333,1086.111,5.556,N
323,0.065,0.545,-0.110,169.444,83.333,355.556,950.000,136.111,N
324,0.180,0.620,-0.150,175.000,94.444,402.778,1019.444,69.444,N
325,0.000,0.555,-0.155,186.111,94.444,405.556,1058.333,38.889,N
326,-0.030,0.400,-0.320,188.889,83.333,358.333,1105.556,47.222,N
327,-0.145,0.315,-0.385,180.556,97.222,361.111,1044.444,61.111,N
328,-0.175,0.380,-0.340,169.444,86.111,380.556,1041.667,2.778,N
329,-0.075,0.380,-0.335,169.444,88.889,391.667,997.222,44.444,N
330,-0.135,0.485,-0.275,197.222,94.444,405.556,1061.111,63.889,N
331,0.010,0.490,-0.235,191.667,86.111,394.444,1069.444,8.333,N
332,-0.025,0.495,-0.250,177.778,88.889,394.444,1122.222,52.778,N
333,0.025,0.475,-0.175,175.000,94.444,397.222,1033.333,88.889,N
334,0.090,0.560,-0.150,186.111,88.889,388.889,1066.667,33.333,N
335,0.065,0.560,-0.220,172.222,86.111,391.667,1061.111,5.556,N
336,0.035,0.540,-0.180,180.556,97.222,405.556,1044.444,16.667,N
337,0.100,0.575,-0.155,197.222,91.667,388.889,1113.889,69.444,N
338,0.025,0.480,-0.380,197.222,94.444,344.444,1150.000,36.111,N
339,-0.075,0.225,-0.150,161.111,75.000,372.222,1000.000,150.000,N
340,0.365,-0.665,0.005,41.667,0.000,291.667,1094.444,94.444,N
341,-0.010,0.510,-0.215,180.556,94.444,394.444,1038.889,55.556,N
342,0.155,0.635,-0.010,186.111,97.222,400.000,1086.111,47.222,N
343,0.185,0.740,-0.065,180.556,94.444,391.667,1119.444,33.333,N
344,0.135,0.610,-0.135,191.667,94.444,391.667,1077.778,41.667,N
345,0.005,0.545,-0.240,183.333,97.222,405.556,1055.556,22.222,N
346,0.065,0.535,-0.180,183.333,100.000,388.889,1019.444,36.111,N
347,0.065,0.580,-0.080,177.778,97.222,402.778,1094.444,75.000,N
348,0.210,0.650,-0.135,172.222,97.222,358.333,1088.889,5.556,N
349,-0.030,0.470,-0.455,197.222,94.444,405.556,1094.444,5.556,N
350,-0.285,0.080,-0.680,175.000,86.111,388.889,1008.333,86.111,N
351,-0.460,-0.030,-0.540,166.667,97.222,391.667,991.667,16.667,N
352,-0.215,0.390,-0.225,166.667,86.111,372.222,944.444,47.222,N
353,0.010,0.630,-0.230,197.222,94.444,402.778,1013.889,69.444,N
354,0.065,0.830,0.000,197.222,94.444,405.556,1058.333,44.444,N
355,0.305,0.915,0.185,188.889,94.444,402.778,1069.444,11.111,N
356,0.475,1.095,0.250,183.333,86.111,361.111,1336.111,266.667,N
357,0.495,0.920,0.170,172.222,86.111,394.444,1219.444,116.667,N
358,0.280,0.835,-0.225,180.556,91.667,125.000,1141.667,77.778,N
359,0.050,0.725,-0.085,197.222,91.667,405.556,1113.889,27.778,N
360,0.185,0.620,-0.060,183.333,83.333,391.667,1155.556,41.667,N
361,0.120,0.550,-0.125,177.778,86.111,375.000,1036.111,119.444,N
362,0.110,0.660,-0.170,186.111,94.444,405.556,1061.111,25.000,N
363,0.100,0.605,-0.105,186.111,91.667,400.000,1072.222,11.111,N
364,0.090,0.545,-0.145,177.778,88.889,397.222,1063.889,8.333,N
365,0.035,0.640,-0.135,197.222,88.889,394.444,1152.778,88.889,N
366,0.135,0.615,-0.100,191.667,88.889,375.000,1072.222,80.556,N
367,0.080,0.530,-0.180,169.444,94.444,388.889,1036.111,36.111,N
368,0.015,0.555,-0.225,180.556,91.667,391.667,1044.444,8.333,N
369,0.045,0.505,-0.185,194.444,88.889,391.667,1080.556,36.111,N
370,0.010,0.510,-0.265,191.667,86.111,388.889,1116.667,36.111,N
371,-0.065,0.390,-0.270,191.667,94.444,405.556,1080.556,36.111,N
372,-0.005,0.470,-0.180,175.000,91.667,400.000,1080.556,0.000,N
373,0.075,0.655,-0.165,183.333,91.667,391.667,1044.444,36.111,N
374,0.085,0.510,-0.160,172.222,83.333,372.222,1041.667,2.778,N
375,0.030,0.595,-0.255,197.222,97.222,397.222,1152.778,111.111,N
376,0.070,0.585,-0.130,194.444,94.444,391.667,1122.222,30.556,N
377,0.155,0.715,-0.050,183.333,83.333,388.889,1122.222,0.000,N
378,0.290,0.725,0.040,177.778,91.667,388.889,1077.778,44.444,N
379,0.180,0.705,-0.110,186.111,94.444,405.556,1069.444,8.333,N
380,0.140,0.610,-0.145,177.778,91.667,397.222,1061.111,8.333,N
381,-0.035,0.600,-0.210,197.222,97.222,405.556,1169.444,108.333,N
382,0.015,0.470,-0.255,186.111,97.222,405.556,1116.667,52.778,N
383,-0.070,0.370,-0.340,186.111,91.667,369.444,1083.333,33.333,N
384,-0.165,0.315,-0.415,177.778,83.333,372.222,1108.333,25.000,N
385,-0.165,0.255,-0.445,188.889,94.444,383.333,1061.111,47.222,N
386,-0.190,0.325,-0.450,177.778,91.667,394.444,1141.667,80.556,N
387,-0.135,0.335,-0.295,197.222,88.889,377.778,1141.667,0.000,N
388,-0.045,0.375,-0.300,183.333,86.111,358.333,1130.556,11.111,N
389,-0.075,0.480,-0.280,183.333,88.889,391.667,1058.333,72.222,N
390,0.005,0.415,-0.210,177.778,88.889,386.111,1086.111,27.778,N
391,0.045,0.570,-0.150,194.444,94.444,394.444,1097.222,11.111,N
392,0.105,0.520,-0.150,180.556,83.333,383.333,1122.222,25.000,N
393,-0.015,0.505,-0.260,191.667,94.444,383.333,1155.556,33.333,N
394,0.045,0.475,-0.175,183.333,91.667,402.778,1077.778,77.778,N
395,0.035,0.470,-0.190,186.111,83.333,388.889,1055.556,22.222,N
396,0.085,0.645,-0.145,186.111,94.444,400.000,1097.222,41.667,N
397,0.165,0.590,-0.100,191.667,91.667,391.667,1088.889,8.333,N
398,0.130,0.595,-0.170,186.111,83.333,377.778,1130.556,41.667,N
399,0.025,0.420,-0.245,180.556,94.444,375.000,1072.222,58.333,N
400,-0.060,0.525,-0.320,177.778,86.111,394.444,1063.889,8.333,N
401,-0.050,0.405,-0.325,177.778,94.444,363.889,986.111,77.778,N
402,-0.150,0.445,-0.325,191.667,86.111,388.889,1094.444,108.333,N
403,0.075,0.560,-0.100,177.778,86.111,375.000,1066.667,27.778,N
404,0.215,0.735,-0.050,194.444,91.667,397.222,1069.444,2.778,N
405,0.185,0.710,-0.045,183.333,91.667,372.222,1019.444,50.000,N
406,0.145,0.510,-0.110,172.222,86.111,369.444,1027.778,8.333,N
407,0.065,0.510,-0.180,175.000,86.111,388.889,1033.333,5.556,N
408,-0.010,0.565,-0.165,197.222,91.667,380.556,1063.889,30.556,N
409,0.480,-0.680,-0.125,38.889,0.000,322.222,1152.778,88.889,N
410,0.090,0.460,-0.170,172.222,83.333,361.111,1027.778,125.000,N
411,-0.030,0.315,-0.390,177.778,77.778,386.111,1005.556,22.222,N
412,-0.340,0.185,-0.490,191.667,91.667,402.778,1038.889,33.333,N
413,0.065,0.625,-0.035,188.889,88.889,391.667,1061.111,22.222,N
414,0.180,0.595,-0.130,194.444,91.667,372.222,1050.000,11.111,N
415,0.105,0.495,-0.150,188.889,86.111,388.889,1094.444,44.444,N
416,0.020,0.415,-0.195,177.778,86.111,372.222,1025.000,69.444,N
417,-0.035,0.385,-0.255,191.667,88.889,363.889,994.444,30.556,N
418,-0.035,0.380,-0.270,183.333,94.444,372.222,994.444,0.000,N
419,-0.090,0.370,-0.335,177.778,88.889,388.889,1111.111,116.667,N
420,0.315,-0.795,-0.275,33.333,0.000,305.556,1361.111,250.000,N
421,-0.040,0.415,-0.255,175.000,86.111,388.889,1233.333,127.778,N
422,0.015,0.425,-0.235,169.444,97.222,391.667,1105.556,127.778,N
423,0.010,0.505,-0.255,172.222,86.111,375.000,1094.444,11.111,N
424,-0.210,0.140,-0.625,186.111,83.333,361.111,1055.556,38.889,N
425,-0.070,-0.840,-0.140,55.556,2.778,180.556,1108.333,52.778,N
426,-0.365,-0.965,-0.095,61.111,0.000,286.111,1041.667,66.667,N
427,0.220,-0.440,0.290,58.333,5.556,252.778,1086.111,44.444,N
428,0.540,-0.180,0.495,55.556,5.556,236.111,980.556,105.556,N
429,0.445,-0.285,0.335,55.556,2.778,252.778,1000.000,19.444,N
430,0.225,-0.470,0.260,61.111,0.000,258.333,1075.000,75.000,N
431,0.120,-0.515,0.110,58.333,5.556,236.111,1091.667,16.667,N
432,-0.020,-0.895,-0.230,197.222,0.000,219.444,1080.556,11.111,N
433,-0.305,-1.020,-0.265,58.333,2.778,238.889,1061.111,19.444,N
434,-0.145,-0.960,-0.200,197.222,2.778,250.000,1047.222,13.889,N
435,-0.135,-0.855,0.045,52.778,0.000,263.889,1047.222,0.000,N
436,0.010,-0.875,-0.070,197.222,2.778,286.111,1063.889,16.667,N
437,-0.255,-1.085,-0.235,58.333,0.000,250.000,1119.444,55.556,N
438,-0.370,-0.310,-0.285,75.000,102.778,113.889,238.889,880.556,|
439,-0.495,-1.345,-0.410,197.222,13.889,238.889,836.111,597.222,N
440,-0.230,-1.000,-0.315,61.111,2.778,311.111,1011.111,175.000,N
441,-0.030,0.540,-0.150,172.222,83.333,358.333,1002.778,8.333,N
442,0.000,0.825,-0.160,172.222,94.444,397.222,1050.000,47.222,N
443,0.060,0.795,-0.100,197.222,94.444,402.778,1061.111,11.111,N
444,0.090,0.785,-0.135,194.444,91.667,402.778,1108.333,47.222,N
445,0.125,0.925,-0.035,175.000,88.889,380.556,1061.111,47.222,N
446,0.170,0.830,-0.050,169.444,91.667,344.444,1002.778,58.333,N
447,0.110,0.925,-0.125,191.667,94.444,391.667,1050.000,47.222,N
448,0.150,0.910,-0.065,191.667,86.111,386.111,1044.444,5.556,N
449,0.150,0.830,-0.080,183.333,94.444,375.000,1075.000,30.556,N
450,0.100,0.890,-0.145,186.111,94.444,394.444,1091.667,16.667,N
451,0.140,0.865,-0.035,183.333,86.111,397.222,1038.889,52.778,N
452,0.165,0.930,-0.090,180.556,88.889,372.222,1030.556,8.333,N
453,0.180,0.995,0.085,191.667,88.889,397.222,991.667,38.889,N
454,0.280,0.810,0.005,188.889,91.667,388.889,1075.000,83.333,N
455,0.205,0.955,-0.135,188.889,94.444,388.889,1061.111,13.889,N
456,0.125,0.645,-0.165,188.889,86.111,380.556,1033.333,27.778,N
457,0.005,0.475,-0.235,175.000,86.111,372.222,1002.778,30.556,N
458,-0.140,0.460,-0.325,172.222,94.444,400.000,975.000,27.778,N
459,-0.130,0.510,-0.235,177.778,80.556,369.444,938.889,36.111,N
460,-0.015,0.495,-0.370,197.222,97.222,377.778,1055.556,116.667,N
461,-0.175,0.355,-0.345,177.778,88.889,388.889,1180.556,125.000,N
462,-0.020,0.670,-0.170,180.556,94.444,402.778,1258.333,77.778,N
463,0.055,0.580,-0.155,166.667,88.889,361.111,1100.000,158.333,N
464,0.105,0.575,-0.115,163.889,88.889,386.111,1058.333,41.667,N
465,0.075,0.725,-0.205,177.778,88.889,400.000,1047.222,11.111,N
466,0.095,0.735,-0.050,194.444,97.222,397.222,1100.000,52.778,N
467,0.270,0.815,0.050,186.111,97.222,391.667,1088.889,11.111,N
468,0.195,0.880,0.015,175.000,86.111,391.667,1008.333,80.556,N
469,0.300,0.960,0.110,180.556,91.667,394.444,969.444,38.889,N
470,0.230,0.975,-0.080,186.111,94.444,383.333,1025.000,55.556,N
471,0.075,1.020,-0.155,186.111,88.889,394.444,958.333,66.667,N
472,0.145,0.950,-0.145,191.667,94.444,405.556,955.556,2.778,N
473,-0.120,-1.325,0.335,150.000,8.333,230.556,547.222,408.333,V
474,0.335,0.050,-0.200,175.000,83.333,363.889,397.222,150.000,x
475,-0.115,-1.265,-0.045,136.111,0.000,275.000,1213.889,816.667,F
476,-0.100,0.695,-0.250,166.667,83.333,361.111,1127.778,86.111,N
477,0.020,0.660,-0.225,188.889,94.444,386.111,1036.111,91.667,N
478,-0.035,0.805,-0.280,191.667,91.667,400.000,1083.333,47.222,N
479,0.040,0.775,-0.175,180.556,91.667,375.000,1022.222,61.111,N
480,0.095,0.785,-0.155,186.111,83.333,397.222,1105.556,83.333,N
481,0.015,0.790,-0.230,161.111,86.111,388.889,1011.111,94.444,N
482,0.005,0.855,-0.185,177.778,88.889,394.444,980.556,30.556,N
483,0.020,0.710,-0.215,186.111,94.444,405.556,1041.667,61.111,N
484,-0.015,0.675,-0.265,186.111,91.667,394.444,1083.333,41.667,N
485,-0.015,0.810,-0.205,186.111,86.111,388.889,1055.556,27.778,N
486,0.085,0.795,-0.155,194.444,88.889,391.667,1050.000,5.556,N
487,0.075,0.770,-0.155,183.333,94.444,375.000,1022.222,27.778,N
488,0.060,0.805,-0.195,180.556,80.556,391.667,955.556,66.667,N
489,0.050,0.830,-0.150,180.556,97.222,405.556,1013.889,58.333,N
490,0.070,0.715,-0.195,191.667,88.889,363.889,1341.667,327.778,N
491,0.005,0.790,-0.240,177.778,91.667,394.444,1255.556,86.111,N
492,0.010,0.745,-0.200,186.111,88.889,380.556,1125.000,130.556,N
493,0.000,0.660,-0.230,180.556,83.333,361.111,1077.778,47.222,N
494,-0.050,0.705,-0.315,172.222,97.222,405.556,1047.222,30.556,N
495,-0.040,0.760,-0.260,188.889,97.222,405.556,1083.333,36.111,N
496,-0.020,0.620,-0.265,191.667,91.667,386.111,1130.556,47.222,N
497,-0.065,0.650,-0.330,175.000,91.667,363.889,1036.111,94.444,N
498,-0.045,0.635,-0.260,180.556,86.111,397.222,983.333,52.778,N
499,-0.080,0.585,-0.215,175.000,88.889,391.667,1038.889,55.556,N
500,0.005,0.520,-0.040,188.889,100.000,388.889,997.222,41.667,N
501,0.095,0.490,-0.140,188.889,86.111,347.222,1066.667,69.444,N
502,-0.030,0.470,-0.250,177.778,88.889,394.444,1066.667,0.000,N
503,-0.080,0.545,-0.280,175.000,94.444,355.556,997.222,69.444,N
504,-0.155,0.340,-0.290,169.444,91.667,336.111,930.556,66.667,N
505,-0.060,0.600,-0.210,188.889,94.444,400.000,1005.556,75.000,N
506,0.085,0.645,-0.135,197.222,94.444,405.556,1027.778,22.222,N
507,0.015,0.660,-0.200,186.111,86.111,391.667,1255.556,227.778,N
508,0.090,0.635,-0.175,186.111,94.444,366.667,1280.556,25.000,N
509,-0.190,0.620,-0.245,194.444,88.889,402.778,586.111,694.444,V
510,-0.265,-0.090,-0.185,58.333,97.222,355.556,397.222,188.889,x
511,-0.015,1.370,-0.410,150.000,111.111,402.778,1213.889,816.667,N
512,0.065,0.575,-0.180,197.222,97.222,400.000,1166.667,47.222,N
513,-0.055,0.415,-0.200,188.889,97.222,375.000,1086.111,80.556,N
514,-0.055,0.710,-0.185,180.556,94.444,394.444,1041.667,44.444,N
515,0.055,0.490,-0.145,175.000,91.667,380.556,1047.222,5.556,N
516,0.035,0.590,-0.215,188.889,91.667,372.222,1044.444,2.778,N
517,-0.100,0.660,-0.145,188.889,83.333,377.778,1002.778,41.667,N
518,0.630,-0.575,-0.025,36.111,0.000,308.333,1027.778,25.000,N
519,0.115,0.510,-0.045,183.333,91.667,386.111,1047.222,19.444,N
520,0.060,0.595,-0.145,177.778,94.444,391.667,1027.778,19.444,N
521,0.060,0.475,-0.130,183.333,97.222,350.000,988.889,38.889,N
522,0.060,0.410,-0.105,169.444,94.444,358.333,1291.667,302.778,N
523,0.100,0.500,-0.160,183.333,91.667,366.667,1263.889,27.778,N
524,0.015,0.510,-0.150,191.667,97.222,391.667,1152.778,111.111,N
525,0.100,0.490,-0.095,175.000,97.222,394.444,1163.889,11.111,N
526,0.055,0.620,-0.195,177.778,97.222,377.778,1069.444,94.444,N
527,0.055,0.455,-0.180,172.222,86.111,369.444,1027.778,41.667,N
528,0.040,0.400,-0.190,175.000,88.889,372.222,1047.222,19.444,N
529,-0.050,0.490,-0.250,191.667,100.000,402.778,1097.222,50.000,N
530,-0.045,0.440,-0.225,191.667,91.667,386.111,1075.000,22.222,N
531,0.000,0.450,-0.150,180.556,97.222,372.222,1102.778,27.778,N
532,0.120,0.510,-0.115,163.889,91.667,386.111,1030.556,72.222,N
533,0.065,0.615,-0.155,183.333,86.111,391.667,1005.556,25.000,N
534,0.035,0.545,-0.180,191.667,88.889,372.222,1027.778,22.222,N
535,0.000,0.705,-0.260,188.889,94.444,397.222,1091.667,63.889,N
536,0.030,0.650,-0.165,180.556,86.111,369.444,1022.222,69.444,N
537,0.060,0.750,-0.205,186.111,94.444,377.778,1052.778,30.556,N
538,0.055,0.725,-0.130,177.778,91.667,344.444,1094.444,41.667,N
539,0.090,0.700,-0.185,169.444,91.667,394.444,1263.889,169.444,N
540,0.065,0.785,-0.105,197.222,91.667,386.111,1200.000,63.889,N
541,-0.105,-1.410,0.460,50.000,5.556,258.333,655.556,544.444,V
542,0.040,0.540,-0.270,169.444,86.111,391.667,1594.444,938.889,N
543,0.010,0.725,-0.205,183.333,97.222,394.444,1108.333,486.111,N
544,0.075,0.670,-0.105,169.444,86.111,375.000,1002.778,105.556,N
545,0.080,0.745,-0.175,175.000,88.889,377.778,1025.000,22.222,N
546,0.065,0.690,-0.135,191.667,91.667,375.000,1047.222,22.222,N
547,0.060,0.625,-0.170,188.889,94.444,355.556,1094.444,47.222,N
548,-0.035,0.640,-0.265,175.000,88.889,369.444,1025.000,69.444,N
549,0.000,0.670,-0.190,180.556,91.667,388.889,986.111,38.889,N
550,0.035,0.605,-0.205,172.222,86.111,375.000,1011.111,25.000,N
551,0.015,0.810,-0.170,194.444,94.444,402.778,988.889,22.222,N
552,0.065,0.720,-0.120,186.111,97.222,372.222,1019.444,30.556,N
553,0.050,0.645,-0.320,186.111,94.444,369.444,1233.333,213.889,N
554,-0.185,0.405,-0.355,169.444,94.444,380.556,1186.111,47.222,N
555,-0.110,0.555,-0.165,172.222,94.444,402.778,1050.000,136.111,N
556,0.110,0.755,-0.030,175.000,94.444,391.667,1041.667,8.333,N
557,0.325,1.155,0.155,175.000,94.444,400.000,1041.667,0.000,N
558,0.410,1.015,0.170,188.889,86.111,380.556,1080.556,38.889,N
559,0.365,0.900,0.050,180.556,86.111,391.667,1125.000,44.444,N
560,0.185,0.850,-0.080,180.556,94.444,391.667,1058.333,66.667,N
561,0.130,0.785,-0.120,175.000,88.889,377.778,991.667,66.667,N
562,0.080,0.610,-0.185,188.889,86.111,372.222,1094.444,102.778,N
563,-0.010,0.685,-0.225,183.333,88.889,394.444,1086.111,8.333,N
564,0.000,0.710,-0.215,188.889,91.667,391.667,1050.000,36.111,N
565,0.035,0.620,-0.175,186.111,83.333,369.444,1066.667,16.667,N
566,-0.010,0.555,-0.240,175.000,80.556,391.667,1041.667,25.000,N
567,-0.015,0.690,-0.250,175.000,86.111,375.000,1022.222,19.444,N
568,-0.005,0.645,-0.210,197.222,91.667,394.444,1050.000,27.778,N
569,-0.030,0.535,-0.275,194.444,97.222,394.444,1122.222,72.222,N
570,-0.070,0.640,-0.265,186.111,94.444,388.889,1041.667,80.556,N
571,0.015,0.610,-0.185,172.222,86.111,388.889,1000.000,41.667,N
572,0.025,0.680,-0.230,186.111,91.667,375.000,1038.889,38.889,N
573,-0.025,0.685,-0.195,186.111,97.222,402.778,958.333,80.556,N
574,0.000,0.540,-0.225,191.667,91.667,397.222,1019.444,61.111,N
575,-0.230,0.360,-0.440,180.556,97.222,405.556,1294.444,275.000,N
576,0.100,0.710,-0.050,169.444,91.667,377.778,1330.556,36.111,N
577,0.180,0.815,-0.080,180.556,97.222,405.556,1169.444,161.111,N
578,0.140,0.800,-0.050,183.333,91.667,388.889,1113.889,55.556,N
579,0.135,0.785,-0.185,183.333,94.444,388.889,1083.333,30.556,N
580,0.030,0.730,-0.190,194.444,94.444,402.778,1088.889,5.556,N
581,-0.180,0.680,-0.015,180.556,83.333,341.667,602.778,486.111,V
582,-0.275,-0.045,-0.205,58.333,94.444,363.889,280.556,322.222,x
583,0.050,0.715,-0.200,169.444,86.111,397.222,1197.222,916.667,N
584,0.105,0.600,-0.155,169.444,77.778,372.222,963.889,233.333,N
585,0.005,0.735,-0.190,188.889,91.667,400.000,1005.556,41.667,N
586,0.065,0.695,-0.195,194.444,94.444,402.778,994.444,11.111,N
587,-0.080,0.625,-0.395,191.667,91.667,400.000,1138.889,144.444,N
588,-0.160,0.475,-0.370,169.444,83.333,347.222,1247.222,108.333,N
589,-0.105,0.555,-0.315,166.667,91.667,394.444,1075.000,172.222,N
590,-0.050,0.515,-0.295,180.556,94.444,369.444,1069.444,5.556,N
591,-0.080,0.545,-0.270,186.111,97.222,402.778,1069.444,0.000,N
592,0.005,0.570,-0.200,191.667,91.667,386.111,1125.000,55.556,N
593,0.005,0.635,-0.215,183.333,91.667,372.222,1069.444,55.556,N
594,0.050,0.610,-0.125,180.556,86.111,372.222,1077.778,8.333,N
595,0.080,0.555,-0.165,169.444,80.556,388.889,1027.778,50.000,N
596,0.045,0.700,-0.145,188.889,86.111,391.667,1036.111,8.333,N
597,0.110,0.675,-0.100,197.222,94.444,391.667,1072.222,36.111,N
598,0.050,0.695,-0.165,194.444,94.444,391.667,1116.667,44.444,N
599,0.120,0.670,-0.105,172.222,83.333,377.778,1025.000,91.667,N
600,0.070,0.755,-0.225,183.333,94.444,405.556,1041.667,16.667,N
601,0.060,0.655,-0.175,177.778,94.444,388.889,1000.000,41.667,N
602,0.045,0.675,-0.220,194.444,88.889,391.667,1030.556,30.556,N
603,0.005,0.740,-0.135,180.556,83.333,391.667,1041.667,11.111,N
604,0.135,0.695,-0.125,194.444,91.667,388.889,1041.667,0.000,N
605,0.025,0.745,-0.250,180.556,91.667,388.889,1052.778,11.111,N
606,0.035,0.670,-0.150,175.000,88.889,377.778,963.889,88.889,N
607,0.020,0.665,-0.270,175.000,83.333,372.222,1297.222,333.333,N
608,-0.025,0.845,-0.280,186.111,100.000,402.778,1175.000,122.222,N
609,0.165,0.830,-0.030,194.444,91.667,394.444,1144.444,30.556,N
610,0.135,0.890,-0.120,183.333,83.333,397.222,1105.556,38.889,N
611,0.075,0.725,-0.145,180.556,83.333,352.778,1125.000,19.444,N
612,0.070,0.540,-0.170,180.556,80.556,372.222,1050.000,75.000,N
613,-0.045,0.565,-0.365,180.556,88.889,388.889,1133.333,83.333,N
614,-0.050,0.690,-0.220,180.556,88.889,380.556,1044.444,88.889,N
615,0.085,0.760,-0.125,191.667,97.222,405.556,1080.556,36.111,N
616,0.090,0.945,-0.105,191.667,91.667,380.556,1052.778,27.778,N
617,0.175,0.920,-0.020,172.222,77.778,375.000,977.778,75.000,N
618,0.200,0.775,-0.140,175.000,80.556,369.444,1005.556,27.778,N
619,0.165,0.915,-0.060,188.889,91.667,402.778,1008.333,2.778,N
620,0.165,0.885,-0.140,197.222,91.667,377.778,1130.556,122.222,N
621,0.090,0.715,-0.120,186.111,80.556,355.556,1055.556,75.000,N
622,0.075,0.590,-0.090,166.667,80.556,383.333,1027.778,27.778,N
623,0.125,0.550,-0.085,186.111,80.556,394.444,1038.889,11.111,N
624,0.025,0.810,-0.195,188.889,88.889,391.667,1008.333,30.556,N
625,0.070,0.795,-0.125,191.667,86.111,397.222,977.778,30.556,N
626,0.085,0.720,-0.160,191.667,86.111,388.889,1286.111,308.333,N
627,0.065,0.870,-0.225,180.556,88.889,388.889,1388.889,102.778,N
628,0.065,0.715,-0.155,177.778,91.667,386.111,1119.444,269.444,N
629,0.045,0.735,-0.210,186.111,91.667,391.667,1208.333,88.889,N
630,0.050,0.780,-0.160,188.889,88.889,380.556,1066.667,141.667,N
631,0.065,0.760,-0.165,197.222,97.222,405.556,1172.222,105.556,N
632,-0.015,0.790,-0.170,188.889,86.111,391.667,1141.667,30.556,N
633,0.115,0.590,-0.135,180.556,80.556,361.111,1008.333,133.333,N
634,0.050,0.640,-0.115,175.000,83.333,377.778,1019.444,11.111,N
635,0.105,0.700,-0.070,197.222,91.667,375.000,1108.333,88.889,N
636,0.165,0.715,-0.035,186.111,83.333,375.000,1108.333,0.000,N
637,0.040,0.475,-0.380,188.889,97.222,352.778,1113.889,5.556,N
638,-0.155,0.310,-0.295,186.111,83.333,369.444,1044.444,69.444,N
639,0.015,0.475,-0.165,186.111,88.889,344.444,991.667,52.778,N
640,0.145,0.740,-0.025,169.444,88.889,358.333,1005.556,13.889,N
641,0.290,1.005,0.075,194.444,94.444,391.667,1036.111,30.556,N
642,0.265,0.895,-0.020,194.444,94.444,400.000,1113.889,77.778,N
643,0.205,0.890,0.000,191.667,91.667,397.222,1061.111,52.778,N
644,0.120,0.750,-0.190,175.000,83.333,375.000,1083.333,22.222,N
645,0.035,0.620,-0.145,161.111,86.111,369.444,986.111,97.222,N
646,-0.020,0.585,-0.265,180.556,97.222,405.556,1025.000,38.889,N
647,-0.035,0.615,-0.225,188.889,88.889,400.000,1086.111,61.111,N
648,0.040,0.715,-0.190,183.333,97.222,388.889,1127.778,41.667,N
649,0.050,0.645,-0.190,175.000,88.889,361.111,1091.667,36.111,N
650,0.030,0.655,-0.210,191.667,88.889,388.889,1086.111,5.556,N
651,0.030,0.645,-0.170,175.000,86.111,375.000,1061.111,25.000,N
652,0.050,0.755,-0.165,188.889,97.222,402.778,1080.556,19.444,N
653,0.075,0.765,-0.160,194.444,94.444,394.444,1125.000,44.444,N
654,0.050,0.705,-0.455,183.333,94.444,144.444,1122.222,2.778,N
655,-0.145,0.610,-0.280,175.000,88.889,388.889,1044.444,77.778,N
656,0.085,0.910,-0.105,191.667,91.667,386.111,1016.667,27.778,N
657,0.210,0.855,0.015,186.111,86.111,377.778,1058.333,41.667,N
658,0.185,0.780,-0.105,186.111,83.333,397.222,1075.000,16.667,N
659,-0.065,0.855,-0.245,197.222,94.444,400.000,1105.556,30.556,N
660,0.110,0.850,-0.070,194.444,80.556,386.111,1072.222,33.333,N
661,0.095,0.930,-0.085,180.556,86.111,391.667,1019.444,52.778,N
662,0.145,0.880,-0.035,180.556,91.667,391.667,966.667,52.778,N
663,0.120,0.785,-0.220,177.778,83.333,377.778,991.667,25.000,N
664,-0.065,0.415,-0.460,183.333,86.111,236.111,975.000,16.667,N
665,-0.425,0.165,-0.230,191.667,88.889,394.444,1083.333,108.333,N
666,0.305,0.735,-0.025,177.778,94.444,386.111,1261.111,177.778,N
667,0.410,1.000,0.365,169.444,94.444,394.444,1072.222,188.889,N
668,0.655,1.090,0.335,177.778,88.889,377.778,1011.111,61.111,N
669,0.275,0.655,-0.035,172.222,80.556,375.000,1108.333,97.222,N
670,-0.045,0.275,-0.235,172.222,94.444,388.889,1083.333,25.000,N
671,-0.130,0.260,-0.455,183.333,86.111,125.000,1069.444,13.889,N
672,-0.305,0.170,-0.375,172.222,94.444,386.111,1000.000,69.444,N
673,-0.070,0.580,-0.245,169.444,86.111,366.667,969.444,30.556,N
674,-0.045,0.745,-0.135,175.000,86.111,377.778,933.333,36.111,N
675,0.005,0.770,-0.265,188.889,91.667,391.667,958.333,25.000,N
676,-0.085,0.500,-0.360,188.889,91.667,386.111,1188.889,230.556,N
677,-0.080,0.610,-0.265,183.333,94.444,372.222,947.222,241.667,N
678,-0.140,0.415,-0.365,169.444,88.889,375.000,958.333,11.111,N
679,0.045,0.660,-0.085,172.222,86.111,391.667,911.111,47.222,N
680,0.035,0.625,-0.175,188.889,94.444,405.556,1280.556,369.444,N
681,0.015,0.520,-0.300,183.333,91.667,386.111,1111.111,169.444,N
682,0.155,-0.990,-0.225,38.889,0.000,325.000,1222.222,111.111,N
683,0.175,-0.855,-0.175,44.444,0.000,272.222,1055.556,166.667,N
684,0.020,0.405,-0.180,177.778,86.111,366.667,986.111,69.444,N
685,0.100,0.485,-0.165,161.111,72.222,372.222,980.556,5.556,N
686,0.035,0.725,-0.215,180.556,94.444,372.222,1022.222,41.667,N
687,-0.075,0.580,-0.230,175.000,97.222,375.000,997.222,25.000,N
688,-0.010,0.655,-0.215,191.667,91.667,397.222,1025.000,27.778,N
689,0.005,0.700,-0.225,180.556,83.333,375.000,1000.000,25.000,N
690,-0.055,0.685,-0.200,169.444,94.444,394.444,1344.444,344.444,N
691,-0.035,0.640,-0.200,191.667,80.556,375.000,650.000,694.444,A
692,0.035,0.765,-0.160,191.667,97.222,405.556,1327.778,677.778,N
693,0.150,0.715,-0.215,177.778,91.667,388.889,1433.333,105.556,N
694,-0.030,0.590,-0.345,191.667,86.111,375.000,1025.000,408.333,N
695,-0.245,0.265,-0.530,180.556,86.111,366.667,1094.444,69.444,N
696,-0.340,0.365,-0.595,169.444,94.444,405.556,1016.667,77.778,N
697,-0.260,0.535,-0.365,183.333,88.889,391.667,1016.667,0.000,N
698,-0.105,0.600,-0.305,197.222,88.889,386.111,1113.889,97.222,N
699,-0.055,0.550,-0.225,188.889,91.667,380.556,1086.111,27.778,N
700,0.005,0.645,-0.230,177.778,91.667,388.889,1041.667,44.444,N
701,0.005,0.660,-0.195,169.444,83.333,388.889,1008.333,33.333,N
702,0.040,0.710,-0.170,163.889,80.556,361.111,961.111,47.222,N
703,0.065,0.765,-0.110,186.111,88.889,394.444,1038.889,77.778,N
704,-0.040,0.800,-0.130,197.222,94.444,402.778,1608.333,569.444,N
705,-0.105,2.105,0.325,116.667,116.667,116.667,519.444,1088.889,V
706,-0.095,0.780,-0.040,61.111,88.889,361.111,775.000,255.556,N
707,0.150,0.795,-0.125,183.333,91.667,402.778,1088.889,313.889,N
708,0.070,0.740,-0.125,183.333,97.222,355.556,1150.000,61.111,N
709,0.050,0.845,-0.135,191.667,88.889,394.444,1094.444,55.556,N
710,0.080,0.810,-0.165,188.889,97.222,405.556,1105.556,11.111,N
711,0.070,0.785,-0.155,197.222,97.222,375.000,1150.000,44.444,N
712,0.075,0.780,-0.150,186.111,91.667,402.778,1069.444,80.556,N
713,0.065,0.735,-0.195,183.333,97.222,405.556,1044.444,25.000,N
714,0.095,0.765,-0.130,186.111,94.444,402.778,1055.556,11.111,N
715,0.100,0.750,-0.205,191.667,91.667,391.667,1086.111,30.556,N
716,0.055,0.720,-0.160,180.556,91.667,391.667,1072.222,13.889,N
717,0.115,0.805,-0.135,191.667,94.444,377.778,1030.556,41.667,N
718,0.110,0.835,-0.100,172.222,88.889,400.000,988.889,41.667,N
719,0.100,0.850,-0.175,175.000,88.889,397.222,988.889,0.000,N
720,0.105,0.785,-0.135,175.000,88.889,377.778,1283.333,294.444,N
721,0.080,0.840,-0.160,186.111,94.444,402.778,1230.556,52.778,N
722,0.135,0.760,-0.100,180.556,80.556,361.111,1130.556,100.000,N
723,0.070,0.785,-0.190,177.778,88.889,388.889,1072.222,58.333,N
724,0.090,0.815,-0.095,175.000,94.444,363.889,1013.889,58.333,N
725,0.295,-0.760,-0.090,61.111,2.778,305.556,1050.000,36.111,N
726,0.175,-0.620,0.240,50.000,5.556,225.000,1072.222,22.222,N
727,0.120,0.170,-0.140,177.778,83.333,136.111,1027.778,44.444,N
728,-0.095,0.650,-0.220,188.889,91.667,402.778,1052.778,25.000,N
729,0.265,0.820,-0.080,186.111,88.889,369.444,944.444,108.333,N
730,0.030,0.585,-0.200,172.222,86.111,397.222,1066.667,122.222,N
731,0.000,0.615,-0.160,177.778,86.111,388.889,1022.222,44.444,N
732,0.030,0.790,-0.300,197.222,94.444,388.889,1086.111,63.889,N
733,-0.030,0.690,-0.155,191.667,97.222,394.444,1066.667,19.444,N
734,0.055,0.705,-0.150,175.000,83.333,372.222,1002.778,63.889,N
735,-0.040,0.765,-0.205,163.889,88.889,397.222,977.778,25.000,N
736,0.000,0.740,-0.235,188.889,94.444,397.222,986.111,8.333,N
737,0.750,-0.745,-0.210,38.889,5.556,316.667,41.667,944.444,|
738,-0.055,0.710,-0.210,186.111,94.444,388.889,1191.667,1150.000,N
739,0.060,0.860,-0.185,186.111,94.444,391.667,1319.444,127.778,N
740,0.065,0.670,-0.160,180.556,88.889,375.000,1238.889,80.556,N
741,0.060,0.715,-0.200,163.889,94.444,397.222,1072.222,166.667,N
742,0.055,0.790,-0.150,177.778,94.444,394.444,1061.111,11.111,N
743,0.110,0.705,-0.100,183.333,88.889,361.111,1102.778,41.667,N
744,0.075,0.730,-0.130,194.444,91.667,400.000,1130.556,27.778,N
745,0.100,0.750,-0.100,188.889,94.444,405.556,1094.444,36.111,N
746,0.115,0.730,-0.100,186.111,83.333,391.667,1083.333,11.111,N
747,0.095,0.790,-0.150,172.222,80.556,375.000,1033.333,50.000,N
748,0.095,0.830,-0.145,180.556,88.889,363.889,1005.556,27.778,N
749,0.050,0.705,-0.210,197.222,91.667,388.889,1097.222,91.667,N
750,0.000,0.630,-0.240,186.111,88.889,391.667,1083.333,13.889,N
751,-0.085,0.720,-0.290,188.889,94.444,388.889,1077.778,5.556,N
752,-0.015,0.650,-0.190,163.889,88.889,372.222,1022.222,55.556,N
753,0.005,0.640,-0.170,175.000,86.111,391.667,1013.889,8.333,N
754,0.070,0.855,-0.135,177.778,83.333,386.111,1022.222,8.333,N
755,0.085,0.770,-0.265,194.444,94.444,375.000,1069.444,47.222,N
756,-0.130,0.450,-0.260,183.333,88.889,369.444,1058.333,11.111,N
757,0.015,0.635,-0.220,180.556,83.333,358.333,983.333,75.000,N
758,-0.025,0.480,-0.130,177.778,86.111,352.778,1088.889,105.556,N
759,0.145,0.505,-0.055,161.111,97.222,402.778,1163.889,75.000,N
760,0.105,0.600,-0.065,180.556,97.222,391.667,1122.222,41.667,N
761,0.205,0.560,-0.050,186.111,91.667,397.222,1055.556,66.667,N
762,0.095,0.500,-0.140,172.222,91.667,391.667,1055.556,0.000,N
763,0.025,0.625,-0.275,163.889,83.333,372.222,983.333,72.222,N
764,-0.010,0.745,-0.170,175.000,91.667,380.556,963.889,19.444,N
765,0.035,0.900,-0.160,180.556,94.444,391.667,988.889,25.000,N
766,0.085,0.755,-0.145,186.111,88.889,391.667,972.222,16.667,N
767,0.040,0.610,-0.160,169.444,83.333,377.778,1041.667,69.444,N
768,0.045,0.850,-0.170,186.111,91.667,400.000,1052.778,11.111,N
769,0.100,0.690,-0.130,172.222,83.333,358.333,1002.778,50.000,N
770,0.035,0.810,-0.100,166.667,91.667,369.444,977.778,25.000,N
771,0.110,0.375,-0.025,186.111,91.667,347.222,991.667,13.889,N
772,0.420,-0.635,0.075,58.333,0.000,269.444,1066.667,75.000,N
773,0.155,-0.845,0.105,197.222,5.556,222.222,1002.778,63.889,N
774,0.010,-0.925,-0.075,194.444,5.556,244.444,1030.556,27.778,N
775,-0.125,-0.935,-0.140,197.222,0.000,236.111,1022.222,8.333,N
776,-0.120,-0.925,-0.085,197.222,2.778,222.222,977.778,44.444,N
777,-0.530,-1.570,-0.485,194.444,8.333,258.333,966.667,11.111,N
778,0.105,-0.725,0.220,50.000,8.333,269.444,1072.222,105.556,N
779,0.320,-0.575,0.360,191.667,5.556,252.778,1080.556,8.333,N
780,0.215,-0.615,0.295,197.222,2.778,227.778,1075.000,5.556,N
781,0.225,-0.670,0.195,194.444,2.778,252.778,1008.333,66.667,N
782,0.130,-0.755,0.125,180.556,5.556,255.556,1011.111,2.778,N
783,0.095,-0.860,0.045,44.444,2.778,238.889,983.333,27.778,N
784,-0.045,-0.845,0.050,197.222,8.333,269.444,1036.111,52.778,N
785,-0.045,-0.900,0.025,50.000,5.556,250.000,1075.000,38.889,N
786,-0.015,-0.920,0.030,191.667,5.556,241.667,1172.222,97.222,N
787,-0.005,-0.940,0.000,197.222,5.556,252.778,1186.111,13.889,N
788,-0.025,-0.945,0.030,191.667,2.778,238.889,1113.889,72.222,N
789,-0.015,-0.960,-0.015,194.444,5.556,244.444,1077.778,36.111,N
790,-0.150,-1.015,-0.015,55.556,2.778,258.333,1116.667,38.889,N
791,-0.065,-0.945,0.030,197.222,8.333,269.444,1125.000,8.333,N
792,-0.170,-0.020,-0.485,163.889,80.556,347.222,1011.111,113.889,N
793,-0.120,0.740,-0.095,177.778,88.889,400.000,961.111,50.000,N
794,0.260,0.910,0.045,188.889,91.667,400.000,1133.333,172.222,N
795,0.230,0.825,-0.035,186.111,86.111,388.889,1141.667,8.333,N
796,0.105,0.760,-0.110,197.222,94.444,405.556,1108.333,33.333,N
797,0.070,0.600,-0.155,183.333,83.333,375.000,1097.222,11.111,N
798,0.050,0.575,-0.150,180.556,91.667,355.556,1044.444,52.778,N
799,0.025,0.520,-0.205,166.667,77.778,375.000,1013.889,30.556,N
800,0.000,0.530,-0.255,183.333,97.222,388.889,1055.556,41.667,N
801,-0.105,0.510,-0.345,191.667,94.444,394.444,1058.333,2.778,N
802,-0.095,0.525,-0.250,183.333,94.444,375.000,1000.000,58.333,N
803,-0.015,0.645,-0.155,180.556,97.222,375.000,1052.778,52.778,N
804,0.105,0.700,-0.090,163.889,86.111,369.444,1030.556,22.222,N
805,0.125,0.775,-0.120,175.000,91.667,400.000,1541.667,511.111,N
806,-0.010,0.645,-0.200,197.222,94.444,402.778,791.667,750.000,N
807,0.000,0.520,-0.295,188.889,91.667,391.667,1161.111,369.444,N
808,-0.085,0.575,-0.295,180.556,94.444,405.556,1108.333,52.778,N
809,-0.085,0.480,-0.325,180.556,91.667,372.222,1113.889,5.556,N
810,-0.120,0.505,-0.295,161.111,83.333,386.111,1025.000,88.889,N
811,-0.045,0.565,-0.250,194.444,97.222,405.556,1058.333,33.333,N
812,-0.075,0.425,-0.335,197.222,94.444,383.333,1097.222,38.889,N
813,-0.065,0.480,-0.300,175.000,88.889,397.222,1077.778,19.444,N
814,0.015,0.565,-0.165,169.444,83.333,372.222,1013.889,63.889,N
815,0.015,0.645,-0.215,188.889,94.444,405.556,1019.444,5.556,N
816,0.005,0.615,-0.375,183.333,91.667,377.778,1002.778,16.667,N
817,-0.175,0.505,-0.370,188.889,88.889,394.444,994.444,8.333,N
818,-0.055,0.730,-0.200,188.889,88.889,400.000,1030.556,36.111,N
819,-0.015,0.705,-0.095,188.889,94.444,405.556,1255.556,225.000,N
820,0.210,0.445,0.115,161.111,91.667,316.667,1211.111,44.444,N
821,0.170,0.330,-0.070,188.889,97.222,375.000,1152.778,58.333,N
822,0.045,0.135,-0.165,158.333,88.889,336.111,1111.111,41.667,N
823,0.270,-0.630,-0.110,58.333,11.111,305.556,1144.444,33.333,N
824,0.350,-0.570,-0.030,61.111,11.111,275.000,1125.000,19.444,N
825,0.355,-0.545,-0.030,55.556,13.889,236.111,1077.778,47.222,N
826,0.250,-0.655,-0.105,55.556,5.556,241.667,1038.889,38.889,N
827,0.080,0.135,-0.065,169.444,75.000,327.778,1013.889,25.000,N
828,0.255,-0.555,-0.065,58.333,13.889,275.000,1175.000,161.111,N
829,0.320,-0.570,-0.090,58.333,11.111,263.889,1088.889,86.111,N
830,0.255,-0.560,-0.040,58.333,13.889,277.778,1077.778,11.111,N
831,0.285,-0.605,-0.055,55.556,16.667,258.333,1080.556,2.778,N
832,0.285,-0.555,-0.050,55.556,13.889,213.889,1011.111,69.444,N
833,0.255,-0.550,-0.035,58.333,13.889,266.667,1088.889,77.778,N
834,0.265,-0.630,-0.105,61.111,5.556,258.333,1113.889,25.000,N
835,0.245,-0.595,-0.090,55.556,11.111,250.000,1088.889,25.000,N
836,0.030,0.075,-0.065,152.778,91.667,363.889,1013.889,75.000,N
837,0.235,-0.600,-0.110,58.333,13.889,252.778,1130.556,116.667,N
838,0.235,-0.555,-0.055,58.333,11.111,238.889,1033.333,97.222,N
839,0.210,-0.575,-0.045,61.111,16.667,277.778,1102.778,69.444,N
840,0.060,0.115,-0.050,169.444,86.111,369.444,1105.556,2.778,N
841,0.275,-0.585,0.005,58.333,5.556,244.444,1116.667,11.111,N
842,0.250,-0.605,-0.035,50.000,11.111,236.111,1052.778,63.889,N
843,0.255,-0.625,-0.065,55.556,13.889,286.111,1022.222,30.556,N
844,0.265,-0.605,-0.005,52.778,11.111,247.222,1052.778,30.556,N
845,0.230,-0.605,-0.090,61.111,13.889,258.333,1075.000,22.222,N
846,0.180,-0.665,-0.095,55.556,13.889,288.889,1113.889,38.889,N
847,0.210,-0.650,-0.100,50.000,2.778,230.556,1041.667,72.222,N
848,0.070,-0.825,-0.260,55.556,2.778,227.778,1036.111,5.556,N
849,-0.020,-0.910,-0.350,52.778,2.778,233.333,1025.000,11.111,N
850,-0.160,-0.965,-0.465,52.778,16.667,227.778,1061.111,36.111,N
851,-0.325,-0.280,-0.295,172.222,72.222,325.000,1047.222,13.889,N
852,0.140,-0.720,-0.110,61.111,5.556,277.778,1166.667,119.444,N
853,0.285,-0.555,0.065,52.778,13.889,233.333,1058.333,108.333,N
854,0.195,0.240,0.105,150.000,97.222,358.333,966.667,91.667,N
855,0.410,-0.490,0.070,58.333,13.889,272.222,1116.667,150.000,N
856,0.345,-0.530,0.050,58.333,13.889,261.111,1075.000,41.667,N
857,-0.040,0.400,0.100,180.556,86.111,388.889,522.222,552.778,V
858,-0.030,0.065,-0.100,50.000,91.667,316.667,330.556,191.667,x
859,0.215,-0.690,-0.105,58.333,2.778,283.333,1283.333,952.778,N
860,0.200,-0.700,-0.045,55.556,2.778,258.333,1061.111,222.222,N
861,0.170,-0.640,-0.045,52.778,11.111,233.333,991.667,69.444,N
862,0.215,-0.725,-0.080,52.778,2.778,230.556,1019.444,27.778,N
863,0.140,-0.700,-0.070,55.556,0.000,280.556,1058.333,38.889,N
864,0.125,-0.685,-0.115,55.556,13.889,261.111,1075.000,16.667,N
865,0.070,-0.835,-0.135,50.000,2.778,258.333,1016.667,58.333,N
866,0.130,-0.735,-0.075,52.778,2.778,230.556,983.333,33.333,N
867,0.140,-0.735,-0.095,50.000,2.778,233.333,1002.778,19.444,N
868,0.150,-0.740,-0.090,52.778,2.778,272.222,1036.111,33.333,N
869,0.195,-0.655,-0.010,55.556,2.778,266.667,1422.222,386.111,N
870,0.235,-0.695,-0.030,55.556,2.778,233.333,1286.111,136.111,N
871,0.200,-0.730,-0.040,52.778,2.778,241.667,1122.222,163.889,N
872,0.210,-0.755,-0.040,47.222,2.778,241.667,1100.000,22.222,N
873,0.195,-0.645,-0.020,50.000,2.778,244.444,1050.000,50.000,N
874,0.225,-0.680,-0.075,55.556,2.778,266.667,1105.556,55.556,N
875,0.180,-0.690,-0.080,52.778,2.778,250.000,1113.889,8.333,N
876,0.175,-0.825,-0.105,50.000,0.000,233.333,1083.333,30.556,N
877,0.140,-0.700,-0.020,50.000,2.778,238.889,997.222,86.111,N
878,-0.230,-1.020,0.045,58.333,0.000,272.222,1063.889,66.667,N
879,-0.125,1.955,2.365,930425.000,0.000,930372.222,1055.556,8.333,N
880,1.320,0.855,1.025,194.444,2.778,41.667,1058.333,2.778,N
881,0.215,-0.350,0.010,197.222,2.778,33.333,1077.778,19.444,N
882,-0.375,-1.160,-0.720,58.333,5.556,69.444,1033.333,44.444,N
883,-0.925,-0.465,-0.125,175.000,88.889,-934480.556,936.111,97.222,N
884,-0.125,-0.310,-0.125,935500.000,86.111,-935447.222,969.444,33.333,N
885,-0.960,-0.240,-0.125,188.889,91.667,-936491.667,1044.444,75.000,N
886,-0.640,0.310,-0.685,188.889,94.444,402.778,1316.667,272.222,N
887,-0.265,0.445,-0.375,169.444,88.889,391.667,1219.444,97.222,N
888,-0.065,0.825,-0.180,180.556,91.667,397.222,1163.889,55.556,N
889,0.120,0.780,-0.115,175.000,86.111,394.444,1116.667,47.222,N
890,0.110,0.865,-0.130,197.222,97.222,402.778,1111.111,5.556,N
891,0.130,0.945,-0.120,191.667,88.889,394.444,1155.556,44.444,N
892,0.190,0.925,-0.065,186.111,97.222,391.667,1091.667,63.889,N
893,0.140,1.005,-0.055,163.889,86.111,388.889,1061.111,30.556,N
894,0.260,0.935,0.000,186.111,97.222,402.778,1025.000,36.111,N
895,0.165,0.930,-0.090,186.111,94.444,402.778,1066.667,41.667,N
896,0.175,0.935,-0.065,191.667,97.222,405.556,1044.444,22.222,N
897,0.140,0.855,-0.145,188.889,91.667,402.778,1125.000,80.556,N
898,0.160,0.870,-0.060,175.000,91.667,397.222,1019.444,105.556,N
899,0.100,0.850,-0.195,180.556,91.667,388.889,1036.111,16.667,N
900,0.115,0.810,-0.110,175.000,83.333,394.444,991.667,44.444,N
901,0.115,0.730,-0.190,186.111,97.222,405.556,1047.222,55.556,N
902,-0.030,0.710,-0.290,194.444,94.444,388.889,1061.111,13.889,N
903,-0.070,0.785,-0.165,197.222,94.444,386.111,1055.556,5.556,N
904,0.075,0.690,-0.200,175.000,86.111,361.111,1083.333,27.778,N
905,-0.170,0.625,-0.330,186.111,91.667,391.667,1494.444,411.111,N
906,-0.240,0.285,-0.680,191.667,100.000,391.667,1233.333,261.111,N
907,-0.405,0.280,-0.520,194.444,88.889,394.444,1191.667,41.667,N
908,-0.110,0.590,-0.195,191.667,97.222,400.000,1097.222,94.444,N
909,0.110,0.815,-0.065,166.667,88.889,388.889,1127.778,30.556,N
910,0.290,0.840,0.020,177.778,88.889,386.111,1008.333,119.444,N
911,0.380,1.110,0.280,166.667,83.333,394.444,1025.000,16.667,N
912,0.710,1.425,0.500,194.444,97.222,397.222,1086.111,61.111,N
913,0.705,1.310,0.360,188.889,91.667,397.222,1086.111,0.000,N
914,0.510,1.185,0.210,194.444,91.667,397.222,1069.444,16.667,N
915,0.320,0.855,0.010,172.222,86.111,377.778,1047.222,22.222,N
916,0.125,0.755,-0.200,163.889,91.667,391.667,1005.556,41.667,N
917,0.135,0.770,-0.110,194.444,86.111,394.444,1011.111,5.556,N
918,0.080,0.665,-0.225,191.667,91.667,391.667,1069.444,58.333,N
919,-0.005,0.675,-0.185,180.556,91.667,402.778,1100.000,30.556,N
920,0.075,0.695,-0.160,175.000,91.667,380.556,1036.111,63.889,N
921,0.020,0.695,-0.230,183.333,97.222,402.778,1083.333,47.222,N
922,0.015,0.500,-0.425,177.778,77.778,369.444,1013.889,69.444,N
923,0.090,0.730,-0.005,186.111,94.444,402.778,1038.889,25.000,N
924,0.155,0.765,-0.180,197.222,97.222,380.556,1091.667,52.778,N
925,0.060,0.650,-0.190,197.222,86.111,383.333,1083.333,8.333,N
926,-0.015,0.655,-0.215,175.000,94.444,388.889,1038.889,44.444,N
927,0.050,0.705,-0.185,183.333,91.667,388.889,1011.111,27.778,N
928,0.045,0.630,-0.245,183.333,86.111,391.667,1055.556,44.444,N
929,0.005,0.680,-0.210,197.222,88.889,388.889,1075.000,19.444,N
930,0.040,0.610,-0.210,180.556,88.889,394.444,1097.222,22.222,N
931,0.030,0.655,-0.240,194.444,91.667,388.889,1136.111,38.889,N
932,0.030,0.720,-0.165,180.556,88.889,383.333,1038.889,97.222,N
933,0.035,0.630,-0.245,175.000,83.333,391.667,1036.111,2.778,N
934,0.015,0.640,-0.200,188.889,94.444,377.778,1072.222,36.111,N
935,0.055,0.630,-0.140,186.111,88.889,391.667,1094.444,22.222,N
936,0.025,0.695,-0.160,186.111,91.667,352.778,1097.222,2.778,N
937,0.150,0.835,0.060,188.889,86.111,391.667,1036.111,61.111,N
938,0.310,0.890,0.065,175.000,91.667,375.000,1038.889,2.778,N
939,0.235,0.800,-0.085,177.778,91.667,394.444,1080.556,41.667,N
940,0.125,0.730,-0.155,191.667,88.889,394.444,1100.000,19.444,N
941,0.025,0.570,-0.300,180.556,94.444,388.889,1119.444,19.444,N
942,-0.150,0.550,-0.295,197.222,88.889,388.889,1150.000,30.556,N
943,0.140,0.820,0.050,172.222,83.333,361.111,1038.889,111.111,N
944,0.315,0.860,0.025,169.444,86.111,372.222,1069.444,30.556,N
945,0.100,0.645,-0.360,183.333,94.444,405.556,1111.111,41.667,N
946,-0.185,0.495,-0.380,197.222,97.222,388.889,1083.333,27.778,N
947,-0.110,0.535,-0.355,183.333,97.222,380.556,1116.667,33.333,N
948,-0.110,0.660,-0.235,183.333,94.444,388.889,1116.667,0.000,N
949,0.085,0.730,-0.165,188.889,88.889,372.222,1058.333,58.333,N
950,0.020,0.685,-0.215,172.222,86.111,397.222,1091.667,33.333,N
951,0.035,0.760,-0.210,186.111,86.111,377.778,1033.333,58.333,N
952,-0.035,0.630,-0.230,197.222,91.667,388.889,1130.556,97.222,N
953,0.000,0.715,-0.210,197.222,86.111,369.444,1113.889,16.667,N
954,0.035,0.460,-0.170,172.222,75.000,361.111,1041.667,72.222,N
955,0.035,0.645,-0.210,180.556,88.889,400.000,1033.333,8.333,N
956,0.065,0.695,-0.120,191.667,97.222,402.778,1044.444,11.111,N
957,0.095,0.785,-0.100,197.222,91.667,388.889,1063.889,19.444,N
958,0.120,0.765,-0.010,197.222,94.444,386.111,1066.667,2.778,N
959,0.325,0.830,-0.015,175.000,86.111,377.778,1088.889,22.222,N
960,0.040,0.505,-0.160,166.667,94.444,380.556,1008.333,80.556,N
961,0.515,1.150,0.450,191.667,80.556,355.556,991.667,16.667,N
962,1.110,-0.200,0.380,30.556,2.778,269.444,1041.667,50.000,N
963,0.290,-0.805,-0.390,41.667,2.778,286.111,1047.222,5.556,N
964,-0.330,0.015,-0.530,177.778,77.778,380.556,961.111,86.111,N
965,0.115,-1.025,-0.410,44.444,2.778,308.333,1086.111,125.000,N
966,-0.260,0.210,-0.370,175.000,83.333,369.444,961.111,125.000,N
967,-0.125,0.310,-0.245,177.778,94.444,391.667,994.444,33.333,N
968,-0.120,0.440,-0.345,188.889,94.444,391.667,1286.111,291.667,N
969,-0.010,0.365,-0.290,183.333,88.889,369.444,1222.222,63.889,N
970,0.120,-0.645,0.040,58.333,2.778,336.111,1125.000,97.222,N
971,0.140,0.030,-0.065,163.889,88.889,297.222,983.333,141.667,N
972,0.120,-0.665,-0.080,58.333,13.889,302.778,1094.444,111.111,N
973,0.215,-0.660,0.040,58.333,0.000,261.111,1027.778,66.667,N
974,0.160,-0.565,0.015,41.667,11.111,211.111,1094.444,66.667,N
975,0.250,-0.460,0.145,63.889,5.556,344.444,1122.222,27.778,N
976,0.125,-0.685,-0.140,61.111,2.778,69.444,1080.556,41.667,N
977,-0.125,-1.670,-0.800,1036047.222,5.556,333.333,1002.778,77.778,N
978,0.165,-0.480,0.410,61.111,0.000,302.778,1041.667,38.889,N
979,0.590,-0.170,0.475,58.333,2.778,208.333,1005.556,36.111,N
980,0.550,-0.225,0.440,52.778,2.778,333.333,1075.000,69.444,N
981,0.545,-0.260,0.365,61.111,11.111,194.444,1063.889,11.111,N
982,0.330,-0.490,0.150,52.778,2.778,233.333,1022.222,41.667,N
983,0.105,-0.665,0.020,186.111,2.778,230.556,963.889,58.333,N
984,-0.030,-0.740,-0.070,38.889,2.778,211.111,986.111,22.222,N
985,-0.040,-0.750,-0.165,58.333,8.333,244.444,1063.889,77.778,N
986,-0.205,-0.830,-0.120,58.333,11.111,266.667,1161.111,97.222,N
987,-0.220,-0.940,-0.200,63.889,2.778,255.556,1072.222,88.889,N
988,-0.075,-0.910,-0.150,197.222,0.000,258.333,1019.444,52.778,N
989,-0.035,-0.870,-0.165,191.667,2.778,247.222,947.222,72.222,N
990,-0.180,-0.905,-0.205,197.222,2.778,286.111,944.444,2.778,N
991,-0.170,-1.000,-0.265,197.222,8.333,250.000,983.333,38.889,N
992,-0.105,-0.845,-0.045,197.222,0.000,308.333,975.000,8.333,N
993,0.095,-0.545,0.105,58.333,22.222,266.667,972.222,2.778,N
994,0.030,-0.705,0.010,50.000,0.000,230.556,947.222,25.000,N
995,0.095,-0.765,-0.020,191.667,0.000,211.111,947.222,0.000,N
996,0.105,-0.760,-0.095,197.222,13.889,213.889,922.222,25.000,N
997,-0.080,-0.850,-0.165,61.111,2.778,294.444,958.333,36.111,N
998,-0.040,-0.930,-0.230,63.889,0.000,286.111,975.000,16.667,N
999,-0.170,-1.025,-0.355,44.444,2.778,291.667,950.000,25.000,N
1000,-0.025,-0.840,-0.100,61.111,0.000,250.000,936.111,13.889,N
1001,0.280,-0.590,0.080,38.889,0.000,233.333,913.889,22.222,N
1002,0.300,-0.595,0.055,30.556,2.778,213.889,900.000,13.889,N
1003,0.080,-0.840,-0.060,38.889,0.000,250.000,897.222,2.778,N
1004,0.125,-0.820,-0.095,38.889,0.000,247.222,947.222,50.000,N
1005,0.240,-0.630,0.095,41.667,2.778,288.889,1002.778,55.556,N
1006,0.295,-0.605,0.095,58.333,2.778,238.889,961.111,41.667,N
1007,0.440,-0.585,0.030,33.333,2.778,258.333,950.000,11.111,N
1008,0.230,-0.610,0.035,38.889,0.000,230.556,927.778,22.222,N
1009,0.290,-0.745,-0.290,38.889,0.000,258.333,950.000,22.222,N
1010,0.065,-0.855,-0.335,30.556,2.778,263.889,947.222,2.778,N
1011,0.070,-0.925,-0.205,66.667,0.000,236.111,977.778,30.556,N
1012,-0.290,-1.140,-0.450,197.222,0.000,208.333,972.222,5.556,N
1013,-0.280,-1.290,-0.485,61.111,2.778,272.222,911.111,61.111,N
1014,-0.245,-1.020,-0.415,61.111,11.111,302.778,902.778,8.333,N
1015,0.035,-0.760,-0.025,61.111,2.778,230.556,888.889,13.889,N
1016,0.450,-0.485,0.155,41.667,0.000,255.556,941.667,52.778,N
1017,0.570,-0.470,0.150,66.667,0.000,288.889,930.556,11.111,N
1018,0.450,-0.540,-0.075,38.889,0.000,180.556,944.444,13.889,N
1019,-0.040,-1.110,-0.660,30.556,0.000,302.778,941.667,2.778,N
1020,-0.280,-0.080,-0.180,161.111,88.889,352.778,844.444,97.222,N
1021,0.445,-0.565,0.075,63.889,2.778,350.000,888.889,44.444,N
1022,0.540,-0.475,0.120,30.556,0.000,266.667,866.667,22.222,N
1023,0.450,-0.690,0.015,38.889,2.778,283.333,911.111,44.444,N
1024,0.055,-0.690,-0.125,63.889,0.000,275.000,900.000,11.111,N
1025,0.180,-0.690,-0.090,61.111,0.000,183.333,891.667,8.333,N
1026,0.320,-0.730,-0.060,33.333,0.000,325.000,916.667,25.000,N
1027,0.305,-0.600,-0.065,52.778,2.778,300.000,883.333,33.333,N
1028,0.075,0.225,-0.205,175.000,83.333,330.556,836.111,47.222,N
1029,0.240,-0.795,-0.130,36.111,0.000,275.000,952.778,116.667,N
1030,0.250,-0.825,-0.210,41.667,11.111,222.222,969.444,16.667,N
1031,0.305,-0.655,-0.085,36.111,2.778,322.222,1000.000,30.556,N
1032,0.245,-0.680,-0.060,36.111,0.000,263.889,938.889,61.111,N
1033,0.065,-0.920,-0.240,44.444,0.000,275.000,938.889,0.000,N
1034,0.265,-0.895,-0.145,30.556,2.778,308.333,902.778,36.111,N
1035,0.115,-1.275,0.275,147.222,0.000,233.333,811.111,91.667,F
1036,-0.125,-1.785,0.460,194.444,2.778,261.111,580.556,230.556,V
1037,0.270,0.240,0.460,61.111,61.111,136.111,177.778,402.778,x
1038,0.200,-0.670,-0.195,30.556,2.778,333.333,1113.889,936.111,N
1039,0.255,-0.845,-0.250,30.556,0.000,269.444,913.889,200.000,N
1040,0.320,-0.755,-0.180,36.111,2.778,244.444,855.556,58.333,N
1041,0.020,0.185,-0.230,166.667,83.333,330.556,783.333,72.222,N
1042,-0.090,0.265,-0.195,183.333,88.889,352.778,866.667,83.333,N
1043,0.310,-0.680,-0.100,36.111,0.000,266.667,869.444,2.778,N
1044,0.285,-0.810,-0.210,30.556,2.778,294.444,841.667,27.778,N
1045,0.235,-0.735,-0.145,36.111,2.778,286.111,886.111,44.444,N
1046,0.245,-0.765,-0.280,44.444,2.778,277.778,880.556,5.556,N
1047,-0.085,0.255,-0.260,169.444,83.333,322.222,858.333,22.222,N
1048,-0.035,0.380,-0.180,166.667,88.889,350.000,847.222,11.111,N
1049,0.040,0.490,-0.140,188.889,88.889,338.889,833.333,13.889,N
1050,-0.030,0.320,-0.215,191.667,80.556,333.333,877.778,44.444,N
1051,0.015,0.300,-0.085,180.556,80.556,311.111,902.778,25.000,N
1052,0.310,-0.705,-0.100,33.333,2.778,294.444,983.333,80.556,N
1053,0.230,-0.705,-0.105,41.667,0.000,297.222,958.333,25.000,N
1054,0.025,0.440,-0.085,180.556,91.667,388.889,922.222,36.111,N
1055,0.150,0.385,-0.105,172.222,83.333,338.889,908.333,13.889,N
1056,-0.020,0.255,-0.210,169.444,91.667,377.778,872.222,36.111,N
1057,0.425,-0.640,-0.060,30.556,0.000,302.778,972.222,100.000,N
1058,-0.060,-0.270,0.035,141.667,50.000,275.000,444.444,527.778,|
1059,0.455,-0.645,-0.055,30.556,2.778,286.111,508.333,63.889,N
1060,0.450,-0.575,-0.020,30.556,2.778,258.333,894.444,386.111,N
1061,0.095,0.270,-0.240,172.222,80.556,341.667,938.889,44.444,N
1062,-0.175,0.205,-0.275,172.222,83.333,358.333,969.444,30.556,N
1063,-0.110,0.230,-0.225,163.889,88.889,391.667,888.889,80.556,N
1064,-0.045,0.230,-0.215,169.444,80.556,369.444,977.778,88.889,N
1065,0.185,-0.825,-0.265,38.889,0.000,297.222,1047.222,69.444,N
1066,0.405,-0.800,-0.170,33.333,0.000,291.667,1019.444,27.778,N
1067,0.040,0.490,-0.085,186.111,83.333,355.556,913.889,105.556,N
1068,0.085,0.425,-0.095,169.444,83.333,375.000,952.778,38.889,N
1069,0.125,0.420,-0.085,163.889,80.556,358.333,927.778,25.000,N
1070,0.040,0.315,-0.090,163.889,83.333,366.667,958.333,30.556,N
1071,0.285,-0.685,-0.120,44.444,0.000,266.667,1005.556,47.222,N
1072,0.180,-0.745,-0.155,47.222,0.000,255.556,1027.778,22.222,N
1073,0.240,-0.745,-0.120,38.889,2.778,277.778,1011.111,16.667,N
1074,-0.020,0.305,-0.130,177.778,94.444,361.111,875.000,136.111,N
1075,0.125,0.440,-0.040,163.889,77.778,325.000,902.778,27.778,N
1076,-0.040,-0.285,0.065,161.111,33.333,288.889,477.778,425.000,|
1077,0.480,-0.695,0.000,36.111,0.000,338.889,497.222,19.444,N
1078,0.225,0.545,0.030,175.000,86.111,372.222,883.333,386.111,N
1079,0.375,-0.595,-0.080,36.111,0.000,313.889,1297.222,413.889,N
1080,0.425,-0.715,-0.090,33.333,0.000,300.000,1025.000,272.222,N
1081,0.105,0.425,-0.150,175.000,91.667,372.222,966.667,58.333,N
1082,0.165,0.440,-0.050,166.667,88.889,358.333,944.444,22.222,N
1083,0.165,-0.885,-0.275,50.000,0.000,311.111,1413.889,469.444,N
1084,0.260,-0.795,-0.190,44.444,0.000,305.556,1138.889,275.000,N
1085,0.215,-0.780,-0.225,47.222,2.778,297.222,1041.667,97.222,N
1086,0.265,-0.800,-0.220,44.444,0.000,305.556,1038.889,2.778,N
1087,-0.290,0.020,-0.620,175.000,94.444,375.000,886.111,152.778,N
1088,-0.245,0.130,-0.285,163.889,97.222,388.889,905.556,19.444,N
1089,0.035,0.370,-0.055,158.333,86.111,388.889,952.778,47.222,N
1090,0.395,-0.780,-0.230,33.333,0.000,316.667,1125.000,172.222,N
1091,0.210,-0.735,-0.185,38.889,0.000,291.667,1027.778,97.222,N
1092,0.315,-0.655,-0.100,41.667,2.778,327.778,1233.333,205.556,N
1093,0.365,-0.620,-0.130,33.333,0.000,269.444,944.444,288.889,N
1094,-0.095,0.220,-0.350,166.667,94.444,388.889,961.111,16.667,N
1095,0.475,-0.615,0.045,41.667,0.000,344.444,1027.778,66.667,N
1096,0.645,-0.380,0.215,47.222,0.000,305.556,1102.778,75.000,N
1097,0.185,0.615,0.015,186.111,97.222,391.667,1541.667,438.889,N
1098,0.440,-0.560,-0.030,52.778,0.000,288.889,1236.111,305.556,N
1099,0.445,-0.685,-0.090,44.444,0.000,302.778,1155.556,80.556,N
1100,0.335,-0.650,-0.080,41.667,0.000,336.111,1069.444,86.111,N
1101,0.405,-0.600,-0.055,47.222,2.778,319.444,1088.889,19.444,N
1102,0.360,-0.685,-0.135,41.667,0.000,325.000,1069.444,19.444,N
1103,0.045,0.375,-0.165,169.444,83.333,369.444,930.556,138.889,N
1104,-0.005,0.295,-0.215,166.667,83.333,388.889,994.444,63.889,N
1105,0.445,-0.690,-0.200,30.556,0.000,319.444,1250.000,255.556,N
1106,0.225,-0.960,-0.170,36.111,0.000,311.111,961.111,288.889,N
1107,0.410,-0.600,0.040,30.556,0.000,319.444,1069.444,108.333,N
1108,-0.125,-0.690,-0.795,1160683.333,97.222,405.556,1213.889,144.444,N
1109,0.645,-0.340,0.065,33.333,0.000,230.556,977.778,236.111,N
1110,0.170,-0.665,-0.215,63.889,0.000,250.000,1058.333,80.556,N
1111,-0.005,-0.750,-0.140,41.667,0.000,272.222,1069.444,11.111,N
1112,0.240,-0.630,-0.115,61.111,2.778,286.111,1094.444,25.000,N
1113,0.255,-0.690,-0.040,61.111,0.000,277.778,1119.444,25.000,N
1114,0.380,-0.385,0.220,41.667,0.000,252.778,1063.889,55.556,N
1115,1.110,0.100,1.030,30.556,2.778,291.667,1030.556,33.333,N
1116,1.140,1.145,0.620,169.444,83.333,219.444,916.667,113.889,N
1117,0.285,-0.850,-0.195,33.333,0.000,222.222,1130.556,213.889,N
1118,0.880,-0.190,0.365,44.444,0.000,347.222,1158.333,27.778,N
1119,0.440,-0.635,-0.180,33.333,2.778,280.556,1355.556,197.222,N
1120,0.090,-0.950,-0.380,44.444,0.000,291.667,1019.444,336.111,N
1121,0.135,-0.960,-0.350,41.667,0.000,322.222,1102.778,83.333,N
1122,0.065,-0.935,-0.345,44.444,0.000,297.222,1094.444,8.333,N
1123,0.205,-0.925,-0.325,30.556,2.778,338.889,1141.667,47.222,N
1124,0.130,-0.935,-0.325,41.667,0.000,308.333,1080.556,61.111,N
1125,0.170,-0.955,-0.355,44.444,0.000,288.889,1083.333,2.778,N
1126,0.220,-0.885,-0.290,33.333,2.778,302.778,988.889,94.444,N
1127,0.160,-0.910,-0.300,41.667,0.000,319.444,1063.889,75.000,N
1128,0.290,-0.930,-0.260,33.333,0.000,338.889,1063.889,0.000,N
1129,0.275,-0.805,-0.215,36.111,2.778,313.889,1091.667,27.778,N
1130,0.025,0.335,-0.185,172.222,88.889,388.889,1188.889,97.222,N
1131,0.465,-0.615,-0.015,36.111,2.778,330.556,1711.111,522.222,N
1132,0.760,-0.405,0.220,30.556,0.000,297.222,1011.111,700.000,N
1133,0.380,-0.745,-0.290,44.444,0.000,38.889,1144.444,133.333,N
1134,-0.355,0.005,-0.505,186.111,97.222,405.556,1111.111,33.333,N
1135,0.345,-0.760,-0.160,44.444,0.000,311.111,1169.444,58.333,N
1136,0.320,-0.765,-0.265,41.667,2.778,258.333,1050.000,119.444,N
1137,-0.125,-1.760,-0.775,1192766.667,88.889,402.778,991.667,58.333,N
1138,0.490,0.885,0.365,183.333,91.667,388.889,1030.556,38.889,N
1139,0.430,0.850,0.225,197.222,94.444,388.889,1136.111,105.556,N
1140,0.695,-0.410,0.080,36.111,0.000,294.444,1075.000,61.111,N
1141,0.135,0.365,-0.190,186.111,83.333,355.556,1080.556,5.556,N
1142,-0.405,0.125,-0.430,194.444,86.111,372.222,1505.556,425.000,N
1143,0.210,-0.865,-0.260,36.111,0.000,327.778,1344.444,161.111,N
1144,0.160,-0.985,-0.380,36.111,0.000,311.111,1230.556,113.889,N
1145,0.145,-0.935,-0.160,41.667,0.000,341.667,1094.444,136.111,N
1146,0.490,-0.615,0.055,41.667,0.000,319.444,1050.000,44.444,N
1147,0.085,0.565,-0.030,175.000,97.222,355.556,1025.000,25.000,N
1148,0.145,0.440,-0.080,183.333,80.556,375.000,1000.000,25.000,N
1149,0.330,-0.810,-0.185,44.444,0.000,275.000,1086.111,86.111,N
1150,0.395,-0.765,-0.190,44.444,0.000,313.889,1075.000,11.111,N
1151,0.440,-0.755,-0.120,44.444,0.000,305.556,1091.667,16.667,N
1152,-0.250,0.415,-0.245,158.333,91.667,394.444,1566.667,475.000,j
1153,0.555,-0.590,-0.020,33.333,0.000,263.889,1144.444,422.222,N
1154,0.015,0.520,-0.085,180.556,100.000,400.000,1111.111,33.333,N
1155,0.340,-0.800,-0.105,33.333,0.000,311.111,1161.111,50.000,N
1156,0.355,-0.760,-0.095,41.667,2.778,222.222,1133.333,27.778,N
1157,0.350,-0.780,-0.140,38.889,0.000,305.556,1027.778,105.556,N
1158,0.075,-0.860,-0.320,63.889,0.000,61.111,1011.111,16.667,N
1159,-0.125,-2.605,-0.125,1217775.000,8.333,-1217766.667,1027.778,16.667,N
1160,0.110,-0.330,1.095,63.889,2.778,347.222,1002.778,25.000,N
1161,-0.125,1.085,2.365,1219813.889,0.000,930372.222,1036.111,33.333,N
1162,1.010,0.280,0.845,197.222,11.111,69.444,1152.778,116.667,N
1163,0.530,-0.095,0.470,197.222,11.111,222.222,1219.444,66.667,N
1164,0.230,-0.545,0.130,197.222,5.556,250.000,1213.889,5.556,N
1165,-0.280,-1.000,-0.260,150.000,2.778,230.556,1202.778,11.111,N
1166,-0.410,-1.420,-0.515,197.222,2.778,288.889,1122.222,80.556,N
1167,-0.260,-1.095,-0.260,197.222,0.000,236.111,1066.667,55.556,N
1168,-0.295,-1.240,-0.295,197.222,0.000,238.889,1063.889,2.778,N
1169,-0.400,-1.295,-0.285,197.222,16.667,225.000,1022.222,41.667,N
1170,-0.225,-0.840,0.000,55.556,2.778,272.222,986.111,36.111,N
1171,-0.120,-1.030,-0.075,197.222,0.000,238.889,1066.667,80.556,N
1172,-0.085,-0.850,-0.090,197.222,2.778,233.333,1041.667,25.000,N
1173,-0.605,-1.665,-0.895,197.222,2.778,100.000,1008.333,33.333,N
1174,-0.125,-1.655,-0.445,1233963.889,2.778,322.222,983.333,25.000,N
1175,0.220,-0.420,0.285,55.556,11.111,269.444,1033.333,50.000,N
1176,0.445,-0.185,0.535,55.556,13.889,277.778,991.667,41.667,N
1177,0.310,-0.415,0.330,172.222,2.778,258.333,1116.667,125.000,N
1178,0.180,-0.500,0.260,197.222,2.778,261.111,1080.556,36.111,N
1179,0.140,-0.805,0.110,194.444,0.000,236.111,1038.889,41.667,N
1180,0.035,-0.830,0.020,197.222,2.778,230.556,988.889,50.000,N
1181,0.115,-0.680,-0.035,55.556,13.889,250.000,1000.000,11.111,N
1182,-0.005,-0.840,0.015,55.556,2.778,244.444,988.889,11.111,N
1183,0.045,-0.715,0.015,41.667,2.778,280.556,1097.222,108.333,N
1184,0.100,-0.760,-0.010,58.333,0.000,297.222,1305.556,208.333,N
1185,0.130,-0.655,0.085,197.222,8.333,238.889,952.778,352.778,N
1186,0.410,-0.330,0.385,55.556,16.667,313.889,977.778,25.000,N
1187,0.740,-0.085,0.695,58.333,0.000,261.111,1027.778,50.000,N
1188,0.400,-0.405,0.090,58.333,11.111,225.000,1013.889,13.889,N
1189,-0.145,-1.005,-0.415,61.111,2.778,222.222,1036.111,22.222,N
1190,-0.245,-1.065,-0.345,58.333,2.778,255.556,1005.556,30.556,N
1191,-0.250,-1.085,-0.310,197.222,5.556,247.222,955.556,50.000,N
1192,-0.095,-1.000,-0.195,197.222,2.778,205.556,947.222,8.333,N
1193,-0.935,-1.725,-0.965,197.222,5.556,255.556,950.000,2.778,N
1194,-0.905,-1.360,-0.380,58.333,16.667,336.111,1008.333,58.333,N
1195,0.400,-0.370,0.495,61.111,0.000,288.889,991.667,16.667,N
1196,1.040,0.040,0.810,38.889,0.000,347.222,975.000,16.667,N
1197,0.930,1.115,0.540,163.889,83.333,313.889,908.333,66.667,N
1198,0.555,0.935,0.255,155.556,80.556,372.222,913.889,5.556,N
1199,0.900,-0.400,0.160,33.333,0.000,325.000,972.222,58.333,N
1200,0.615,-0.530,0.015,27.778,0.000,325.000,938.889,33.333,N
1201,0.405,-0.660,-0.090,44.444,0.000,305.556,1002.778,63.889,N
1202,0.085,0.480,-0.140,177.778,91.667,361.111,933.333,69.444,N
1203,0.485,-0.505,0.110,44.444,0.000,300.000,972.222,38.889,N
1204,0.540,-0.470,-0.020,63.889,2.778,297.222,936.111,36.111,N
1205,0.025,0.275,-0.205,158.333,83.333,388.889,880.556,55.556,N
1206,0.160,-0.900,-0.290,33.333,0.000,250.000,972.222,91.667,N
1207,-0.020,-0.935,-0.345,66.667,0.000,300.000,961.111,11.111,N
1208,0.225,-0.950,-0.245,33.333,0.000,319.444,1000.000,38.889,N
1209,0.190,-0.825,-0.020,50.000,0.000,294.444,938.889,61.111,N
1210,0.340,-0.580,0.010,33.333,2.778,244.444,883.333,55.556,N
1211,0.035,-1.630,0.760,150.000,16.667,275.000,500.000,383.333,V
1212,0.485,-0.515,-0.015,61.111,2.778,330.556,1372.222,872.222,N
1213,0.290,-0.710,-0.195,30.556,2.778,308.333,955.556,416.667,N
1214,0.305,-0.890,-0.265,33.333,0.000,308.333,994.444,38.889,N
1215,0.200,-0.815,-0.245,47.222,0.000,297.222,977.778,16.667,N
1216,0.160,-0.930,-0.395,47.222,0.000,308.333,919.444,58.333,N
1217,-0.185,0.240,-0.230,172.222,94.444,369.444,872.222,47.222,N
1218,0.030,0.365,-0.115,177.778,91.667,380.556,927.778,55.556,N
1219,-0.090,0.370,-0.450,183.333,83.333,375.000,975.000,47.222,N
1220,-0.290,0.290,-0.425,191.667,94.444,391.667,1002.778,27.778,N
1221,0.385,-0.770,-0.175,36.111,0.000,347.222,997.222,5.556,N
1222,0.060,0.610,-0.100,183.333,91.667,394.444,1000.000,2.778,N
1223,0.580,-0.635,0.065,30.556,2.778,288.889,941.667,58.333,N
1224,0.765,-0.315,0.290,47.222,2.778,316.667,955.556,13.889,N
1225,0.495,0.770,0.115,175.000,86.111,375.000,944.444,11.111,N
1226,0.550,-0.695,-0.050,33.333,0.000,313.889,1008.333,63.889,N
1227,0.330,-0.830,-0.215,36.111,0.000,313.889,936.111,72.222,N
1228,0.180,-1.010,-0.410,27.778,2.778,347.222,966.667,30.556,N
1229,0.160,-1.095,-0.380,30.556,0.000,294.444,936.111,30.556,N
1230,-0.225,0.305,-0.485,177.778,86.111,388.889,852.778,83.333,N
1231,-0.185,0.460,-0.285,183.333,86.111,394.444,911.111,58.333,N
1232,-0.020,0.260,-0.305,172.222,94.444,369.444,966.667,55.556,N
1233,-0.075,0.450,-0.170,177.778,94.444,394.444,986.111,19.444,N
1234,0.485,-0.645,0.005,30.556,0.000,291.667,966.667,19.444,N
1235,0.485,-0.715,-0.215,33.333,0.000,311.111,947.222,19.444,N
1236,0.285,-0.745,-0.125,38.889,2.778,277.778,952.778,5.556,N
1237,0.225,-0.765,-0.105,63.889,2.778,272.222,897.222,55.556,N
1238,0.280,-0.825,-0.210,36.111,2.778,341.667,933.333,36.111,N
1239,0.245,-1.010,-0.275,30.556,0.000,316.667,997.222,63.889,N
1240,0.190,-0.835,-0.170,33.333,2.778,288.889,927.778,69.444,N
1241,0.220,-1.040,-0.310,41.667,2.778,280.556,894.444,33.333,N
1242,0.145,-1.080,-0.405,27.778,0.000,294.444,880.556,13.889,N
1243,-0.020,-1.040,-0.265,36.111,0.000,316.667,880.556,0.000,N
1244,-0.070,0.295,0.000,177.778,88.889,402.778,875.000,5.556,N
1245,0.710,-0.420,0.305,47.222,0.000,305.556,950.000,75.000,N
1246,0.620,0.090,0.445,69.444,19.444,288.889,991.667,41.667,N
1247,0.470,0.495,0.290,175.000,72.222,327.778,897.222,94.444,N
1248,0.175,0.280,-0.245,161.111,102.778,391.667,941.667,44.444,N
1249,0.045,-1.135,-0.390,27.778,0.000,261.111,952.778,11.111,N
1250,-0.290,-0.010,-0.580,172.222,80.556,380.556,894.444,58.333,N
1251,-0.330,0.105,-0.365,180.556,91.667,369.444,941.667,47.222,N
1252,0.010,0.365,-0.080,177.778,88.889,402.778,927.778,13.889,N
1253,0.170,0.605,-0.020,186.111,91.667,388.889,941.667,13.889,N
1254,0.160,0.625,0.050,166.667,91.667,369.444,916.667,25.000,N
1255,0.525,-0.665,0.040,30.556,2.778,252.778,888.889,27.778,N
1256,0.120,0.575,-0.270,194.444,91.667,388.889,825.000,63.889,N
1257,-0.210,0.785,-0.135,191.667,88.889,397.222,880.556,55.556,N
1258,0.470,1.155,0.485,197.222,91.667,388.889,911.111,30.556,N
1259,0.860,-0.355,0.185,33.333,2.778,283.333,916.667,5.556,N
1260,0.245,-0.935,-0.300,30.556,2.778,272.222,869.444,47.222,N
1261,0.200,-0.875,-0.175,30.556,0.000,347.222,911.111,41.667,N
1262,0.250,-0.760,-0.025,36.111,0.000,277.778,877.778,33.333,N
1263,0.295,-0.625,-0.050,30.556,2.778,266.667,861.111,16.667,N
1264,0.260,-0.770,-0.130,27.778,0.000,291.667,908.333,47.222,N
1265,0.270,-0.770,-0.135,30.556,2.778,311.111,941.667,33.333,N
1266,0.210,-0.805,-0.220,30.556,0.000,263.889,938.889,2.778,N
1267,-0.070,0.190,-0.275,177.778,83.333,363.889,875.000,63.889,N
1268,0.295,-0.825,-0.210,27.778,0.000,302.778,919.444,44.444,N
1269,0.215,-0.915,-0.260,27.778,0.000,283.333,886.111,33.333,N
1270,-0.080,0.320,-0.275,166.667,83.333,375.000,830.556,55.556,N
1271,0.295,-0.890,-0.160,30.556,0.000,288.889,927.778,97.222,N
1272,0.320,-0.805,-0.110,30.556,0.000,319.444,955.556,27.778,N
1273,0.445,-0.710,-0.025,30.556,2.778,280.556,980.556,25.000,N
1274,0.250,0.560,0.055,169.444,91.667,352.778,891.667,88.889,N
1275,0.540,-0.610,0.175,36.111,0.000,344.444,916.667,25.000,N
1276,0.340,0.630,0.045,163.889,94.444,377.778,913.889,2.778,N
1277,0.225,0.600,-0.045,166.667,88.889,358.333,897.222,16.667,N
1278,0.275,-0.910,-0.290,33.333,0.000,347.222,966.667,69.444,N
1279,0.140,-1.005,-0.265,36.111,2.778,322.222,1008.333,41.667,N
1280,0.265,-0.960,-0.315,38.889,0.000,291.667,963.889,44.444,N
1281,0.030,0.385,-0.040,175.000,91.667,383.333,919.444,44.444,N
1282,0.620,-0.485,0.180,27.778,2.778,316.667,911.111,8.333,N
1283,0.335,0.765,0.065,175.000,94.444,405.556,950.000,38.889,N
1284,0.210,0.530,-0.020,175.000,83.333,347.222,922.222,27.778,N
1285,0.355,-0.860,-0.205,36.111,0.000,275.000,983.333,61.111,N
1286,0.255,-1.010,-0.325,30.556,0.000,311.111,988.889,5.556,N
1287,0.375,-1.010,-0.260,33.333,2.778,316.667,938.889,50.000,N
1288,0.220,-0.940,-0.220,27.778,0.000,277.778,869.444,69.444,N
1289,0.260,-0.930,-0.260,36.111,0.000,338.889,902.778,33.333,N
1290,-0.085,0.385,-0.290,183.333,88.889,386.111,911.111,8.333,N
1291,0.175,-0.975,-0.280,27.778,2.778,291.667,958.333,47.222,N
1292,0.290,-0.910,-0.245,36.111,0.000,313.889,944.444,13.889,N
1293,-0.040,0.460,-0.195,175.000,88.889,380.556,891.667,52.778,N
1294,0.370,-0.815,-0.125,30.556,2.778,325.000,933.333,41.667,N
1295,0.375,-0.775,-0.120,30.556,0.000,283.333,900.000,33.333,N
1296,0.475,-0.665,0.055,30.556,2.778,291.667,897.222,2.778,N
1297,0.295,-0.750,-0.145,36.111,0.000,291.667,952.778,55.556,N
1298,0.145,-0.815,-0.240,30.556,2.778,288.889,966.667,13.889,N
1299,0.280,-0.895,-0.155,36.111,0.000,338.889,938.889,27.778,N
1300,0.295,-0.820,-0.145,33.333,0.000,327.778,900.000,38.889,N
1301,0.190,-0.895,-0.210,33.333,0.000,283.333,925.000,25.000,N
1302,-0.100,0.315,-0.220,186.111,88.889,377.778,897.222,27.778,N
1303,0.055,0.485,0.090,186.111,88.889,388.889,919.444,22.222,N
1304,0.590,-0.135,0.540,55.556,2.778,277.778,997.222,77.778,N
1305,0.565,0.480,0.190,163.889,91.667,166.667,947.222,50.000,N
1306,-0.060,0.385,-0.485,172.222,80.556,350.000,919.444,27.778,N
1307,0.010,-1.220,-0.495,33.333,0.000,319.444,1013.889,94.444,N
1308,-0.345,0.155,-0.460,172.222,91.667,383.333,933.333,80.556,N
1309,-0.385,0.040,-0.430,191.667,91.667,405.556,975.000,41.667,N
1310,-0.120,0.290,-0.215,180.556,94.444,394.444,916.667,58.333,N
1311,-0.200,-1.460,0.345,194.444,5.556,277.778,566.667,350.000,V
1312,0.280,0.265,-0.145,58.333,100.000,108.333,280.556,286.111,x
1313,0.295,-0.750,-0.130,38.889,0.000,322.222,1222.222,941.667,N
1314,0.065,0.325,-0.115,166.667,80.556,369.444,858.333,363.889,N
1315,-0.020,0.385,-0.090,177.778,80.556,388.889,888.889,30.556,N
1316,0.440,-0.780,-0.015,33.333,2.778,311.111,930.556,41.667,N
1317,0.450,-0.835,-0.045,47.222,0.000,336.111,900.000,30.556,N
1318,0.010,0.440,-0.120,180.556,86.111,369.444,888.889,11.111,N
1319,0.535,-0.680,0.135,30.556,2.778,347.222,961.111,72.222,N
1320,0.600,-0.595,0.045,36.111,2.778,291.667,886.111,75.000,N
1321,0.130,0.695,0.080,188.889,91.667,388.889,805.556,80.556,N
1322,0.190,0.785,0.055,186.111,83.333,394.444,830.556,25.000,N
1323,0.580,-0.650,-0.020,27.778,0.000,280.556,897.222,66.667,N
1324,-0.100,0.340,-0.215,186.111,91.667,391.667,916.667,19.444,N
1325,0.350,-0.615,-0.030,33.333,0.000,327.778,958.333,41.667,N
1326,0.265,-0.770,-0.130,30.556,0.000,297.222,927.778,30.556,N
1327,0.395,-0.775,-0.040,33.333,2.778,247.222,936.111,8.333,N
1328,-0.090,0.460,-0.245,180.556,86.111,383.333,838.889,97.222,N
1329,-0.050,0.395,-0.295,169.444,91.667,402.778,852.778,13.889,N
1330,-0.335,0.275,-0.570,188.889,94.444,388.889,886.111,33.333,N
1331,0.020,0.655,0.180,194.444,97.222,363.889,944.444,58.333,N
1332,0.445,0.835,0.235,186.111,86.111,363.889,950.000,5.556,N
1333,0.305,0.755,0.165,191.667,86.111,388.889,927.778,22.222,N
1334,0.675,-0.505,0.125,30.556,0.000,305.556,936.111,8.333,N
1335,0.450,-0.745,-0.105,66.667,0.000,316.667,888.889,47.222,N
1336,0.325,-0.795,-0.070,30.556,0.000,330.556,891.667,2.778,N
1337,0.265,-0.740,-0.120,36.111,0.000,313.889,911.111,19.444,N
1338,0.180,-0.865,-0.140,36.111,0.000,316.667,925.000,13.889,N
1339,-0.060,0.255,-0.535,183.333,91.667,375.000,925.000,0.000,N
1340,-0.125,0.305,-0.205,163.889,88.889,394.444,888.889,36.111,N
1341,-0.100,0.285,-0.450,175.000,91.667,372.222,858.333,30.556,N
1342,0.000,0.540,-0.015,169.444,88.889,372.222,897.222,38.889,N
1343,0.885,-0.210,0.430,33.333,0.000,280.556,908.333,11.111,N
1344,0.720,-0.355,0.255,30.556,0.000,325.000,941.667,33.333,N
1345,0.505,-0.470,0.130,50.000,0.000,313.889,966.667,25.000,N
1346,0.015,0.290,-0.525,191.667,97.222,397.222,913.889,52.778,N
1347,-0.565,0.225,-0.290,180.556,91.667,372.222,938.889,25.000,N
1348,0.085,0.570,0.020,177.778,83.333,372.222,858.333,80.556,N
1349,0.165,0.560,-0.150,180.556,86.111,352.778,972.222,113.889,N
1350,-0.235,0.410,-0.255,191.667,88.889,400.000,975.000,2.778,N
1351,0.100,0.580,0.005,183.333,86.111,391.667,933.333,41.667,N
1352,0.190,0.610,-0.110,180.556,88.889,375.000,1005.556,72.222,N
1353,0.510,1.305,0.565,69.444,94.444,388.889,972.222,33.333,N
1354,0.665,-0.460,-0.030,33.333,0.000,272.222,933.333,38.889,N
1355,0.160,-1.000,-0.370,33.333,0.000,316.667,897.222,36.111,N
1356,-0.190,0.345,-0.280,188.889,94.444,402.778,988.889,91.667,N
1357,0.050,0.510,0.090,191.667,83.333,355.556,955.556,33.333,N
1358,0.685,-0.405,0.250,30.556,2.778,302.778,972.222,16.667,N
1359,0.680,-0.495,0.190,38.889,0.000,330.556,1002.778,30.556,N
1360,0.335,0.745,0.065,180.556,91.667,377.778,880.556,122.222,N
1361,0.525,-0.610,0.065,33.333,0.000,347.222,936.111,55.556,N
1362,0.425,-0.680,-0.010,33.333,0.000,291.667,1002.778,66.667,N
1363,0.385,-0.940,-0.210,38.889,0.000,275.000,1033.333,30.556,N
1364,-0.045,0.330,-0.320,183.333,91.667,355.556,925.000,108.333,N
1365,-0.010,-1.045,-0.410,30.556,0.000,255.556,1000.000,75.000,N
1366,0.120,-1.060,-0.490,47.222,0.000,313.889,950.000,50.000,N
1367,-0.200,0.320,-0.255,183.333,86.111,386.111,900.000,50.000,N
1368,0.315,-0.855,-0.195,30.556,0.000,297.222,941.667,41.667,N
1369,-0.195,-1.415,0.245,180.556,5.556,286.111,477.778,463.889,V
1370,0.315,-0.795,-0.165,38.889,0.000,327.778,1472.222,994.444,N
1371,0.075,0.510,-0.085,180.556,83.333,377.778,961.111,511.111,N
1372,0.145,0.470,-0.020,166.667,77.778,388.889,866.667,94.444,N
1373,0.175,0.530,-0.065,175.000,88.889,394.444,925.000,58.333,N
1374,0.575,-0.785,-0.120,30.556,0.000,294.444,977.778,52.778,N
1375,0.405,-0.805,-0.100,36.111,0.000,308.333,902.778,75.000,N
1376,0.090,0.525,-0.155,197.222,94.444,391.667,975.000,72.222,N
1377,0.550,-0.700,-0.005,30.556,0.000,308.333,1041.667,66.667,N
1378,0.510,-0.615,-0.020,33.333,0.000,263.889,911.111,130.556,N
1379,0.050,0.525,-0.190,166.667,88.889,386.111,947.222,36.111,N
1380,0.420,-0.815,-0.130,33.333,0.000,308.333,922.222,25.000,N
1381,0.395,-0.750,-0.110,38.889,2.778,308.333,1055.556,133.333,N
1382,0.050,0.485,-0.185,197.222,94.444,394.444,986.111,69.444,N
1383,0.395,-0.825,-0.265,33.333,0.000,336.111,1033.333,47.222,N
1384,-0.255,0.025,-0.400,183.333,80.556,369.444,977.778,55.556,N
1385,-0.120,0.235,-0.195,175.000,88.889,397.222,933.333,44.444,N
1386,0.085,0.580,-0.035,191.667,94.444,388.889,972.222,38.889,N
1387,0.535,-0.730,-0.030,41.667,0.000,277.778,958.333,13.889,N
1388,0.430,-0.710,-0.070,36.111,0.000,308.333,1069.444,111.111,N
1389,0.490,-0.765,-0.070,30.556,0.000,311.111,1030.556,38.889,N
1390,0.455,-0.775,-0.105,30.556,0.000,305.556,966.667,63.889,N
1391,0.315,-0.795,-0.135,30.556,0.000,291.667,950.000,16.667,N
1392,-0.010,0.355,-0.210,172.222,94.444,402.778,997.222,47.222,N
1393,0.415,-0.810,-0.135,30.556,0.000,311.111,952.778,44.444,N
1394,0.385,-0.725,-0.090,36.111,0.000,316.667,1058.333,105.556,N
1395,0.540,-0.715,-0.060,33.333,2.778,288.889,975.000,83.333,N
1396,0.380,-0.900,-0.050,30.556,2.778,325.000,947.222,27.778,N
1397,0.390,-0.675,0.095,38.889,0.000,294.444,933.333,13.889,N
1398,0.500,-0.665,0.005,33.333,2.778,266.667,1008.333,75.000,N
1399,0.525,-0.630,0.040,27.778,0.000,286.111,883.333,125.000,N
1400,0.415,-0.745,-0.155,33.333,0.000,330.556,955.556,72.222,N
1401,0.045,0.475,-0.150,191.667,88.889,391.667,1066.667,111.111,N
1402,0.045,0.380,-0.100,183.333,86.111,391.667,922.222,144.444,N
1403,0.015,0.395,-0.215,177.778,94.444,375.000,1002.778,80.556,N
1404,0.055,0.455,-0.105,180.556,91.667,386.111,983.333,19.444,N
1405,0.095,0.370,-0.110,186.111,80.556,377.778,919.444,63.889,N
1406,0.380,-0.800,-0.150,30.556,0.000,325.000,1158.333,238.889,N
1407,0.015,0.550,-0.150,197.222,91.667,388.889,1050.000,108.333,N
1408,0.380,-0.735,-0.070,30.556,0.000,288.889,1030.556,19.444,N
1409,0.150,0.420,-0.080,166.667,77.778,386.111,1027.778,2.778,N
1410,0.100,0.560,-0.080,183.333,86.111,391.667,1005.556,22.222,N
1411,0.105,0.415,-0.160,177.778,88.889,391.667,952.778,52.778,N
1412,0.605,-0.755,-0.060,30.556,0.000,302.778,1052.778,100.000,N
1413,0.520,-0.660,0.030,27.778,0.000,291.667,963.889,88.889,N
1414,0.190,0.585,-0.060,186.111,94.444,405.556,1027.778,63.889,N
1415,0.145,0.470,-0.030,169.444,86.111,375.000,919.444,108.333,N
1416,-0.030,0.625,0.090,175.000,80.556,372.222,519.444,400.000,V
1417,-0.205,0.080,-0.120,61.111,86.111,361.111,319.444,200.000,x
1418,0.510,-0.780,-0.170,30.556,0.000,347.222,1169.444,850.000,N
1419,0.455,-0.825,-0.170,33.333,0.000,277.778,1036.111,133.333,N
1420,-0.045,0.365,-0.260,186.111,86.111,388.889,902.778,133.333,N
1421,-0.015,0.330,-0.160,175.000,94.444,391.667,1041.667,138.889,N
1422,-0.195,0.395,-0.150,161.111,86.111,372.222,611.111,430.556,A
1423,-0.020,0.495,0.060,177.778,91.667,402.778,1416.667,805.556,N
1424,0.000,0.505,-0.150,197.222,86.111,375.000,566.667,850.000,A
1425,0.360,-0.765,-0.125,50.000,0.000,330.556,1191.667,625.000,N
1426,0.070,0.550,-0.145,186.111,94.444,388.889,1036.111,155.556,N
1427,0.470,-0.755,-0.105,33.333,2.778,302.778,977.778,58.333,N
1428,0.050,0.340,-0.205,166.667,91.667,402.778,983.333,5.556,N
1429,-0.025,0.435,-0.250,186.111,94.444,386.111,986.111,2.778,N
1430,-0.025,0.280,-0.190,177.778,83.333,386.111,888.889,97.222,N
1431,0.430,-0.835,-0.195,33.333,2.778,311.111,1083.333,194.444,N
1432,0.080,0.440,-0.110,183.333,97.222,397.222,1008.333,75.000,N
1433,0.030,0.430,-0.045,175.000,88.889,358.333,958.333,50.000,N
1434,0.175,0.735,0.120,177.778,88.889,405.556,1027.778,69.444,N
1435,0.245,-0.870,-0.180,36.111,0.000,277.778,1002.778,25.000,N
1436,0.220,-0.855,-0.245,38.889,2.778,341.667,1022.222,19.444,N
1437,-0.010,0.310,-0.245,188.889,88.889,391.667,991.667,30.556,N
1438,0.030,0.465,-0.140,194.444,86.111,397.222,1038.889,47.222,N
1439,0.365,-0.720,-0.095,36.111,2.778,300.000,1027.778,11.111,N
1440,0.095,0.370,-0.170,172.222,77.778,352.778,1016.667,11.111,N
1441,0.025,0.445,-0.155,186.111,80.556,375.000,997.222,19.444,N
1442,0.330,-0.880,-0.155,30.556,0.000,300.000,961.111,36.111,N
1443,-0.050,0.390,-0.270,177.778,97.222,391.667,1019.444,58.333,N
1444,0.025,0.415,-0.195,180.556,83.333,380.556,980.556,38.889,N
1445,0.345,-0.780,-0.155,36.111,0.000,294.444,1025.000,44.444,N
1446,0.025,0.475,-0.200,180.556,91.667,391.667,1008.333,16.667,N
1447,0.380,-0.770,-0.165,30.556,2.778,305.556,916.667,91.667,N
1448,0.010,0.355,-0.250,166.667,94.444,377.778,983.333,66.667,N
1449,-0.075,0.440,-0.230,197.222,94.444,405.556,1036.111,52.778,N
1450,0.475,-0.735,-0.120,30.556,0.000,286.111,997.222,38.889,N
1451,0.300,-0.740,-0.120,33.333,0.000,313.889,1069.444,72.222,N
1452,0.050,0.450,-0.185,186.111,94.444,402.778,969.444,100.000,N
1453,0.425,-0.810,-0.130,30.556,2.778,266.667,952.778,16.667,N
1454,0.140,0.360,-0.170,166.667,80.556,383.333,925.000,27.778,N
1455,0.545,-0.800,-0.155,33.333,0.000,313.889,991.667,66.667,N
1456,0.470,-0.755,-0.085,33.333,0.000,336.111,1008.333,16.667,N
1457,0.460,-0.685,-0.110,36.111,0.000,291.667,1055.556,47.222,N
1458,0.100,0.555,-0.095,177.778,86.111,388.889,922.222,133.333,N
1459,0.520,-0.670,-0.045,30.556,0.000,294.444,969.444,47.222,N
1460,0.135,0.500,-0.125,169.444,83.333,372.222,958.333,11.111,N
1461,0.130,0.610,-0.025,191.667,88.889,388.889,1000.000,41.667,N
1462,-0.005,0.645,-0.095,194.444,94.444,391.667,972.222,27.778,N
1463,0.515,-0.660,-0.070,30.556,0.000,297.222,1038.889,66.667,N
1464,0.045,0.525,-0.170,172.222,80.556,394.444,1019.444,19.444,N
1465,0.495,-0.700,-0.100,30.556,2.778,308.333,955.556,63.889,N
1466,0.020,0.425,-0.235,175.000,86.111,388.889,1047.222,91.667,N
1467,0.415,-0.800,-0.165,30.556,0.000,327.778,1047.222,0.000,N
1468,0.040,0.310,-0.210,180.556,86.111,363.889,1019.444,27.778,N
1469,-0.085,0.365,-0.295,194.444,88.889,391.667,1058.333,38.889,N
1470,-0.025,0.300,-0.220,175.000,88.889,394.444,933.333,125.000,N
1471,-0.020,0.260,-0.295,172.222,97.222,355.556,1016.667,83.333,N
1472,0.305,-0.860,-0.270,33.333,2.778,302.778,1013.889,2.778,N
1473,0.440,-0.820,-0.105,30.556,0.000,319.444,1116.667,102.778,N
1474,0.505,-0.640,-0.005,33.333,0.000,319.444,963.889,152.778,N
1475,0.085,0.560,-0.175,191.667,91.667,400.000,1055.556,91.667,N
1476,0.020,0.360,-0.165,169.444,94.444,397.222,944.444,111.111,N
1477,0.040,0.580,-0.140,177.778,77.778,391.667,1016.667,72.222,N
1478,0.450,-0.695,-0.055,30.556,2.778,305.556,963.889,52.778,N
1479,0.415,-0.735,-0.125,36.111,0.000,327.778,1175.000,211.111,N
1480,0.080,0.400,-0.155,191.667,83.333,383.333,1077.778,97.222,N
1481,0.105,0.435,-0.150,172.222,88.889,394.444,1061.111,16.667,N
1482,0.350,-0.815,-0.185,36.111,0.000,322.222,1075.000,13.889,N
1483,-0.015,0.510,-0.195,172.222,94.444,388.889,1000.000,75.000,N
1484,0.360,-0.835,-0.170,36.111,0.000,327.778,969.444,30.556,N
1485,0.365,-0.755,-0.150,47.222,0.000,313.889,1163.889,194.444,N
1486,0.055,0.445,-0.280,180.556,88.889,402.778,1025.000,138.889,N
1487,0.325,-0.880,-0.145,36.111,0.000,344.444,1008.333,16.667,N
1488,-0.050,0.455,-0.105,169.444,86.111,366.667,1080.556,72.222,N
1489,0.485,-0.680,0.025,36.111,0.000,327.778,952.778,127.778,N
1490,0.155,-0.800,-0.125,47.222,0.000,322.222,1305.556,352.778,N
1491,0.300,-0.780,-0.145,33.333,0.000,280.556,1308.333,2.778,N
1492,0.045,-0.970,-0.400,44.444,2.778,311.111,1116.667,191.667,N
1493,-0.195,0.120,-0.305,180.556,77.778,372.222,980.556,136.111,N
1494,0.310,-0.770,-0.180,44.444,2.778,313.889,1066.667,86.111,N
1495,0.475,-0.775,-0.100,30.556,0.000,308.333,1038.889,27.778,N
1496,0.370,-0.770,-0.115,44.444,0.000,308.333,1050.000,11.111,N
1497,0.350,-0.755,-0.095,41.667,0.000,302.778,1105.556,55.556,N
1498,0.025,0.325,-0.260,172.222,83.333,391.667,961.111,144.444,N
1499,0.280,-0.855,-0.155,33.333,0.000,344.444,1013.889,52.778,N
1500,0.440,-0.815,-0.160,33.333,2.778,322.222,1211.111,197.222,N
1501,0.330,-0.780,-0.165,36.111,0.000,325.000,1275.000,63.889,N
1502,0.070,0.400,-0.220,188.889,86.111,391.667,1150.000,125.000,N
1503,0.375,-0.785,-0.140,41.667,0.000,297.222,1161.111,11.111,N
1504,0.115,0.395,-0.145,158.333,80.556,377.778,1019.444,141.667,N
1505,0.040,0.530,-0.150,180.556,86.111,369.444,1063.889,44.444,N
1506,0.475,-0.680,-0.100,44.444,2.778,322.222,1005.556,58.333,N
1507,0.380,-0.735,-0.145,38.889,0.000,319.444,1202.778,197.222,N
1508,0.035,0.475,-0.240,183.333,97.222,397.222,1083.333,119.444,N
1509,0.050,0.355,-0.180,188.889,83.333,372.222,1077.778,5.556,N
1510,0.090,0.390,-0.180,166.667,77.778,380.556,1022.222,55.556,N
1511,0.060,0.410,-0.165,188.889,86.111,394.444,1025.000,2.778,N
1512,0.375,-0.790,-0.150,36.111,0.000,325.000,1047.222,22.222,N
1513,0.050,0.325,-0.165,175.000,80.556,388.889,1161.111,113.889,N
1514,0.125,0.380,-0.140,177.778,91.667,383.333,1113.889,47.222,N
1515,0.085,0.555,-0.145,194.444,91.667,386.111,1088.889,25.000,N
1516,0.135,0.470,-0.100,186.111,86.111,394.444,1019.444,69.444,N
1517,0.425,-0.775,-0.190,36.111,0.000,316.667,1080.556,61.111,N
1518,0.480,-0.845,-0.180,38.889,0.000,341.667,1055.556,25.000,N
1519,0.365,-0.805,-0.195,36.111,2.778,347.222,1061.111,5.556,N
1520,0.060,0.375,-0.170,183.333,97.222,391.667,1050.000,11.111,N
1521,0.065,0.460,-0.175,183.333,83.333,383.333,1016.667,33.333,N
1522,0.050,0.445,-0.125,172.222,83.333,391.667,1000.000,16.667,N
1523,0.425,-0.740,-0.145,36.111,0.000,308.333,1055.556,55.556,N
1524,0.035,0.455,-0.290,197.222,88.889,400.000,986.111,69.444,N
1525,0.285,-0.825,-0.095,33.333,0.000,302.778,1019.444,33.333,N
1526,0.380,-0.645,0.000,41.667,2.778,313.889,1005.556,13.889,N
1527,0.355,-0.695,-0.025,36.111,0.000,322.222,969.444,36.111,N
1528,0.525,-0.730,-0.035,33.333,0.000,336.111,1019.444,50.000,N
1529,0.335,-0.750,-0.060,36.111,0.000,330.556,991.667,27.778,N
1530,0.270,-0.735,-0.130,47.222,0.000,288.889,1213.889,222.222,N
1531,0.435,-0.780,-0.170,33.333,0.000,330.556,1200.000,13.889,N
1532,0.355,-0.770,-0.070,30.556,2.778,277.778,997.222,202.778,N
1533,0.335,-0.780,-0.095,30.556,0.000,283.333,1069.444,72.222,N
1534,0.470,-0.795,-0.190,36.111,0.000,327.778,1036.111,33.333,N
1535,0.295,-0.880,-0.185,33.333,0.000,313.889,977.778,58.333,N
1536,0.380,-0.925,-0.420,38.889,0.000,322.222,1077.778,100.000,N
1537,-0.130,0.485,-0.270,188.889,86.111,377.778,944.444,133.333,N
1538,-0.030,0.390,-0.225,175.000,88.889,394.444,925.000,19.444,N
1539,0.060,0.605,-0.155,172.222,91.667,400.000,1105.556,180.556,N
1540,0.080,0.500,-0.135,172.222,88.889,397.222,913.889,191.667,N
1541,0.415,-0.915,-0.255,47.222,2.778,313.889,1186.111,272.222,N
1542,0.285,-0.805,-0.140,36.111,0.000,341.667,1041.667,144.444,N
1543,0.370,-0.725,-0.015,44.444,0.000,313.889,922.222,119.444,N
1544,0.355,-0.630,-0.025,36.111,0.000,316.667,1002.778,80.556,N
1545,0.490,-0.695,-0.070,30.556,0.000,341.667,936.111,66.667,N
1546,0.365,-0.670,-0.040,44.444,2.778,311.111,938.889,2.778,N
1547,0.305,-0.715,-0.170,36.111,2.778,286.111,1038.889,100.000,N
1548,0.325,-0.800,-0.190,33.333,0.000,302.778,1127.778,88.889,N
1549,0.230,-0.800,-0.155,30.556,0.000,344.444,944.444,183.333,N
1550,0.245,-0.760,-0.165,36.111,0.000,333.333,1063.889,119.444,N
1551,0.350,-0.720,-0.050,33.333,2.778,313.889,1027.778,36.111,N
1552,0.205,-0.790,-0.195,33.333,0.000,330.556,950.000,77.778,N
1553,-0.065,0.355,-0.305,177.778,94.444,380.556,1111.111,161.111,N
1554,0.215,-1.005,-0.355,38.889,0.000,327.778,1038.889,72.222,N
1555,0.025,0.635,-0.155,186.111,91.667,394.444,1080.556,41.667,N
1556,0.090,0.495,-0.105,172.222,86.111,388.889,891.667,188.889,N
1557,0.040,0.490,-0.270,172.222,94.444,402.778,1025.000,133.333,N
1558,0.355,-0.860,-0.175,33.333,0.000,336.111,1047.222,22.222,N
1559,0.265,-0.855,-0.175,36.111,0.000,294.444,955.556,91.667,N
1560,0.515,-0.835,-0.175,30.556,0.000,305.556,1105.556,150.000,N
1561,0.345,-0.865,-0.230,44.444,0.000,252.778,952.778,152.778,N
1562,0.330,-0.835,-0.160,41.667,2.778,300.000,983.333,30.556,N
1563,0.105,0.575,-0.350,177.778,86.111,122.222,916.667,66.667,N
1564,-0.330,-1.355,0.010,100.000,8.333,238.889,486.111,430.556,V
1565,-0.265,-0.065,-0.225,58.333,94.444,294.444,216.667,269.444,x
1566,0.275,-1.045,-0.515,33.333,2.778,247.222,1222.222,1005.556,N
1567,-0.530,0.310,-0.225,188.889,88.889,405.556,925.000,297.222,N
1568,0.185,0.795,0.535,186.111,86.111,386.111,886.111,38.889,N
1569,0.745,-0.325,0.185,33.333,0.000,191.667,1036.111,150.000,N
1570,0.240,0.645,-0.035,163.889,94.444,394.444,894.444,141.667,N
1571,0.450,-0.665,0.000,30.556,2.778,333.333,933.333,38.889,N
1572,0.420,-0.640,0.015,38.889,0.000,305.556,947.222,13.889,N
1573,0.435,-0.725,-0.105,41.667,0.000,344.444,1125.000,177.778,N
1574,0.070,0.495,-0.075,183.333,91.667,375.000,897.222,227.778,N
1575,0.355,-0.690,0.060,47.222,0.000,330.556,955.556,58.333,N
1576,0.395,-0.640,-0.085,41.667,0.000,291.667,1047.222,91.667,N
1577,0.325,-0.960,-0.330,30.556,0.000,291.667,888.889,158.333,N
1578,0.025,-1.025,-0.315,38.889,0.000,302.778,950.000,61.111,N
1579,-0.265,0.085,-0.595,183.333,83.333,391.667,1086.111,136.111,N
1580,-0.330,0.190,-0.405,177.778,94.444,397.222,1044.444,41.667,N
1581,-0.075,0.260,-0.175,175.000,86.111,386.111,900.000,144.444,N
1582,0.445,-0.680,-0.060,38.889,0.000,319.444,1108.333,208.333,N
1583,0.250,0.680,0.145,177.778,80.556,377.778,966.667,141.667,N
1584,0.630,-0.455,0.200,44.444,0.000,252.778,955.556,11.111,N
1585,0.440,-0.585,-0.040,36.111,0.000,327.778,1111.111,155.556,N
1586,0.350,-0.805,-0.200,38.889,0.000,311.111,986.111,125.000,N
1587,0.280,-0.915,-0.240,36.111,0.000,302.778,1016.667,30.556,N
1588,0.160,-1.000,-0.495,36.111,0.000,311.111,863.889,152.778,N
1589,-0.085,0.530,-0.040,175.000,91.667,380.556,994.444,130.556,N
1590,0.450,-0.685,-0.020,27.778,0.000,322.222,944.444,50.000,N
1591,0.480,-0.710,-0.195,38.889,0.000,291.667,1066.667,122.222,N
1592,0.570,-0.685,-0.025,36.111,0.000,327.778,966.667,100.000,N
1593,0.335,-0.695,-0.085,27.778,0.000,330.556,952.778,13.889,N
1594,0.395,-0.735,-0.020,30.556,0.000,291.667,975.000,22.222,N
1595,0.530,-0.665,-0.005,30.556,0.000,300.000,891.667,83.333,N
1596,0.380,-0.670,0.000,38.889,0.000,305.556,947.222,55.556,N
1597,0.445,-0.815,-0.310,36.111,0.000,347.222,1077.778,130.556,N
1598,0.335,-0.735,-0.075,30.556,0.000,333.333,944.444,133.333,N
1599,0.095,0.415,-0.050,191.667,83.333,369.444,1005.556,61.111,N
1600,0.660,-0.440,0.185,27.778,0.000,294.444,952.778,52.778,N
1601,0.435,-0.675,-0.195,33.333,2.778,286.111,986.111,33.333,N
1602,0.380,-0.695,-0.160,44.444,2.778,325.000,1002.778,16.667,N
1603,0.240,-0.860,-0.200,36.111,0.000,330.556,952.778,50.000,N
1604,0.445,-0.835,-0.145,33.333,2.778,275.000,1077.778,125.000,N
1605,0.100,-0.930,-0.275,58.333,2.778,291.667,950.000,127.778,N
1606,-0.125,-3.005,-0.125,1653933.333,2.778,-1653933.333,963.889,13.889,N
1607,-0.125,-1.540,-0.465,1654827.778,0.000,325.000,894.444,69.444,N
1608,0.525,0.055,0.795,41.667,2.778,216.667,950.000,55.556,N
1609,0.915,0.120,0.635,52.778,0.000,300.000,1030.556,80.556,N
1610,1.015,0.265,0.970,41.667,2.778,275.000,991.667,38.889,N
1611,0.950,0.300,0.685,44.444,8.333,72.222,972.222,19.444,N
1612,0.390,-0.240,0.220,38.889,11.111,322.222,927.778,44.444,N
1613,0.225,0.230,-0.045,155.556,83.333,352.778,922.222,5.556,N
1614,-0.145,-2.045,-0.125,194.444,2.778,-1661633.333,1011.111,88.889,N
1615,-0.960,-1.535,-0.910,52.778,11.111,344.444,994.444,16.667,N
1616,-0.630,-0.590,-0.220,175.000,111.111,388.889,977.778,16.667,N
1617,-0.110,-0.190,-0.080,63.889,100.000,111.111,544.444,433.333,|
1618,0.300,-0.060,0.375,52.778,16.667,55.556,538.889,5.556,N
1619,0.310,-0.315,0.530,186.111,0.000,244.444,969.444,430.556,N
1620,0.720,-0.115,0.410,186.111,0.000,258.333,1000.000,30.556,N
1621,0.615,-0.060,0.715,197.222,2.778,241.667,1002.778,2.778,N
1622,0.240,-0.785,0.345,197.222,0.000,341.667,1075.000,72.222,N
1623,0.350,-0.515,-0.155,197.222,2.778,41.667,1011.111,63.889,N
1624,-0.175,-0.805,-0.120,194.444,0.000,144.444,1044.444,33.333,N
1625,-0.085,-0.685,0.070,186.111,2.778,216.667,950.000,94.444,N
1626,0.225,-0.545,-0.015,194.444,2.778,225.000,958.333,8.333,N
1627,-0.020,-0.615,0.185,197.222,0.000,225.000,994.444,36.111,N
1628,0.100,-0.795,-0.165,197.222,2.778,202.778,1055.556,61.111,N
1629,-0.385,-1.135,-0.395,197.222,5.556,222.222,1013.889,41.667,N
1630,-0.485,-1.040,-0.400,197.222,2.778,205.556,983.333,30.556,N
1631,-0.815,-1.875,-0.125,197.222,2.778,-1677711.111,963.889,19.444,N
1632,-0.745,-1.240,-0.450,197.222,13.889,261.111,919.444,44.444,N
1633,-0.340,-0.735,0.015,197.222,5.556,236.111,966.667,47.222,N
1634,-0.120,-0.510,0.125,186.111,2.778,225.000,1011.111,44.444,N
1635,0.050,-0.495,0.185,197.222,2.778,250.000,1022.222,11.111,N
1636,0.105,-0.620,0.075,194.444,2.778,230.556,994.444,27.778,N
1637,0.240,-0.230,0.500,197.222,2.778,244.444,930.556,63.889,N
1638,0.610,0.015,0.575,197.222,2.778,241.667,950.000,19.444,N
1639,0.395,-0.230,0.375,197.222,0.000,225.000,919.444,30.556,N
1640,-0.105,-0.620,0.025,197.222,0.000,219.444,966.667,47.222,N
1641,-0.195,-0.645,0.085,63.889,2.778,216.667,977.778,11.111,N
1642,0.025,-0.620,0.155,197.222,0.000,205.556,961.111,16.667,N
1643,0.095,-0.750,-0.175,191.667,2.778,213.889,894.444,66.667,N
1644,-0.125,-0.675,-0.050,197.222,2.778,244.444,883.333,11.111,N
1645,0.120,-0.500,0.305,197.222,0.000,227.778,883.333,0.000,N
1646,0.330,-0.370,0.185,194.444,0.000,197.222,880.556,2.778,N
1647,-0.020,-0.555,-0.055,197.222,2.778,252.778,908.333,27.778,N
1648,-0.320,-0.790,-0.285,69.444,0.000,233.333,936.111,27.778,N
1649,-0.495,-1.115,-0.665,175.000,0.000,166.667,919.444,16.667,N
1650,-0.125,-1.885,-0.125,1695500.000,2.778,-1695500.000,863.889,55.556,N
1651,-0.895,-1.315,-0.520,197.222,0.000,322.222,841.667,22.222,N
1652,-0.545,-1.080,-0.320,197.222,2.778,225.000,894.444,52.778,N
1653,-0.320,-0.855,-0.010,197.222,2.778,244.444,883.333,11.111,N
1654,-0.015,-0.580,0.045,197.222,2.778,230.556,900.000,16.667,N
1655,0.095,-0.520,0.170,197.222,11.111,197.222,891.667,8.333,N
1656,0.140,-0.700,0.025,197.222,0.000,225.000,875.000,16.667,N
1657,0.010,-0.790,-0.075,191.667,2.778,205.556,852.778,22.222,N
1658,0.105,-0.555,0.145,191.667,0.000,33.333,827.778,25.000,N
1659,0.115,-0.505,0.235,191.667,0.000,200.000,827.778,0.000,N
1660,0.125,-0.785,-0.075,197.222,0.000,244.444,872.222,44.444,N
1661,0.065,-0.625,0.815,197.222,8.333,258.333,863.889,8.333,N
1662,0.690,0.120,0.470,197.222,19.444,261.111,847.222,16.667,N
1663,0.465,-0.185,0.325,194.444,13.889,247.222,841.667,5.556,N
1664,0.470,-0.095,0.430,191.667,13.889,225.000,836.111,5.556,N
1665,0.425,-0.385,0.175,197.222,0.000,80.556,827.778,8.333,N
1666,-0.710,-1.065,-0.275,191.667,11.111,241.667,830.556,2.778,N
1667,-0.060,-0.540,-0.025,58.333,16.667,275.000,869.444,38.889,N
1668,0.080,-0.310,0.215,63.889,13.889,283.333,916.667,47.222,N
1669,0.305,-0.150,0.290,197.222,30.556,280.556,883.333,33.333,N
1670,0.060,-0.325,0.175,47.222,2.778,47.222,897.222,13.889,N
1671,-0.045,-0.495,0.095,197.222,2.778,211.111,855.556,41.667,N
1672,-0.210,-0.825,-0.290,197.222,2.778,202.778,875.000,19.444,N
1673,-0.450,-1.070,-0.480,197.222,5.556,247.222,852.778,22.222,N
1674,-0.455,-1.010,-0.390,197.222,2.778,238.889,861.111,8.333,N
1675,-0.695,-1.310,-0.650,197.222,2.778,225.000,911.111,50.000,N
1676,-0.685,-1.800,-0.125,194.444,16.667,-1717991.667,869.444,41.667,N
1677,-0.125,-1.660,0.565,1718830.556,19.444,358.333,825.000,44.444,N
1678,0.920,0.085,0.620,188.889,11.111,236.111,786.111,38.889,N
1679,0.425,0.575,0.320,197.222,80.556,141.667,480.556,305.556,V
1680,0.685,-0.010,0.005,163.889,13.889,127.778,177.778,302.778,x
1681,-0.125,-2.355,-0.125,1721230.556,11.111,-1721222.222,955.556,777.778,N
1682,-0.950,-1.175,-0.600,58.333,16.667,347.222,797.222,158.333,N
1683,-0.065,-0.460,-0.040,47.222,0.000,222.222,827.778,30.556,N
1684,0.125,-0.305,0.420,61.111,2.778,269.444,855.556,27.778,N
1685,0.690,0.290,1.120,197.222,2.778,225.000,813.889,41.667,N
1686,1.400,0.945,1.785,194.444,13.889,211.111,786.111,27.778,N
1687,-0.125,1.050,2.365,1726080.556,0.000,930372.222,769.444,16.667,N
1688,-0.125,1.485,2.365,1726855.556,0.000,930372.222,775.000,5.556,N
1689,1.245,0.480,0.735,197.222,5.556,38.889,816.667,41.667,N
1690,0.245,-0.400,-0.090,197.222,5.556,213.889,813.889,2.778,N
1691,-0.305,-0.920,-0.195,194.444,2.778,194.444,819.444,5.556,N
1692,-0.290,-0.815,-0.180,72.222,0.000,230.556,869.444,50.000,N
1693,-0.085,-0.560,0.090,197.222,0.000,225.000,813.889,55.556,N
1694,0.190,-0.390,0.115,197.222,11.111,194.444,786.111,27.778,N
1695,-0.090,-0.825,-0.190,197.222,16.667,211.111,797.222,11.111,N
1696,-0.420,-1.190,-0.470,197.222,2.778,219.444,802.778,5.556,N
1697,-0.745,-1.360,-0.630,197.222,2.778,236.111,852.778,50.000,N
1698,-0.610,-0.945,-0.400,197.222,16.667,244.444,863.889,11.111,N
1699,-0.525,-1.220,-0.550,197.222,0.000,238.889,833.333,30.556,N
1700,-0.715,-1.340,-0.640,197.222,0.000,213.889,855.556,22.222,N
1701,-0.550,-1.170,-0.415,194.444,2.778,233.333,813.889,41.667,N
1702,-0.215,-0.905,-0.040,194.444,0.000,227.778,777.778,36.111,N
1703,-0.140,-0.740,0.005,197.222,0.000,250.000,808.333,30.556,N
1704,-0.005,-0.510,0.145,197.222,19.444,202.778,811.111,2.778,N
1705,0.010,-0.515,0.260,197.222,2.778,241.667,883.333,72.222,N
1706,0.120,-0.670,0.525,58.333,2.778,152.778,844.444,38.889,N
1707,0.225,-0.580,0.060,191.667,13.889,219.444,836.111,8.333,N
1708,-0.115,-0.790,0.000,197.222,2.778,230.556,844.444,8.333,N
1709,0.025,-0.815,0.080,197.222,11.111,219.444,805.556,38.889,N
1710,0.265,-0.260,0.205,50.000,19.444,252.778,783.333,22.222,N
1711,0.375,-0.240,0.305,47.222,2.778,241.667,822.222,38.889,N
1712,0.435,-0.180,0.270,50.000,2.778,222.222,841.667,19.444,N
1713,0.040,-0.495,0.145,197.222,2.778,255.556,869.444,27.778,N
1714,0.415,-0.180,0.345,38.889,2.778,205.556,850.000,19.444,N
1715,0.330,-0.545,0.035,197.222,2.778,247.222,825.000,25.000,N
1716,0.020,-0.655,0.175,197.222,2.778,252.778,833.333,8.333,N
1717,0.310,-0.395,0.570,197.222,2.778,227.778,819.444,13.889,N
1718,0.400,-0.320,0.280,197.222,13.889,247.222,830.556,11.111,N
1719,0.085,-0.405,0.125,61.111,8.333,222.222,847.222,16.667,N
1720,0.015,-0.615,0.060,52.778,2.778,341.667,855.556,8.333,N
1721,-0.030,-0.680,-0.220,50.000,2.778,219.444,597.222,258.333,A
1722,-0.385,-0.945,-0.550,197.222,2.778,186.111,1130.556,533.333,N
1723,-0.500,-1.250,-0.625,194.444,2.778,208.333,788.889,341.667,N
1724,-0.600,-1.305,-0.630,197.222,2.778,236.111,844.444,55.556,N
1725,-0.650,-1.265,-0.570,197.222,2.778,211.111,836.111,8.333,N
1726,-0.435,-1.025,-0.180,36.111,2.778,238.889,844.444,8.333,N
1727,-0.190,-0.740,-0.060,44.444,2.778,238.889,861.111,16.667,N
1728,-0.265,-0.770,-0.215,197.222,2.778,213.889,863.889,2.778,N
1729,-0.655,-1.135,-0.560,197.222,5.556,219.444,866.667,2.778,N
1730,-0.345,-0.960,-0.305,197.222,2.778,211.111,813.889,52.778,N
1731,-0.305,-1.010,-0.405,194.444,5.556,219.444,797.222,16.667,N
1732,-0.245,-0.710,-0.160,47.222,2.778,236.111,847.222,50.000,N
1733,-0.135,-0.575,0.030,197.222,2.778,233.333,850.000,2.778,N
1734,0.150,-0.375,0.605,61.111,2.778,233.333,869.444,19.444,N
1735,0.420,-0.130,0.540,197.222,13.889,238.889,869.444,0.000,N
1736,0.585,0.035,0.585,197.222,13.889,250.000,855.556,13.889,N
1737,0.515,-0.150,0.425,197.222,5.556,211.111,850.000,5.556,N
1738,0.430,-0.455,0.205,197.222,2.778,213.889,825.000,25.000,N
1739,0.290,-0.405,0.155,197.222,13.889,222.222,838.889,13.889,N
1740,-0.005,-0.525,0.040,61.111,5.556,230.556,891.667,52.778,N
1741,-0.120,-0.735,-0.085,197.222,11.111,252.778,888.889,2.778,N
1742,-0.245,-0.930,-0.310,197.222,5.556,230.556,877.778,11.111,N
1743,-0.155,-0.775,-0.200,197.222,13.889,211.111,886.111,8.333,N
1744,-0.060,-0.675,-0.135,197.222,13.889,202.778,836.111,50.000,N
1745,0.025,-0.755,-0.105,197.222,2.778,200.000,863.889,27.778,N
1746,-0.025,-0.760,-0.115,197.222,5.556,200.000,836.111,27.778,N
1747,-0.110,-0.755,-0.040,197.222,2.778,241.667,877.778,41.667,N
1748,-0.020,-0.820,-0.115,197.222,0.000,211.111,930.556,52.778,N
1749,-0.010,-0.640,-0.055,197.222,11.111,252.778,913.889,16.667,N
1750,0.115,-0.680,-0.130,197.222,8.333,227.778,838.889,75.000,N
1751,0.005,-0.655,-0.245,183.333,16.667,247.222,841.667,2.778,N
1752,0.030,-0.620,-0.055,197.222,16.667,275.000,861.111,19.444,N
1753,0.060,-0.400,0.160,197.222,13.889,222.222,905.556,44.444,N
1754,-0.720,-1.295,-0.515,197.222,0.000,244.444,938.889,33.333,N
1755,-0.145,-0.655,0.165,38.889,0.000,230.556,977.778,38.889,N
1756,-0.225,-0.890,-0.005,33.333,0.000,208.333,980.556,2.778,N
1757,-0.400,-1.205,-0.490,194.444,0.000,202.778,891.667,88.889,N
1758,-0.680,-1.410,-0.505,197.222,2.778,211.111,886.111,5.556,N
1759,-0.470,-1.010,-0.370,197.222,0.000,211.111,908.333,22.222,N
1760,-0.150,-0.740,-0.150,197.222,2.778,238.889,908.333,0.000,N
1761,-0.060,-0.685,0.050,194.444,2.778,238.889,913.889,5.556,N
1762,0.060,-0.475,0.310,36.111,2.778,236.111,941.667,27.778,N
1763,0.490,-0.315,0.365,191.667,0.000,205.556,894.444,47.222,N
1764,0.175,-0.420,0.185,183.333,5.556,236.111,836.111,58.333,N
1765,0.485,-0.185,0.470,197.222,2.778,280.556,816.667,19.444,N
1766,0.990,1.040,1.055,30.556,77.778,308.333,805.556,11.111,N
1767,0.605,-0.005,0.430,52.778,2.778,105.556,927.778,122.222,N
1768,0.010,-0.605,-0.105,52.778,0.000,244.444,886.111,41.667,N
1769,-0.275,-0.915,-0.325,197.222,11.111,188.889,894.444,8.333,N
1770,-0.325,-0.825,-0.330,36.111,13.889,238.889,919.444,25.000,N
1771,-0.320,-0.885,-0.370,44.444,2.778,269.444,880.556,38.889,N
1772,-0.200,-0.885,-0.300,197.222,2.778,208.333,855.556,25.000,N
1773,-0.140,-0.890,-0.295,191.667,2.778,186.111,875.000,19.444,N
1774,-0.345,-0.900,-0.165,41.667,0.000,208.333,930.556,55.556,N
1775,-0.035,-0.840,-0.070,197.222,2.778,200.000,922.222,8.333,N
1776,-0.085,-0.790,-0.160,194.444,5.556,230.556,894.444,27.778,N
1777,-0.005,-0.680,-0.035,197.222,2.778,216.667,880.556,13.889,N
1778,0.075,-0.725,0.025,188.889,2.778,216.667,836.111,44.444,N