id,Pamp,Ramp,Tamp,PR,QRS,QT,RRI,dRRI,label
1,-0.770,0.140,-0.600,136.111,108.333,394.444,655.556,22.222,L
2,-0.785,0.115,-0.390,197.222,113.889,402.778,669.444,13.889,L
3,-0.595,0.325,-0.305,197.222,108.333,397.222,663.889,5.556,L
4,-0.550,0.475,-0.200,83.333,113.889,405.556,655.556,8.333,L
5,-0.455,0.685,-0.150,69.444,116.667,405.556,672.222,16.667,L
6,-0.345,0.400,-0.120,194.444,100.000,388.889,636.111,36.111,L
7,-0.225,0.430,-0.080,197.222,94.444,358.333,625.000,11.111,L
8,-0.245,0.605,0.065,197.222,102.778,377.778,600.000,25.000,L
9,-0.185,0.595,0.145,175.000,111.111,405.556,627.778,27.778,L
10,-0.230,0.745,0.105,77.778,113.889,402.778,616.667,11.111,L
11,-0.195,0.940,0.020,197.222,111.111,400.000,647.222,30.556,L
12,-0.200,0.730,-0.040,197.222,113.889,391.667,655.556,8.333,L
13,-0.320,0.540,-0.050,66.667,113.889,402.778,650.000,5.556,L
14,-0.215,0.600,-0.010,197.222,108.333,391.667,630.556,19.444,L
15,-0.275,0.775,-0.005,197.222,105.556,391.667,633.333,2.778,L
16,-0.095,0.910,-0.070,197.222,102.778,397.222,619.444,13.889,L
17,-0.265,0.640,-0.055,197.222,105.556,372.222,600.000,19.444,L
18,-0.170,0.625,-0.010,197.222,111.111,386.111,583.333,16.667,L
19,-0.175,0.815,0.040,197.222,108.333,386.111,605.556,22.222,L
20,-0.070,0.930,0.030,197.222,105.556,391.667,611.111,5.556,L
21,-0.310,1.040,-0.040,197.222,113.889,402.778,638.889,27.778,L
22,-0.390,0.755,-0.030,86.111,116.667,405.556,650.000,11.111,L
23,-0.265,0.825,0.020,197.222,113.889,402.778,633.333,16.667,L
24,-0.155,0.965,0.020,197.222,108.333,366.667,630.556,2.778,L
25,-0.100,1.500,-0.120,197.222,94.444,383.333,588.889,41.667,F
26,-0.275,1.150,-0.070,197.222,108.333,377.778,619.444,30.556,L
27,-0.160,0.860,-0.105,197.222,105.556,394.444,594.444,25.000,L
28,-0.235,0.900,0.005,197.222,105.556,366.667,616.667,22.222,L
29,-0.250,1.025,-0.010,197.222,111.111,386.111,600.000,16.667,L
30,-0.315,1.115,-0.005,197.222,111.111,394.444,619.444,19.444,L
31,-0.290,1.200,-0.100,197.222,113.889,405.556,630.556,11.111,L
32,-0.330,1.045,-0.085,197.222,116.667,402.778,666.667,36.111,L
33,-0.335,1.010,-0.025,197.222,111.111,397.222,675.000,8.333,L
34,-0.220,1.155,-0.025,197.222,105.556,394.444,625.000,50.000,L
35,-0.115,1.205,-0.010,197.222,105.556,386.111,611.111,13.889,L
36,-0.230,1.280,0.005,197.222,105.556,391.667,625.000,13.889,L
37,-0.220,1.345,0.005,197.222,105.556,394.444,650.000,25.000,L
38,-0.220,1.220,0.005,197.222,113.889,405.556,627.778,22.222,L
39,-0.105,1.140,-0.030,197.222,111.111,391.667,627.778,0.000,L
40,-0.270,1.175,-0.010,197.222,111.111,386.111,658.333,30.556,L
41,-0.185,1.220,-0.050,197.222,108.333,391.667,672.222,13.889,L
42,-0.335,1.215,-0.110,77.778,108.333,377.778,683.333,11.111,L
43,-0.385,1.215,-0.155,69.444,116.667,375.000,675.000,8.333,L
44,-0.330,1.230,-0.170,197.222,105.556,361.111,636.111,38.889,L
45,-0.205,1.055,-0.120,197.222,102.778,355.556,625.000,11.111,L
46,-0.285,1.090,-0.030,197.222,105.556,380.556,638.889,13.889,L
47,-0.180,1.465,-0.060,197.222,77.778,355.556,652.778,13.889,F
48,-0.170,1.375,0.095,86.111,113.889,391.667,663.889,11.111,L
49,-0.115,1.400,0.105,197.222,105.556,380.556,652.778,11.111,L
50,-0.090,1.450,0.110,69.444,105.556,394.444,683.333,30.556,L
51,-0.095,1.425,0.060,197.222,102.778,372.222,686.111,2.778,L
52,-0.180,1.425,0.020,72.222,105.556,361.111,683.333,2.778,L
53,-0.195,1.290,0.030,63.889,111.111,372.222,672.222,11.111,L
54,-0.120,1.295,0.020,197.222,105.556,375.000,644.444,27.778,L
55,-0.080,1.355,0.010,197.222,108.333,366.667,641.667,2.778,L
56,-0.215,1.345,-0.025,72.222,105.556,380.556,655.556,13.889,L
57,-0.275,1.305,-0.075,69.444,108.333,383.333,700.000,44.444,L
58,-0.095,0.445,0.335,150.000,100.000,344.444,577.778,122.222,V
59,-0.300,1.310,-0.125,197.222,113.889,391.667,800.000,222.222,L
60,-0.360,1.110,-0.120,80.556,113.889,391.667,697.222,102.778,L
61,-0.280,1.175,-0.095,197.222,105.556,372.222,697.222,0.000,L
62,-0.295,1.270,-0.105,197.222,108.333,363.889,677.778,19.444,L
63,-0.300,1.305,-0.085,197.222,105.556,355.556,675.000,2.778,L
64,-0.345,1.320,-0.130,66.667,108.333,352.778,655.556,19.444,L
65,-0.275,1.375,-0.165,197.222,105.556,372.222,644.444,11.111,L
66,-0.400,1.220,-0.175,72.222,116.667,402.778,691.667,47.222,L
67,-0.350,1.215,-0.110,69.444,113.889,402.778,730.556,38.889,L
68,-0.320,1.300,-0.115,61.111,111.111,372.222,711.111,19.444,L
69,-0.330,1.350,-0.115,69.444,105.556,380.556,691.667,19.444,L
70,-0.345,1.460,-0.140,66.667,111.111,386.111,694.444,2.778,L
71,-0.335,1.320,-0.090,69.444,111.111,369.444,672.222,22.222,L
72,-0.300,1.265,-0.045,66.667,111.111,383.333,683.333,11.111,L
73,-0.185,1.370,-0.040,197.222,108.333,372.222,663.889,19.444,L
74,-0.160,1.420,-0.045,197.222,105.556,366.667,666.667,2.778,L
75,-0.250,1.500,-0.060,69.444,113.889,394.444,697.222,30.556,L
76,-0.255,1.485,-0.060,75.000,113.889,377.778,744.444,47.222,L
77,-0.255,1.240,-0.030,72.222,111.111,383.333,713.889,30.556,L
78,-0.250,1.250,-0.035,80.556,113.889,383.333,694.444,19.444,L
79,-0.260,1.330,-0.020,69.444,111.111,383.333,686.111,8.333,L
80,-0.160,1.415,-0.045,197.222,111.111,386.111,663.889,22.222,L
81,-0.205,1.450,-0.070,197.222,105.556,386.111,680.556,16.667,L
82,-0.205,1.440,-0.080,197.222,94.444,361.111,686.111,5.556,L
83,-0.270,1.235,-0.030,197.222,111.111,375.000,677.778,8.333,L
84,-0.245,1.350,-0.040,66.667,116.667,405.556,691.667,13.889,L
85,-0.230,1.445,-0.025,75.000,113.889,394.444,744.444,52.778,L
86,-0.225,1.495,-0.035,72.222,105.556,397.222,725.000,19.444,L
87,-0.200,1.375,-0.065,197.222,105.556,361.111,697.222,27.778,L
88,-0.240,1.200,-0.060,197.222,108.333,369.444,680.556,16.667,L
89,-0.230,1.290,-0.015,197.222,97.222,355.556,675.000,5.556,L
90,-0.240,1.415,-0.020,63.889,108.333,372.222,672.222,2.778,L
91,-0.235,1.470,-0.030,75.000,105.556,363.889,694.444,22.222,L
92,-0.270,1.520,-0.060,77.778,108.333,388.889,688.889,5.556,L
93,-0.295,1.330,-0.070,197.222,111.111,388.889,702.778,13.889,L
94,-0.275,1.270,-0.030,69.444,111.111,394.444,725.000,22.222,L
95,-0.250,1.415,-0.020,66.667,108.333,391.667,741.667,16.667,L
96,-0.255,1.495,-0.045,61.111,105.556,358.333,694.444,47.222,L
97,-0.285,1.530,-0.110,197.222,102.778,347.222,661.111,33.333,L
98,-0.345,1.255,-0.105,72.222,100.000,352.778,669.444,8.333,L
99,-0.305,1.255,-0.045,75.000,105.556,377.778,666.667,2.778,L
100,-0.285,1.455,-0.035,69.444,111.111,400.000,694.444,27.778,L
101,-0.260,1.495,-0.075,197.222,111.111,388.889,711.111,16.667,L
102,-0.290,1.550,-0.080,80.556,111.111,377.778,719.444,8.333,L
103,-0.295,1.415,-0.085,75.000,111.111,394.444,713.889,5.556,L
104,-0.270,1.330,-0.030,69.444,113.889,383.333,744.444,30.556,L
105,-0.255,1.440,-0.060,72.222,111.111,369.444,697.222,47.222,L
106,-0.185,1.510,-0.050,197.222,111.111,372.222,663.889,33.333,L
107,-0.270,1.555,-0.075,197.222,111.111,372.222,666.667,2.778,L
108,-0.260,1.425,-0.080,197.222,105.556,388.889,677.778,11.111,L
109,-0.265,1.250,-0.025,72.222,111.111,397.222,713.889,36.111,L
110,-0.240,1.365,-0.045,66.667,113.889,386.111,725.000,11.111,L
111,-0.250,1.435,-0.030,69.444,105.556,380.556,722.222,2.778,L
112,-0.255,1.465,-0.090,80.556,113.889,388.889,708.333,13.889,L
113,-0.110,0.595,0.395,102.778,86.111,344.444,558.333,150.000,V
114,-0.265,1.240,-0.065,197.222,111.111,394.444,858.333,300.000,L
115,-0.105,1.250,-0.060,197.222,100.000,372.222,663.889,194.444,L
116,-0.135,1.410,-0.010,197.222,108.333,386.111,688.889,25.000,L
117,-0.125,1.440,-0.060,197.222,105.556,383.333,686.111,2.778,L
118,-0.270,1.430,-0.060,72.222,105.556,394.444,725.000,38.889,L
119,-0.235,1.455,-0.070,77.778,108.333,377.778,750.000,25.000,L
120,-0.290,1.395,-0.100,63.889,113.889,391.667,722.222,27.778,L
121,-0.285,1.255,-0.065,66.667,113.889,402.778,702.778,19.444,L
122,-0.255,1.335,-0.040,75.000,108.333,391.667,725.000,22.222,L
123,-0.180,1.385,-0.050,197.222,102.778,375.000,697.222,27.778,L
124,-0.150,1.420,-0.060,197.222,100.000,361.111,677.778,19.444,L
125,-0.220,1.410,-0.090,197.222,100.000,386.111,677.778,0.000,L
126,-0.285,1.465,-0.105,197.222,100.000,380.556,705.556,27.778,L
127,-0.315,1.295,-0.095,63.889,111.111,388.889,727.778,22.222,L
128,-0.285,1.340,-0.065,72.222,116.667,402.778,758.333,30.556,L
129,-0.275,1.375,-0.055,75.000,108.333,394.444,722.222,36.111,L
130,-0.210,1.440,-0.035,197.222,102.778,375.000,694.444,27.778,L
131,-0.275,1.450,-0.075,69.444,108.333,394.444,702.778,8.333,L
132,-0.270,1.455,-0.155,197.222,102.778,366.667,711.111,8.333,L
133,-0.315,1.165,-0.125,197.222,100.000,355.556,688.889,22.222,L
134,-0.305,1.160,-0.090,197.222,108.333,386.111,675.000,13.889,L
135,-0.095,0.395,0.415,119.444,88.889,350.000,558.333,116.667,V
136,-0.285,1.400,-0.100,75.000,116.667,402.778,883.333,325.000,L
137,-0.355,1.340,-0.160,77.778,113.889,394.444,736.111,147.222,L
138,-0.345,1.265,-0.160,69.444,113.889,388.889,727.778,8.333,L
139,-0.320,1.090,-0.125,197.222,102.778,363.889,686.111,41.667,L
140,-0.305,1.255,-0.080,69.444,108.333,386.111,680.556,5.556,L
141,-0.280,1.395,-0.045,72.222,111.111,369.444,713.889,33.333,L
142,-0.245,1.445,-0.070,72.222,102.778,358.333,691.667,22.222,L
143,-0.265,1.295,-0.065,75.000,108.333,377.778,683.333,8.333,L
144,-0.230,1.250,-0.015,77.778,111.111,388.889,719.444,36.111,L
145,-0.200,1.340,-0.005,72.222,111.111,400.000,727.778,8.333,L
146,-0.210,1.425,-0.045,63.889,111.111,388.889,738.889,11.111,L
147,-0.170,1.440,-0.040,197.222,102.778,380.556,719.444,19.444,L
148,-0.155,1.435,-0.075,197.222,100.000,358.333,691.667,27.778,L
149,-0.245,1.205,-0.055,197.222,102.778,375.000,686.111,5.556,L
150,-0.260,1.280,-0.055,72.222,108.333,377.778,713.889,27.778,L
151,-0.260,1.350,-0.075,72.222,111.111,397.222,700.000,13.889,L
152,-0.265,1.375,-0.100,197.222,113.889,391.667,711.111,11.111,L
153,-0.305,1.430,-0.135,63.889,113.889,402.778,730.556,19.444,L
154,-0.320,1.200,-0.105,77.778,111.111,391.667,730.556,0.000,L
155,-0.285,1.250,-0.090,80.556,113.889,388.889,738.889,8.333,L
156,-0.285,1.385,-0.040,66.667,102.778,358.333,722.222,16.667,L
157,-0.235,1.445,-0.020,72.222,100.000,358.333,683.333,38.889,L
158,-0.200,1.485,-0.060,197.222,105.556,377.778,669.444,13.889,L
159,-0.270,1.425,-0.065,69.444,113.889,402.778,711.111,41.667,L
160,-0.255,1.335,-0.020,69.444,113.889,402.778,713.889,2.778,L
161,-0.230,1.445,0.000,69.444,105.556,377.778,725.000,11.111,L
162,-0.200,1.580,0.045,80.556,108.333,391.667,722.222,2.778,L
163,-0.190,1.655,0.020,72.222,102.778,361.111,725.000,2.778,L
164,-0.215,1.685,-0.020,63.889,113.889,391.667,711.111,13.889,L
165,-0.235,1.505,0.005,75.000,105.556,391.667,708.333,2.778,L
166,-0.130,1.540,0.060,197.222,105.556,380.556,677.778,30.556,L
167,-0.090,1.650,0.050,197.222,102.778,377.778,672.222,5.556,L
168,-0.190,1.705,0.030,69.444,111.111,397.222,697.222,25.000,L
169,-0.205,1.730,0.035,80.556,113.889,391.667,744.444,47.222,L
170,-0.205,1.720,0.025,77.778,108.333,394.444,727.778,16.667,L
171,-0.200,1.770,-0.005,80.556,113.889,391.667,702.778,25.000,L
172,-0.230,1.710,-0.015,69.444,116.667,375.000,722.222,19.444,L
173,-0.210,1.570,0.025,197.222,102.778,391.667,688.889,33.333,L
174,-0.185,1.660,0.040,75.000,105.556,375.000,700.000,11.111,L
175,-0.065,1.725,0.050,197.222,105.556,372.222,688.889,11.111,L
176,-0.125,1.760,0.030,197.222,100.000,361.111,688.889,0.000,L
177,-0.215,1.705,-0.045,77.778,108.333,388.889,694.444,5.556,L
178,-0.250,1.675,-0.015,69.444,113.889,402.778,758.333,63.889,L
179,-0.230,1.705,-0.015,72.222,113.889,402.778,733.333,25.000,L
180,-0.175,1.700,-0.010,197.222,102.778,394.444,702.778,30.556,L
181,-0.210,1.700,-0.040,197.222,111.111,388.889,705.556,2.778,L
182,-0.125,1.500,-0.030,197.222,100.000,377.778,688.889,16.667,L
183,-0.185,1.535,-0.010,197.222,102.778,375.000,686.111,2.778,L
184,-0.035,0.620,0.220,166.667,83.333,330.556,633.333,52.778,V
185,-0.210,1.635,-0.015,69.444,111.111,386.111,747.222,113.889,L
186,-0.265,1.570,-0.030,83.333,113.889,405.556,683.333,63.889,L
187,-0.240,1.610,-0.065,77.778,113.889,402.778,733.333,50.000,L
188,-0.245,1.420,-0.090,66.667,116.667,405.556,733.333,0.000,L
189,-0.270,1.235,-0.035,63.889,105.556,375.000,711.111,22.222,L
190,-0.220,1.245,-0.005,197.222,100.000,369.444,666.667,44.444,L
191,-0.215,1.380,-0.015,69.444,111.111,355.556,672.222,5.556,L
192,-0.245,1.445,-0.030,66.667,111.111,391.667,661.111,11.111,L
193,-0.220,1.470,-0.035,69.444,111.111,383.333,688.889,27.778,L
194,-0.255,1.450,-0.085,69.444,105.556,394.444,686.111,2.778,L
195,-0.270,1.155,-0.080,197.222,111.111,388.889,708.333,22.222,L
196,-0.260,1.210,-0.050,83.333,113.889,402.778,719.444,11.111,L
197,-0.260,1.285,-0.065,75.000,108.333,391.667,744.444,25.000,L
198,-0.280,1.310,-0.075,66.667,113.889,388.889,708.333,36.111,L
199,-0.155,1.395,-0.120,197.222,102.778,380.556,663.889,44.444,L
200,-0.300,1.180,-0.125,197.222,102.778,377.778,672.222,8.333,L
201,-0.260,1.055,-0.045,197.222,102.778,397.222,666.667,5.556,L
202,-0.235,1.235,-0.030,69.444,113.889,394.444,697.222,30.556,L
203,-0.235,1.350,-0.025,197.222,102.778,383.333,716.667,19.444,L
204,-0.265,1.370,-0.065,66.667,105.556,380.556,700.000,16.667,L
205,-0.265,1.465,-0.115,72.222,113.889,402.778,700.000,0.000,L
206,-0.305,1.170,-0.090,77.778,111.111,391.667,741.667,41.667,L
207,-0.225,1.150,-0.030,197.222,102.778,380.556,697.222,44.444,L
208,-0.130,1.285,-0.015,197.222,100.000,372.222,669.444,27.778,L
209,-0.145,1.420,0.010,197.222,102.778,366.667,661.111,8.333,L
210,-0.150,1.490,0.005,197.222,94.444,366.667,675.000,13.889,L
211,-0.200,1.520,-0.025,63.889,113.889,388.889,688.889,13.889,L
212,-0.195,1.285,-0.010,77.778,116.667,383.333,727.778,38.889,L
213,-0.185,1.320,0.000,72.222,113.889,386.111,711.111,16.667,L
214,-0.180,1.455,0.030,72.222,105.556,397.222,697.222,13.889,L
215,-0.170,1.495,0.010,72.222,111.111,397.222,719.444,22.222,L
216,-0.185,1.520,0.000,197.222,102.778,366.667,708.333,11.111,L
217,-0.135,1.250,0.015,197.222,100.000,344.444,666.667,41.667,L
218,-0.150,1.330,0.045,197.222,111.111,372.222,650.000,16.667,L
219,-0.165,1.430,0.020,69.444,108.333,363.889,675.000,25.000,L
220,-0.180,1.475,0.010,77.778,113.889,394.444,675.000,0.000,L
221,-0.175,1.540,-0.005,75.000,113.889,400.000,711.111,36.111,L
222,-0.185,1.375,0.000,197.222,105.556,394.444,713.889,2.778,L
223,-0.165,1.300,0.055,197.222,108.333,388.889,705.556,8.333,L
224,-0.180,1.410,0.040,72.222,102.778,377.778,680.556,25.000,L
225,-0.175,1.500,0.060,75.000,102.778,377.778,700.000,19.444,L
226,-0.120,1.530,0.000,197.222,105.556,377.778,666.667,33.333,L
227,-0.055,1.295,-0.040,197.222,102.778,375.000,652.778,13.889,L
228,-0.170,1.320,-0.010,197.222,108.333,388.889,669.444,16.667,L
229,-0.140,1.415,-0.010,197.222,108.333,397.222,688.889,19.444,L
230,-0.250,1.460,-0.045,63.889,111.111,388.889,727.778,38.889,L
231,-0.260,1.475,-0.030,86.111,108.333,397.222,741.667,13.889,L
232,-0.260,1.520,-0.060,75.000,108.333,377.778,702.778,38.889,L
233,-0.255,1.315,-0.045,197.222,108.333,380.556,683.333,19.444,L
234,-0.265,1.385,-0.030,69.444,108.333,400.000,694.444,11.111,L
235,-0.180,1.475,-0.040,197.222,97.222,372.222,688.889,5.556,L
236,-0.135,1.510,-0.040,197.222,97.222,361.111,683.333,5.556,L
237,-0.195,1.550,-0.065,197.222,105.556,380.556,677.778,5.556,L
238,-0.295,1.560,-0.095,83.333,102.778,394.444,716.667,38.889,L
239,-0.315,1.435,-0.085,69.444,102.778,391.667,738.889,22.222,L
240,-0.310,1.440,-0.075,83.333,116.667,391.667,744.444,5.556,L
241,-0.300,1.475,-0.090,66.667,102.778,375.000,705.556,38.889,L
242,-0.250,1.510,-0.100,197.222,100.000,375.000,683.333,22.222,L
243,-0.310,1.510,-0.095,72.222,108.333,400.000,700.000,16.667,L
244,-0.230,1.580,-0.100,197.222,97.222,375.000,700.000,0.000,L
245,-0.270,1.580,-0.110,194.444,97.222,366.667,688.889,11.111,L
246,-0.290,1.465,-0.055,63.889,105.556,391.667,700.000,11.111,L
247,-0.245,1.545,-0.040,77.778,105.556,394.444,733.333,33.333,L
248,-0.235,1.595,-0.030,72.222,113.889,400.000,727.778,5.556,L
249,-0.220,1.600,-0.020,80.556,113.889,394.444,741.667,13.889,L
250,-0.205,1.645,-0.010,197.222,105.556,388.889,700.000,41.667,L
251,-0.085,1.680,0.015,197.222,100.000,363.889,672.222,27.778,L
252,-0.185,1.700,0.005,197.222,113.889,402.778,680.556,8.333,L
253,-0.190,1.700,0.005,197.222,102.778,375.000,708.333,27.778,L
254,-0.195,1.580,0.010,66.667,108.333,383.333,694.444,13.889,L
255,-0.185,1.600,0.025,80.556,116.667,397.222,694.444,0.000,L
256,-0.190,1.625,0.005,80.556,116.667,391.667,719.444,25.000,L
257,-0.220,1.535,-0.020,83.333,116.667,405.556,700.000,19.444,L
258,-0.210,1.265,0.010,66.667,113.889,391.667,716.667,16.667,L
259,-0.105,1.380,0.045,197.222,105.556,383.333,686.111,30.556,L
260,-0.095,1.490,0.050,197.222,100.000,366.667,663.889,22.222,L
261,-0.125,1.535,0.040,197.222,108.333,388.889,647.222,16.667,L
262,-0.170,1.545,-0.020,72.222,111.111,383.333,691.667,44.444,L
263,-0.205,1.260,0.005,69.444,116.667,402.778,700.000,8.333,L
264,-0.180,1.305,0.055,72.222,102.778,391.667,702.778,2.778,L
265,-0.150,1.440,0.045,69.444,113.889,402.778,694.444,8.333,L
266,-0.125,1.480,0.025,197.222,105.556,394.444,716.667,22.222,L
267,-0.145,1.530,0.005,197.222,108.333,388.889,711.111,5.556,L
268,-0.190,1.520,-0.040,197.222,102.778,372.222,700.000,11.111,L
269,-0.170,1.290,-0.015,197.222,105.556,372.222,666.667,33.333,L
270,-0.105,1.245,-0.010,197.222,105.556,380.556,658.333,8.333,L
271,-0.230,1.345,-0.050,72.222,105.556,394.444,705.556,47.222,L
272,-0.235,1.410,-0.065,72.222,108.333,397.222,727.778,22.222,L
273,-0.265,1.400,-0.095,63.889,113.889,372.222,727.778,0.000,L
274,-0.265,1.175,-0.065,69.444,105.556,394.444,708.333,19.444,L
275,-0.235,1.160,-0.040,72.222,111.111,377.778,716.667,8.333,L
276,-0.250,1.255,-0.080,77.778,113.889,394.444,691.667,25.000,L
277,-0.260,1.325,-0.075,75.000,102.778,391.667,694.444,2.778,L
278,-0.185,1.365,-0.115,197.222,105.556,388.889,669.444,25.000,L
279,-0.245,1.155,-0.130,197.222,100.000,358.333,675.000,5.556,L
280,-0.290,1.100,-0.095,69.444,113.889,402.778,700.000,25.000,L
281,-0.275,1.245,-0.080,77.778,111.111,388.889,741.667,41.667,L
282,-0.300,1.290,-0.110,72.222,113.889,388.889,725.000,16.667,L
283,-0.310,1.380,-0.140,75.000,108.333,394.444,702.778,22.222,L
284,-0.315,1.205,-0.120,63.889,108.333,397.222,705.556,2.778,L
285,-0.230,1.150,-0.070,197.222,100.000,391.667,677.778,27.778,L
286,-0.245,1.170,-0.065,197.222,108.333,380.556,683.333,5.556,L
287,-0.160,1.245,-0.030,197.222,102.778,366.667,694.444,11.111,L
288,-0.205,1.380,-0.055,197.222,111.111,375.000,683.333,11.111,L
289,-0.260,1.420,-0.090,69.444,113.889,402.778,688.889,5.556,L
290,-0.270,1.295,-0.120,63.889,113.889,402.778,741.667,52.778,L
291,-0.265,1.195,-0.080,77.778,113.889,394.444,733.333,8.333,L
292,-0.250,1.240,-0.060,194.444,100.000,375.000,711.111,22.222,L
293,-0.190,1.295,-0.040,197.222,105.556,388.889,688.889,22.222,L
294,-0.185,1.375,-0.080,197.222,100.000,363.889,686.111,2.778,L
295,-0.275,1.395,-0.085,61.111,105.556,372.222,677.778,8.333,L
296,-0.285,1.280,-0.085,63.889,111.111,388.889,702.778,25.000,L
297,-0.270,1.195,-0.055,75.000,111.111,391.667,697.222,5.556,L
298,-0.230,1.270,-0.025,197.222,108.333,388.889,700.000,2.778,L
299,-0.225,1.370,-0.050,80.556,111.111,394.444,736.111,36.111,L
300,-0.250,1.415,-0.055,69.444,108.333,380.556,758.333,22.222,L
301,-0.255,1.495,-0.080,66.667,111.111,369.444,711.111,47.222,L
302,-0.255,1.395,-0.100,197.222,105.556,372.222,666.667,44.444,L
303,-0.285,1.290,-0.080,197.222,111.111,372.222,683.333,16.667,L
304,-0.275,1.320,-0.065,72.222,105.556,375.000,672.222,11.111,L
305,-0.265,1.350,-0.065,72.222,105.556,397.222,700.000,27.778,L
306,-0.275,1.450,-0.120,197.222,108.333,400.000,713.889,13.889,L
307,-0.325,1.325,-0.115,197.222,108.333,386.111,730.556,16.667,L
308,-0.310,1.270,-0.105,69.444,111.111,400.000,716.667,13.889,L
309,-0.315,1.325,-0.075,72.222,116.667,405.556,755.556,38.889,L
310,-0.290,1.410,-0.065,197.222,111.111,391.667,708.333,47.222,L
311,-0.125,1.475,-0.050,197.222,100.000,380.556,675.000,33.333,L
312,-0.225,1.555,-0.070,197.222,105.556,394.444,680.556,5.556,L
313,-0.165,1.380,-0.065,197.222,102.778,388.889,691.667,11.111,L
314,-0.265,1.285,-0.025,75.000,108.333,391.667,716.667,25.000,L
315,-0.230,1.350,-0.020,75.000,108.333,391.667,736.111,19.444,L
316,-0.235,1.420,-0.020,72.222,113.889,402.778,725.000,11.111,L
317,-0.250,1.535,-0.005,77.778,111.111,391.667,711.111,13.889,L
318,-0.230,1.595,-0.045,77.778,111.111,397.222,727.778,16.667,L
319,-0.185,1.595,-0.030,197.222,105.556,375.000,702.778,25.000,L
320,-0.125,1.430,0.020,197.222,100.000,369.444,683.333,19.444,L
321,-0.115,1.480,0.040,197.222,105.556,366.667,669.444,13.889,L
322,-0.175,1.540,0.045,197.222,100.000,391.667,691.667,22.222,L
323,-0.170,1.625,0.035,75.000,111.111,402.778,716.667,25.000,L
324,-0.160,1.700,0.035,83.333,116.667,405.556,744.444,27.778,L
325,-0.175,1.735,0.010,69.444,113.889,388.889,719.444,25.000,L
326,-0.165,1.530,0.025,197.222,102.778,391.667,705.556,13.889,L
327,-0.185,1.500,0.050,72.222,108.333,400.000,713.889,8.333,L
328,-0.155,1.525,0.045,197.222,100.000,372.222,705.556,8.333,L
329,-0.190,1.605,0.025,77.778,105.556,372.222,683.333,22.222,L
330,-0.180,1.670,-0.015,197.222,105.556,372.222,669.444,13.889,L
331,-0.220,1.540,-0.040,69.444,113.889,386.111,702.778,33.333,L
332,-0.250,1.340,-0.035,75.000,113.889,400.000,711.111,8.333,L
333,-0.215,1.345,-0.005,77.778,111.111,400.000,747.222,36.111,L
334,-0.195,1.420,0.010,72.222,108.333,394.444,727.778,19.444,L
335,-0.160,1.495,0.010,197.222,100.000,361.111,700.000,27.778,L
336,-0.205,1.590,-0.010,197.222,108.333,388.889,697.222,2.778,L
337,-0.230,1.450,-0.025,69.444,102.778,380.556,719.444,22.222,L
338,-0.195,1.295,0.000,197.222,108.333,372.222,677.778,41.667,L
339,0.300,-0.905,0.090,80.556,0.000,241.667,558.333,119.444,V
340,-0.225,1.345,-0.020,80.556,113.889,402.778,808.333,250.000,L
341,-0.275,1.405,-0.100,63.889,111.111,400.000,702.778,105.556,L
342,-0.260,1.350,-0.125,80.556,113.889,400.000,747.222,44.444,L
343,-0.280,1.140,-0.065,197.222,102.778,377.778,719.444,27.778,L
344,-0.190,1.260,-0.035,197.222,100.000,358.333,688.889,30.556,L
345,-0.210,1.380,-0.040,197.222,108.333,388.889,658.333,30.556,L
346,-0.265,1.325,-0.085,69.444,108.333,380.556,688.889,30.556,L
347,-0.190,0.820,-0.120,197.222,108.333,386.111,661.111,27.778,L
348,-0.175,0.815,-0.015,197.222,102.778,377.778,658.333,2.778,L
349,-0.210,0.830,-0.010,197.222,105.556,386.111,669.444,11.111,L
350,-0.335,1.010,-0.055,63.889,105.556,388.889,688.889,19.444,L
351,-0.250,1.135,0.005,66.667,111.111,400.000,691.667,2.778,L
352,-0.205,1.200,0.000,83.333,116.667,388.889,677.778,13.889,L
353,-0.145,1.290,-0.020,197.222,108.333,397.222,652.778,25.000,L
354,-0.140,1.005,0.000,197.222,100.000,388.889,638.889,13.889,L
355,-0.140,1.045,-0.025,197.222,108.333,383.333,627.778,11.111,L
356,-0.215,1.185,-0.005,197.222,108.333,386.111,677.778,50.000,L
357,-0.235,1.285,-0.045,66.667,116.667,391.667,652.778,25.000,L
358,-0.165,1.265,-0.045,197.222,111.111,397.222,652.778,0.000,L
359,-0.190,1.080,-0.025,197.222,111.111,397.222,672.222,19.444,L
360,-0.105,1.215,0.010,197.222,113.889,397.222,688.889,16.667,L
361,-0.195,1.280,0.010,197.222,102.778,377.778,694.444,5.556,L
362,-0.190,1.350,0.020,197.222,108.333,394.444,688.889,5.556,L
363,-0.100,1.390,0.010,197.222,108.333,369.444,636.111,52.778,L
364,-0.055,1.185,-0.010,197.222,102.778,366.667,633.333,2.778,L
365,-0.210,1.245,-0.020,197.222,113.889,391.667,666.667,33.333,L
366,-0.180,1.300,-0.005,197.222,102.778,375.000,691.667,25.000,L
367,-0.235,1.405,-0.030,66.667,111.111,369.444,691.667,0.000,L
368,-0.260,1.390,-0.045,66.667,113.889,388.889,683.333,8.333,L
369,-0.305,1.100,-0.065,72.222,116.667,386.111,705.556,22.222,L
370,-0.250,1.130,-0.045,69.444,113.889,388.889,697.222,8.333,L
371,-0.255,1.275,-0.020,66.667,111.111,380.556,700.000,2.778,L
372,-0.085,1.415,-0.005,197.222,105.556,369.444,677.778,22.222,L
373,-0.065,1.360,-0.040,197.222,100.000,355.556,663.889,13.889,L
374,-0.230,1.265,0.005,77.778,108.333,388.889,683.333,19.444,L
375,-0.210,1.335,0.005,66.667,113.889,391.667,738.889,55.556,L
376,-0.230,1.370,-0.015,77.778,111.111,377.778,727.778,11.111,L
377,-0.230,1.425,0.005,69.444,113.889,397.222,713.889,13.889,L
378,-0.235,1.435,-0.020,75.000,111.111,397.222,736.111,22.222,L
379,-0.235,1.460,-0.045,197.222,105.556,391.667,713.889,22.222,L
380,-0.255,1.465,-0.050,197.222,102.778,391.667,716.667,2.778,L
381,-0.165,1.445,-0.065,197.222,100.000,375.000,702.778,13.889,L
382,-0.255,1.460,-0.100,197.222,97.222,391.667,697.222,5.556,L
383,-0.325,1.450,-0.110,72.222,108.333,402.778,700.000,2.778,L
384,-0.325,1.500,-0.095,77.778,116.667,394.444,772.222,72.222,L
385,-0.305,1.530,-0.065,97.222,116.667,405.556,755.556,16.667,L
386,-0.285,1.555,-0.085,77.778,116.667,405.556,733.333,22.222,L
387,-0.300,1.555,-0.100,69.444,111.111,386.111,736.111,2.778,L
388,-0.305,1.585,-0.105,69.444,113.889,388.889,713.889,22.222,L
389,-0.290,1.635,-0.070,66.667,111.111,386.111,716.667,2.778,L
390,-0.195,1.640,-0.070,197.222,102.778,388.889,708.333,8.333,L
391,-0.250,1.665,-0.060,197.222,100.000,375.000,711.111,2.778,L
392,-0.255,1.700,-0.065,72.222,108.333,394.444,722.222,11.111,L
393,-0.235,1.700,-0.060,72.222,116.667,402.778,780.556,58.333,L
394,-0.240,1.555,-0.035,80.556,113.889,391.667,758.333,22.222,L
395,-0.230,1.570,-0.040,77.778,111.111,377.778,713.889,44.444,L
396,-0.245,1.600,-0.025,69.444,108.333,386.111,708.333,5.556,L
397,-0.235,1.610,-0.040,80.556,108.333,388.889,694.444,13.889,L
398,-0.245,1.650,-0.050,77.778,111.111,391.667,716.667,22.222,L
399,-0.200,1.695,-0.065,197.222,102.778,380.556,705.556,11.111,L
400,-0.260,1.585,-0.055,197.222,111.111,388.889,713.889,8.333,L
401,-0.255,1.545,-0.080,66.667,113.889,405.556,736.111,22.222,L
402,-0.245,1.610,-0.070,83.333,113.889,394.444,780.556,44.444,L
403,-0.285,1.600,-0.095,75.000,111.111,383.333,725.000,55.556,L
404,-0.300,1.355,-0.095,66.667,105.556,377.778,697.222,27.778,L
405,-0.260,1.380,-0.040,63.889,108.333,375.000,691.667,5.556,L
406,-0.200,1.470,-0.020,197.222,102.778,400.000,677.778,13.889,L
407,-0.235,1.560,-0.065,75.000,105.556,394.444,700.000,22.222,L
408,-0.245,1.215,-0.075,197.222,100.000,372.222,713.889,13.889,L
409,-0.245,1.155,0.000,66.667,113.889,391.667,713.889,0.000,L
410,-0.185,1.320,0.020,72.222,108.333,397.222,719.444,5.556,L
411,-0.175,1.450,-0.010,77.778,116.667,402.778,755.556,36.111,L
412,-0.195,1.490,-0.070,80.556,113.889,394.444,722.222,33.333,L
413,-0.160,1.275,-0.100,197.222,100.000,377.778,686.111,36.111,L
414,-0.270,1.050,-0.065,197.222,102.778,375.000,688.889,2.778,L
415,-0.140,1.180,-0.055,197.222,102.778,386.111,688.889,0.000,L
416,-0.255,1.285,-0.070,69.444,102.778,397.222,708.333,19.444,L
417,-0.110,0.810,-0.125,197.222,88.889,361.111,711.111,2.778,V
418,-0.320,1.170,-0.160,75.000,108.333,397.222,775.000,63.889,L
419,-0.350,0.925,-0.095,61.111,111.111,397.222,719.444,55.556,L
420,-0.265,1.150,-0.085,77.778,111.111,391.667,750.000,30.556,L
421,-0.245,1.310,-0.060,197.222,108.333,386.111,722.222,27.778,L
422,-0.195,1.390,-0.070,197.222,97.222,375.000,688.889,33.333,L
423,-0.185,1.370,-0.085,197.222,108.333,372.222,675.000,13.889,L
424,-0.250,1.010,-0.070,197.222,102.778,372.222,700.000,25.000,L
425,-0.240,1.110,-0.025,72.222,105.556,394.444,711.111,11.111,L
426,-0.210,1.265,-0.045,80.556,113.889,391.667,741.667,30.556,L
427,-0.225,1.370,-0.025,69.444,116.667,405.556,736.111,5.556,L
428,-0.210,1.450,-0.065,69.444,102.778,388.889,719.444,16.667,L
429,-0.245,1.305,-0.080,75.000,108.333,388.889,725.000,5.556,L
430,-0.270,1.230,-0.075,61.111,100.000,372.222,730.556,5.556,L
431,-0.255,1.320,-0.065,72.222,105.556,361.111,694.444,36.111,L
432,-0.245,1.370,-0.095,197.222,100.000,372.222,675.000,19.444,L
433,-0.295,1.365,-0.105,72.222,105.556,377.778,711.111,36.111,L
434,-0.270,1.280,-0.095,75.000,116.667,400.000,730.556,19.444,L
435,-0.280,1.310,-0.105,75.000,113.889,400.000,755.556,25.000,L
436,-0.285,1.380,-0.080,66.667,113.889,402.778,741.667,13.889,L
437,-0.265,1.415,-0.110,197.222,108.333,369.444,727.778,13.889,L
438,-0.310,1.295,-0.095,75.000,111.111,394.444,713.889,13.889,L
439,-0.300,1.335,-0.100,63.889,102.778,372.222,719.444,5.556,L
440,-0.295,1.380,-0.100,75.000,100.000,358.333,694.444,25.000,L
441,-0.280,1.435,-0.100,72.222,105.556,380.556,680.556,13.889,L
442,-0.280,1.420,-0.080,75.000,108.333,400.000,716.667,36.111,L
443,-0.270,1.475,-0.095,80.556,113.889,402.778,727.778,11.111,L
444,-0.230,1.530,-0.045,72.222,111.111,400.000,758.333,30.556,L
445,-0.200,1.485,0.000,197.222,105.556,391.667,736.111,22.222,L
446,-0.200,1.495,-0.030,72.222,100.000,375.000,711.111,25.000,L
447,-0.240,1.480,-0.070,69.444,105.556,380.556,694.444,16.667,L
448,-0.275,1.485,-0.085,80.556,108.333,372.222,730.556,36.111,L
449,-0.260,1.495,-0.055,77.778,105.556,391.667,697.222,33.333,L
450,-0.270,1.505,-0.080,83.333,113.889,394.444,702.778,5.556,L
451,-0.285,1.540,-0.100,66.667,116.667,405.556,736.111,33.333,L
452,-0.260,1.585,-0.110,72.222,108.333,397.222,738.889,2.778,L
453,-0.275,1.585,-0.070,75.000,108.333,400.000,766.667,27.778,L
454,-0.250,1.570,-0.065,75.000,102.778,391.667,736.111,30.556,L
455,-0.240,1.640,-0.055,197.222,97.222,358.333,697.222,38.889,L
456,-0.250,1.670,-0.060,69.444,102.778,397.222,680.556,16.667,L
457,-0.255,1.670,-0.050,80.556,111.111,394.444,730.556,50.000,L
458,-0.235,1.635,-0.025,72.222,102.778,391.667,708.333,22.222,L
459,-0.225,1.655,-0.040,80.556,111.111,394.444,705.556,2.778,L
460,-0.195,1.715,-0.005,80.556,113.889,400.000,747.222,41.667,L
461,-0.190,1.700,-0.025,72.222,111.111,397.222,733.333,13.889,L
462,-0.185,1.790,0.000,75.000,105.556,394.444,747.222,13.889,L
463,-0.140,1.790,-0.030,197.222,100.000,375.000,727.778,19.444,L
464,-0.220,1.710,-0.080,197.222,94.444,363.889,697.222,30.556,L
465,-0.280,1.645,-0.085,72.222,105.556,391.667,677.778,19.444,L
466,-0.305,1.645,-0.110,69.444,113.889,405.556,741.667,63.889,L
467,-0.325,1.645,-0.120,69.444,105.556,394.444,722.222,19.444,L
468,-0.305,1.600,-0.120,77.778,113.889,394.444,722.222,0.000,L
469,-0.300,1.645,-0.135,86.111,113.889,402.778,738.889,16.667,L
470,-0.345,1.135,-0.150,197.222,105.556,388.889,725.000,13.889,L
471,-0.270,0.575,-0.110,197.222,105.556,386.111,711.111,13.889,L
472,-0.285,0.590,-0.050,125.000,102.778,316.667,700.000,11.111,L
473,-0.250,0.645,0.005,61.111,100.000,341.667,669.444,30.556,L
474,-0.215,0.570,-0.065,55.556,100.000,361.111,658.333,11.111,L
475,-0.240,0.595,0.010,77.778,113.889,402.778,713.889,55.556,L
476,-0.275,0.495,-0.030,155.556,108.333,377.778,711.111,2.778,L
477,-0.320,0.475,-0.040,186.111,105.556,400.000,711.111,0.000,L
478,-0.160,0.910,-0.155,194.444,100.000,391.667,688.889,22.222,L
479,-0.290,0.805,-0.170,155.556,108.333,397.222,680.556,8.333,L
480,-0.395,0.635,-0.125,63.889,105.556,375.000,677.778,2.778,L
481,-0.255,0.645,-0.035,83.333,113.889,386.111,655.556,22.222,L
482,-0.210,0.535,-0.010,197.222,102.778,369.444,630.556,25.000,L
483,-0.165,0.525,-0.020,197.222,105.556,386.111,630.556,0.000,L
484,-0.225,0.545,-0.030,197.222,108.333,388.889,638.889,8.333,L
485,-0.220,0.500,-0.025,77.778,108.333,394.444,705.556,66.667,L
486,-0.280,0.490,-0.125,147.222,113.889,402.778,658.333,47.222,L
487,-0.210,0.550,-0.105,197.222,113.889,397.222,663.889,5.556,L
488,-0.195,0.785,-0.115,197.222,111.111,394.444,644.444,19.444,L
489,-0.110,0.735,-0.170,197.222,102.778,388.889,636.111,8.333,L
490,-0.310,0.415,-0.235,197.222,108.333,394.444,633.333,2.778,L
491,-0.350,0.465,-0.130,197.222,113.889,386.111,652.778,19.444,L
492,-0.230,0.705,-0.135,197.222,113.889,388.889,616.667,36.111,L
493,-0.240,0.870,-0.075,197.222,102.778,397.222,625.000,8.333,L
494,-0.325,1.040,-0.145,77.778,116.667,397.222,655.556,30.556,L
495,-0.330,1.050,-0.145,75.000,116.667,397.222,700.000,44.444,L
496,-0.355,1.010,-0.135,72.222,116.667,400.000,661.111,38.889,L
497,-0.165,0.875,-0.040,197.222,113.889,394.444,641.667,19.444,L
498,-0.260,0.645,-0.200,197.222,116.667,361.111,650.000,8.333,L
499,-0.115,0.700,-0.110,197.222,102.778,363.889,636.111,13.889,L
500,-0.165,0.815,-0.135,197.222,97.222,388.889,641.667,5.556,L
501,-0.285,0.915,-0.105,197.222,105.556,394.444,652.778,11.111,L
502,-0.250,0.825,-0.110,197.222,116.667,375.000,638.889,13.889,L
503,-0.200,0.895,-0.010,197.222,111.111,397.222,650.000,11.111,L
504,-0.370,0.850,-0.330,197.222,116.667,405.556,683.333,33.333,L
505,-0.475,0.895,-0.210,75.000,108.333,377.778,705.556,22.222,L
506,-0.380,1.060,-0.130,75.000,105.556,391.667,669.444,36.111,L
507,-0.220,1.005,-0.060,197.222,111.111,372.222,636.111,33.333,L
508,-0.170,1.085,-0.005,197.222,108.333,400.000,641.667,5.556,L
509,-0.050,1.185,-0.020,197.222,102.778,391.667,633.333,8.333,L
510,-0.110,1.200,-0.045,197.222,102.778,372.222,655.556,22.222,L
511,-0.200,1.225,-0.080,197.222,102.778,375.000,666.667,11.111,L
512,-0.300,1.215,-0.115,75.000,108.333,377.778,666.667,0.000,L
513,-0.280,1.080,-0.085,197.222,113.889,394.444,672.222,5.556,L
514,-0.280,1.105,-0.080,75.000,113.889,397.222,708.333,36.111,L
515,-0.295,1.200,-0.100,66.667,113.889,391.667,708.333,0.000,L
516,-0.295,1.230,-0.100,197.222,108.333,391.667,683.333,25.000,L
517,-0.320,1.240,-0.130,197.222,102.778,361.111,641.667,41.667,L
518,-0.345,1.255,-0.155,75.000,102.778,361.111,652.778,11.111,L
519,-0.350,1.260,-0.170,75.000,105.556,375.000,650.000,2.778,L
520,-0.360,1.320,-0.160,75.000,108.333,397.222,683.333,33.333,L
521,-0.320,1.340,-0.175,197.222,111.111,388.889,688.889,5.556,L
522,-0.355,1.160,-0.140,66.667,108.333,380.556,702.778,13.889,L
523,-0.330,1.120,-0.105,69.444,113.889,402.778,700.000,2.778,L
524,-0.315,1.240,-0.105,80.556,113.889,394.444,730.556,30.556,L
525,-0.290,1.300,-0.115,77.778,111.111,391.667,694.444,36.111,L
526,-0.175,1.365,-0.120,194.444,102.778,375.000,661.111,33.333,L
527,-0.290,1.345,-0.150,197.222,108.333,388.889,658.333,2.778,L
528,-0.200,1.405,-0.150,197.222,102.778,380.556,669.444,11.111,L
529,-0.345,1.375,-0.130,72.222,108.333,397.222,705.556,36.111,L
530,-0.325,1.445,-0.110,72.222,108.333,380.556,736.111,30.556,L
531,-0.305,1.450,-0.105,66.667,113.889,388.889,708.333,27.778,L
532,-0.305,1.455,-0.105,86.111,113.889,405.556,705.556,2.778,L
533,-0.315,1.460,-0.105,88.889,105.556,397.222,736.111,30.556,L
534,-0.270,1.325,-0.085,197.222,100.000,377.778,716.667,19.444,L
535,-0.230,1.325,-0.065,197.222,97.222,341.667,680.556,36.111,L
536,-0.210,1.405,-0.020,197.222,97.222,372.222,666.667,13.889,L
537,-0.235,1.450,-0.030,66.667,105.556,363.889,697.222,30.556,L
538,-0.225,1.450,-0.025,72.222,111.111,391.667,708.333,11.111,L
539,-0.240,1.485,-0.045,77.778,113.889,394.444,750.000,41.667,L
540,-0.230,1.525,-0.070,75.000,105.556,397.222,730.556,19.444,L
541,-0.230,1.395,-0.025,197.222,105.556,380.556,711.111,19.444,L
542,-0.225,1.445,-0.030,72.222,108.333,394.444,722.222,11.111,L
543,-0.210,1.520,-0.015,197.222,97.222,369.444,719.444,2.778,L
544,-0.220,1.550,0.015,66.667,111.111,355.556,688.889,30.556,L
545,-0.185,1.580,0.020,72.222,102.778,377.778,675.000,13.889,L
546,-0.195,1.630,-0.020,75.000,111.111,380.556,702.778,27.778,L
547,-0.220,1.565,-0.005,80.556,113.889,397.222,719.444,16.667,L
548,-0.190,1.450,0.015,75.000,111.111,397.222,750.000,30.556,L
549,-0.180,1.530,0.010,66.667,113.889,391.667,736.111,13.889,L
550,-0.240,1.570,-0.040,66.667,108.333,366.667,719.444,16.667,L
551,-0.295,1.545,-0.165,66.667,105.556,383.333,683.333,36.111,L
552,-0.365,1.310,-0.175,69.444,111.111,369.444,716.667,33.333,L
553,-0.330,1.300,-0.075,66.667,111.111,383.333,683.333,33.333,L
554,-0.295,1.405,-0.080,72.222,105.556,380.556,672.222,11.111,L
555,-0.305,1.445,-0.130,75.000,113.889,400.000,702.778,30.556,L
556,-0.320,1.475,-0.195,77.778,113.889,402.778,722.222,19.444,L
557,-0.400,1.435,-0.220,77.778,116.667,405.556,750.000,27.778,L
558,-0.400,1.240,-0.160,75.000,108.333,391.667,744.444,5.556,L
559,-0.320,1.365,-0.115,77.778,113.889,358.333,705.556,38.889,L
560,-0.300,1.440,-0.120,66.667,105.556,383.333,669.444,36.111,L
561,-0.330,1.505,-0.130,80.556,116.667,394.444,700.000,30.556,L
562,-0.350,1.400,-0.160,61.111,108.333,375.000,694.444,5.556,L
563,-0.325,1.215,-0.095,66.667,105.556,391.667,702.778,8.333,L
564,-0.270,1.375,-0.020,75.000,111.111,397.222,700.000,2.778,L
565,-0.250,1.440,-0.055,69.444,108.333,388.889,733.333,33.333,L
566,-0.240,1.475,-0.060,83.333,113.889,402.778,736.111,2.778,L
567,-0.285,1.475,-0.100,69.444,105.556,361.111,725.000,11.111,L
568,-0.275,1.220,-0.065,69.444,105.556,363.889,677.778,47.222,L
569,-0.190,1.285,0.020,197.222,100.000,363.889,669.444,8.333,L
570,-0.200,1.365,0.005,72.222,102.778,391.667,686.111,16.667,L
571,-0.195,1.435,-0.005,63.889,105.556,388.889,705.556,19.444,L
572,-0.230,1.455,-0.070,80.556,111.111,388.889,700.000,5.556,L
573,-0.295,1.165,-0.075,69.444,113.889,388.889,705.556,5.556,L
574,-0.215,1.245,-0.010,75.000,111.111,394.444,725.000,19.444,L
575,-0.195,1.380,0.010,77.778,113.889,397.222,702.778,22.222,L
576,-0.195,1.385,-0.055,77.778,111.111,391.667,713.889,11.111,L
577,-0.170,1.300,-0.135,197.222,100.000,372.222,680.556,33.333,L
578,-0.255,1.145,-0.070,197.222,100.000,352.778,669.444,11.111,L
579,-0.245,1.260,-0.065,66.667,108.333,386.111,672.222,2.778,L
580,-0.255,1.290,-0.090,88.889,108.333,397.222,725.000,52.778,L
581,-0.320,1.335,-0.120,72.222,113.889,402.778,711.111,13.889,L
582,-0.340,1.375,-0.185,69.444,105.556,397.222,716.667,5.556,L
583,-0.375,1.205,-0.190,72.222,108.333,394.444,722.222,5.556,L
584,-0.325,1.160,-0.110,197.222,105.556,394.444,713.889,8.333,L
585,-0.285,1.300,-0.085,63.889,111.111,386.111,708.333,5.556,L
586,-0.265,1.390,-0.070,197.222,105.556,363.889,705.556,2.778,L
587,-0.285,1.390,-0.125,72.222,105.556,369.444,686.111,19.444,L
588,-0.310,1.390,-0.110,69.444,100.000,391.667,669.444,16.667,L
589,-0.265,1.410,-0.050,80.556,116.667,405.556,741.667,72.222,L
590,-0.215,1.465,-0.080,69.444,113.889,402.778,750.000,8.333,L
591,-0.285,1.425,-0.120,72.222,102.778,377.778,727.778,22.222,L
592,-0.325,1.405,-0.180,69.444,111.111,405.556,708.333,19.444,L
593,-0.320,1.410,-0.155,197.222,102.778,372.222,708.333,0.000,L
594,-0.340,1.400,-0.120,75.000,100.000,375.000,700.000,8.333,L
595,-0.290,1.435,-0.115,77.778,108.333,388.889,702.778,2.778,L
596,-0.305,1.455,-0.100,69.444,108.333,380.556,675.000,27.778,L
597,-0.290,1.470,-0.090,69.444,108.333,397.222,683.333,8.333,L
598,-0.245,1.515,-0.110,75.000,113.889,402.778,738.889,55.556,L
599,-0.230,1.510,-0.015,69.444,111.111,388.889,755.556,16.667,L
600,-0.170,1.530,0.005,75.000,100.000,394.444,730.556,25.000,L
601,-0.195,1.565,0.005,69.444,100.000,375.000,691.667,38.889,L
602,-0.195,1.565,-0.015,66.667,102.778,363.889,700.000,8.333,L
603,-0.220,1.550,-0.030,77.778,102.778,372.222,688.889,11.111,L
604,-0.225,1.550,-0.025,72.222,105.556,380.556,697.222,8.333,L
605,-0.190,1.500,-0.020,72.222,102.778,391.667,686.111,11.111,L
606,-0.225,1.535,-0.020,72.222,108.333,400.000,697.222,11.111,L
607,-0.235,1.545,-0.090,77.778,113.889,402.778,741.667,44.444,L
608,-0.245,1.575,-0.045,100.000,111.111,402.778,752.778,11.111,L
609,-0.230,1.580,-0.045,75.000,102.778,375.000,725.000,27.778,L
610,-0.055,0.655,0.500,100.000,86.111,338.889,522.222,202.778,V
611,-0.200,1.595,-0.005,77.778,102.778,372.222,847.222,325.000,L
612,-0.220,1.560,-0.005,75.000,113.889,391.667,672.222,175.000,L
613,-0.205,1.650,-0.030,80.556,111.111,388.889,711.111,38.889,L
614,-0.245,1.555,-0.095,72.222,108.333,397.222,691.667,19.444,L
615,-0.090,0.500,0.435,97.222,83.333,341.667,541.667,150.000,V
616,-0.290,1.560,-0.165,83.333,116.667,405.556,902.778,361.111,L
617,-0.370,1.530,-0.185,100.000,108.333,386.111,752.778,150.000,L
618,-0.355,1.280,-0.155,63.889,108.333,366.667,713.889,38.889,L
619,-0.315,1.195,-0.055,72.222,105.556,361.111,675.000,38.889,L
620,-0.265,1.370,-0.070,77.778,111.111,369.444,672.222,2.778,L
621,-0.275,1.430,-0.090,75.000,105.556,394.444,663.889,8.333,L
622,-0.340,1.455,-0.150,80.556,113.889,402.778,688.889,25.000,L
623,-0.285,1.140,-0.030,75.000,105.556,397.222,708.333,19.444,L
624,-0.220,1.375,0.025,80.556,111.111,391.667,705.556,2.778,L
625,-0.180,1.500,0.010,77.778,113.889,397.222,697.222,8.333,L
626,-0.205,1.615,-0.025,77.778,113.889,394.444,733.333,36.111,L
627,-0.240,1.320,-0.050,197.222,111.111,391.667,683.333,50.000,L
628,-0.055,1.340,0.045,197.222,100.000,375.000,658.333,25.000,L
629,-0.110,1.520,0.020,197.222,108.333,388.889,661.111,2.778,L
630,-0.080,1.605,0.020,197.222,105.556,394.444,672.222,11.111,L
631,-0.220,1.630,-0.060,197.222,111.111,388.889,697.222,25.000,L
632,-0.250,1.280,-0.005,77.778,108.333,391.667,727.778,30.556,L
633,-0.195,1.310,0.070,72.222,111.111,397.222,727.778,0.000,L
634,-0.180,1.465,0.050,69.444,108.333,388.889,705.556,22.222,L
635,-0.170,1.535,0.020,77.778,111.111,400.000,736.111,30.556,L
636,-0.175,1.640,-0.025,197.222,100.000,377.778,705.556,30.556,L
637,-0.135,1.400,-0.065,197.222,100.000,372.222,672.222,33.333,L
638,-0.190,1.205,-0.015,197.222,102.778,372.222,666.667,5.556,L
639,-0.145,1.420,0.020,197.222,94.444,377.778,691.667,25.000,L
640,-0.200,1.490,0.020,66.667,113.889,402.778,716.667,25.000,L
641,-0.215,1.550,-0.020,77.778,113.889,391.667,747.222,30.556,L
642,-0.245,1.565,-0.060,83.333,113.889,402.778,719.444,27.778,L
643,-0.265,1.405,-0.010,61.111,105.556,391.667,711.111,8.333,L
644,-0.215,1.490,0.010,69.444,105.556,391.667,727.778,16.667,L
645,-0.190,1.520,-0.020,197.222,102.778,391.667,702.778,25.000,L
646,-0.190,1.565,-0.070,197.222,100.000,369.444,688.889,13.889,L
647,-0.230,1.420,-0.130,197.222,102.778,383.333,669.444,19.444,L
648,-0.315,1.275,-0.055,69.444,108.333,372.222,702.778,33.333,L
649,-0.240,1.380,-0.040,88.889,113.889,402.778,719.444,16.667,L
650,-0.265,1.450,-0.050,75.000,116.667,394.444,755.556,36.111,L
651,-0.250,1.475,-0.025,86.111,113.889,405.556,725.000,30.556,L
652,-0.235,1.560,-0.095,66.667,105.556,397.222,700.000,25.000,L
653,-0.315,1.425,-0.125,77.778,105.556,391.667,708.333,8.333,L
654,-0.300,1.280,-0.055,58.333,105.556,380.556,713.889,5.556,L
655,-0.250,1.415,-0.050,69.444,111.111,350.000,694.444,19.444,L
656,-0.245,1.475,-0.025,77.778,100.000,383.333,680.556,13.889,L
657,-0.230,1.460,-0.070,83.333,111.111,386.111,719.444,38.889,L
658,-0.290,1.460,-0.105,83.333,116.667,405.556,730.556,11.111,L
659,-0.260,1.490,-0.070,86.111,116.667,402.778,752.778,22.222,L
660,-0.260,1.525,-0.080,75.000,108.333,391.667,727.778,25.000,L
661,-0.250,1.365,-0.090,197.222,100.000,388.889,697.222,30.556,L
662,-0.260,1.305,-0.035,69.444,105.556,394.444,697.222,0.000,L
663,-0.210,1.380,0.015,69.444,100.000,372.222,716.667,19.444,L
664,-0.180,1.495,0.010,83.333,105.556,363.889,694.444,22.222,L
665,-0.165,1.540,0.010,83.333,113.889,402.778,683.333,11.111,L
666,-0.185,1.515,-0.010,77.778,113.889,394.444,727.778,44.444,L
667,-0.200,1.510,-0.060,75.000,111.111,397.222,730.556,2.778,L
668,-0.235,1.445,-0.055,75.000,108.333,394.444,750.000,19.444,L
669,-0.215,1.345,-0.005,69.444,105.556,383.333,727.778,22.222,L
670,-0.175,1.445,-0.015,197.222,100.000,363.889,697.222,30.556,L
671,-0.210,1.485,-0.035,69.444,102.778,394.444,686.111,11.111,L
672,-0.230,1.500,-0.035,66.667,113.889,388.889,730.556,44.444,L
673,-0.235,1.510,-0.065,72.222,102.778,388.889,708.333,22.222,L
674,-0.245,1.540,-0.090,69.444,111.111,400.000,711.111,2.778,L
675,-0.260,1.405,-0.095,86.111,116.667,405.556,747.222,36.111,L
676,-0.270,1.475,-0.080,69.444,113.889,405.556,736.111,11.111,L
677,-0.260,1.525,-0.055,69.444,111.111,405.556,750.000,13.889,L
678,-0.235,1.565,-0.065,66.667,102.778,377.778,716.667,33.333,L
679,-0.265,1.550,-0.120,72.222,100.000,361.111,702.778,13.889,L
680,-0.310,1.400,-0.140,72.222,100.000,380.556,686.111,16.667,L
681,-0.285,1.400,-0.070,80.556,113.889,391.667,725.000,38.889,L
682,-0.285,1.455,-0.100,69.444,116.667,405.556,719.444,5.556,L
683,-0.285,1.465,-0.130,77.778,105.556,400.000,725.000,5.556,L
684,-0.295,1.515,-0.125,77.778,111.111,397.222,733.333,8.333,L
685,-0.330,1.525,-0.185,66.667,111.111,402.778,725.000,8.333,L
686,-0.355,1.420,-0.155,69.444,111.111,402.778,733.333,8.333,L
687,-0.340,1.455,-0.155,66.667,100.000,363.889,713.889,19.444,L
688,-0.350,1.510,-0.170,100.000,111.111,369.444,683.333,30.556,L
689,-0.350,1.460,-0.155,69.444,105.556,397.222,669.444,13.889,L
690,-0.310,1.460,-0.175,75.000,111.111,400.000,725.000,55.556,L
691,-0.330,1.490,-0.150,69.444,105.556,397.222,730.556,5.556,L
692,-0.315,1.525,-0.165,69.444,102.778,380.556,727.778,2.778,L
693,-0.320,1.490,-0.115,77.778,105.556,391.667,708.333,19.444,L
694,-0.255,1.455,-0.025,61.111,100.000,388.889,719.444,11.111,L
695,-0.205,1.545,-0.035,105.556,105.556,377.778,694.444,25.000,L
696,-0.225,1.600,-0.065,77.778,102.778,372.222,688.889,5.556,L
697,-0.250,1.565,-0.095,75.000,105.556,391.667,663.889,25.000,L
698,-0.275,1.230,-0.130,197.222,100.000,388.889,666.667,2.778,L
699,-0.275,1.180,-0.085,75.000,111.111,397.222,716.667,50.000,L
700,-0.060,0.405,0.195,197.222,66.667,355.556,669.444,47.222,V
701,-0.260,1.430,-0.075,75.000,111.111,397.222,797.222,127.778,L
702,-0.290,1.500,-0.100,66.667,113.889,391.667,691.667,105.556,L
703,-0.285,1.335,-0.105,63.889,111.111,388.889,711.111,19.444,L
704,-0.285,1.080,-0.025,66.667,116.667,394.444,672.222,38.889,L
705,-0.210,1.285,-0.015,75.000,105.556,394.444,691.667,19.444,L
706,-0.205,1.425,-0.060,197.222,100.000,375.000,688.889,2.778,L
707,-0.280,1.400,-0.130,197.222,105.556,380.556,683.333,5.556,L
708,-0.315,1.055,-0.125,63.889,113.889,402.778,702.778,19.444,L
709,-0.290,1.030,-0.045,75.000,116.667,400.000,755.556,52.778,L
710,-0.235,1.240,-0.010,72.222,111.111,397.222,719.444,36.111,L
711,-0.185,1.365,-0.050,197.222,108.333,386.111,688.889,30.556,L
712,-0.305,1.315,-0.155,197.222,105.556,394.444,672.222,16.667,L
713,-0.260,1.030,-0.105,197.222,100.000,358.333,669.444,2.778,L
714,-0.295,1.205,-0.075,69.444,105.556,377.778,683.333,13.889,L
715,-0.310,1.310,-0.075,86.111,111.111,375.000,697.222,13.889,L
716,-0.330,1.355,-0.170,72.222,111.111,388.889,683.333,13.889,L
717,-0.410,1.115,-0.170,72.222,108.333,397.222,688.889,5.556,L
718,-0.295,1.155,-0.100,75.000,111.111,400.000,733.333,44.444,L
719,-0.285,1.315,-0.070,86.111,108.333,400.000,744.444,11.111,L
720,-0.285,1.375,-0.095,63.889,105.556,355.556,711.111,33.333,L
721,-0.290,1.355,-0.105,197.222,100.000,375.000,661.111,50.000,L
722,-0.295,1.250,-0.060,58.333,100.000,375.000,686.111,25.000,L
723,-0.250,1.335,-0.065,100.000,111.111,388.889,688.889,2.778,L
724,-0.255,1.390,-0.060,94.444,113.889,377.778,713.889,25.000,L
725,-0.250,1.405,-0.060,75.000,111.111,402.778,711.111,2.778,L
726,-0.255,1.355,-0.080,77.778,111.111,388.889,722.222,11.111,L
727,-0.225,1.270,-0.035,83.333,113.889,400.000,758.333,36.111,L
728,-0.200,1.375,-0.020,72.222,100.000,386.111,752.778,5.556,L
729,-0.215,1.410,-0.050,72.222,100.000,358.333,713.889,38.889,L
730,-0.060,0.455,0.415,77.778,83.333,325.000,538.889,175.000,V
731,-0.225,1.500,-0.065,69.444,100.000,375.000,844.444,305.556,L
732,-0.285,1.325,-0.085,61.111,102.778,372.222,705.556,138.889,L
733,-0.210,1.315,0.010,75.000,116.667,400.000,763.889,58.333,L
734,-0.185,1.375,-0.005,75.000,111.111,391.667,736.111,27.778,L
735,-0.180,1.415,-0.025,75.000,102.778,391.667,733.333,2.778,L
736,-0.195,1.435,-0.040,75.000,113.889,405.556,763.889,30.556,L
737,-0.215,1.435,-0.035,83.333,100.000,380.556,741.667,22.222,L
738,-0.210,1.405,-0.090,197.222,97.222,352.778,697.222,44.444,L
739,-0.285,1.410,-0.125,197.222,100.000,383.333,688.889,8.333,L
740,-0.315,1.295,-0.100,66.667,97.222,372.222,705.556,16.667,L
741,-0.280,1.350,-0.100,72.222,108.333,400.000,713.889,8.333,L
742,-0.300,1.340,-0.145,80.556,113.889,391.667,758.333,44.444,L
743,-0.300,1.380,-0.125,69.444,113.889,405.556,738.889,19.444,L
744,-0.295,1.360,-0.110,75.000,105.556,388.889,725.000,13.889,L
745,-0.275,1.440,-0.080,72.222,113.889,405.556,744.444,19.444,L
746,-0.270,1.440,-0.115,69.444,100.000,375.000,716.667,27.778,L
747,-0.290,1.445,-0.150,197.222,94.444,369.444,694.444,22.222,L
748,-0.330,1.445,-0.130,69.444,102.778,380.556,686.111,8.333,L
749,-0.295,1.525,-0.095,61.111,97.222,386.111,711.111,25.000,L
750,-0.255,1.560,-0.080,72.222,108.333,400.000,741.667,30.556,L
751,-0.245,1.540,-0.080,77.778,105.556,391.667,775.000,33.333,L
752,-0.250,1.510,-0.065,75.000,102.778,391.667,730.556,44.444,L
753,-0.240,1.515,-0.055,75.000,102.778,391.667,713.889,16.667,L
754,-0.225,1.570,-0.045,83.333,105.556,388.889,725.000,11.111,L
755,-0.220,1.600,-0.070,69.444,97.222,383.333,702.778,22.222,L
756,-0.070,0.610,0.400,111.111,77.778,308.333,558.333,144.444,V
757,-0.240,1.470,-0.060,197.222,102.778,397.222,813.889,255.556,L
758,-0.240,1.445,-0.055,94.444,100.000,394.444,719.444,94.444,L
759,-0.220,1.555,-0.075,75.000,105.556,397.222,766.667,47.222,L
760,-0.235,1.570,-0.050,83.333,108.333,391.667,758.333,8.333,L
761,-0.220,1.580,-0.050,72.222,102.778,394.444,722.222,36.111,L
762,-0.235,1.550,-0.065,66.667,105.556,383.333,694.444,27.778,L
763,-0.220,1.465,0.020,75.000,111.111,402.778,722.222,27.778,L
764,-0.155,1.610,0.030,66.667,102.778,383.333,694.444,27.778,L
765,-0.145,1.615,0.000,197.222,97.222,375.000,686.111,8.333,L
766,-0.210,1.585,-0.075,80.556,111.111,402.778,697.222,11.111,L
767,-0.260,1.175,-0.060,197.222,108.333,391.667,727.778,30.556,L
768,-0.205,1.275,-0.035,75.000,108.333,394.444,747.222,19.444,L
769,-0.235,1.400,-0.025,72.222,102.778,377.778,750.000,2.778,L
770,-0.250,1.490,-0.110,75.000,102.778,377.778,700.000,50.000,L
771,-0.265,1.205,-0.115,197.222,102.778,386.111,666.667,33.333,L
772,-0.290,1.235,-0.045,63.889,111.111,391.667,705.556,38.889,L
773,-0.200,1.430,-0.005,197.222,102.778,394.444,694.444,11.111,L
774,-0.135,1.540,-0.095,197.222,102.778,383.333,688.889,5.556,L
775,-0.290,1.230,-0.090,69.444,102.778,391.667,708.333,19.444,L
776,-0.265,1.285,-0.045,72.222,100.000,388.889,736.111,27.778,L
777,-0.240,1.475,-0.065,80.556,108.333,394.444,738.889,2.778,L
778,-0.275,1.495,-0.125,75.000,111.111,394.444,744.444,5.556,L
779,-0.310,1.205,-0.070,72.222,113.889,386.111,697.222,47.222,L
780,-0.230,1.360,-0.020,197.222,100.000,375.000,666.667,30.556,L
781,-0.245,1.515,-0.010,63.889,113.889,402.778,694.444,27.778,L
782,-0.240,1.620,-0.030,63.889,111.111,388.889,713.889,19.444,L
783,-0.225,1.340,0.010,61.111,100.000,369.444,713.889,0.000,L
784,-0.175,1.400,0.020,80.556,111.111,388.889,702.778,11.111,L
785,-0.160,1.525,0.050,69.444,102.778,383.333,738.889,36.111,L
786,-0.160,1.605,0.010,97.222,113.889,388.889,730.556,8.333,L
787,-0.200,1.550,-0.005,63.889,113.889,388.889,730.556,0.000,L
788,-0.185,1.310,0.055,66.667,105.556,380.556,688.889,41.667,L
789,-0.075,1.485,0.070,197.222,105.556,386.111,677.778,11.111,L
790,-0.110,1.565,0.080,72.222,102.778,391.667,708.333,30.556,L
791,-0.110,1.590,0.055,75.000,105.556,388.889,738.889,30.556,L
792,-0.165,1.570,0.000,83.333,111.111,386.111,741.667,2.778,L
793,-0.185,1.330,0.035,69.444,111.111,402.778,733.333,8.333,L
794,-0.115,1.455,0.125,69.444,111.111,386.111,750.000,16.667,L
795,-0.075,1.545,0.105,77.778,113.889,380.556,741.667,8.333,L
796,-0.100,1.610,0.070,69.444,105.556,380.556,727.778,13.889,L
797,-0.140,1.575,0.020,75.000,102.778,388.889,688.889,38.889,L
798,-0.160,1.340,0.090,69.444,102.778,377.778,694.444,5.556,L
799,-0.085,1.475,0.090,75.000,108.333,394.444,722.222,27.778,L
800,-0.105,1.530,0.080,77.778,108.333,397.222,750.000,27.778,L
801,-0.120,1.540,0.055,72.222,108.333,397.222,747.222,2.778,L
802,-0.130,1.535,0.090,69.444,100.000,394.444,733.333,13.889,L
803,-0.115,1.610,0.020,80.556,108.333,388.889,744.444,11.111,L
804,-0.165,1.425,0.025,80.556,111.111,386.111,713.889,30.556,L
805,-0.120,1.405,0.065,72.222,102.778,380.556,727.778,13.889,L
806,-0.140,1.465,0.015,72.222,102.778,377.778,697.222,30.556,L
807,-0.195,1.495,-0.015,72.222,100.000,391.667,702.778,5.556,L
808,-0.215,1.485,-0.060,80.556,105.556,400.000,738.889,36.111,L
809,-0.180,1.475,-0.005,69.444,105.556,397.222,775.000,36.111,L
810,-0.205,1.485,-0.025,75.000,102.778,391.667,755.556,19.444,L
811,-0.210,1.520,-0.010,66.667,105.556,388.889,738.889,16.667,L
812,-0.200,1.525,-0.015,69.444,100.000,369.444,733.333,5.556,L
813,-0.205,1.520,-0.040,72.222,108.333,380.556,705.556,27.778,L
814,-0.220,1.480,-0.065,83.333,111.111,391.667,727.778,22.222,L
815,-0.225,1.410,-0.050,75.000,102.778,388.889,711.111,16.667,L
816,-0.245,1.470,-0.060,69.444,105.556,394.444,711.111,0.000,L
817,-0.220,1.500,-0.110,75.000,113.889,402.778,758.333,47.222,L
818,-0.205,1.550,-0.040,80.556,108.333,391.667,786.111,27.778,L
819,-0.205,1.545,-0.030,63.889,108.333,386.111,750.000,36.111,L
820,-0.210,1.550,-0.040,63.889,102.778,388.889,713.889,36.111,L
821,-0.235,1.540,-0.085,66.667,105.556,386.111,722.222,8.333,L
822,-0.245,1.490,-0.080,69.444,102.778,391.667,705.556,16.667,L
823,-0.225,1.445,-0.070,75.000,105.556,397.222,719.444,13.889,L
824,-0.230,1.490,-0.075,91.667,105.556,394.444,716.667,2.778,L
825,-0.210,1.510,-0.030,72.222,105.556,400.000,730.556,13.889,L
826,-0.215,1.525,-0.075,77.778,113.889,402.778,758.333,27.778,L
827,-0.205,1.560,-0.040,116.667,105.556,402.778,769.444,11.111,L
828,-0.215,1.440,-0.020,63.889,102.778,380.556,730.556,38.889,L
829,-0.165,1.480,-0.005,66.667,100.000,377.778,686.111,44.444,L
830,-0.205,1.490,-0.050,83.333,102.778,369.444,700.000,13.889,L
831,-0.250,1.505,-0.100,75.000,102.778,394.444,691.667,8.333,L
832,-0.270,1.425,-0.085,75.000,105.556,397.222,713.889,22.222,L
833,-0.250,1.370,-0.055,72.222,108.333,400.000,716.667,2.778,L
834,-0.210,1.470,-0.045,66.667,111.111,402.778,730.556,13.889,L
835,-0.230,1.495,-0.110,80.556,113.889,402.778,744.444,13.889,L
836,-0.270,1.480,-0.130,75.000,105.556,391.667,747.222,2.778,L
837,-0.315,1.425,-0.095,72.222,102.778,375.000,713.889,33.333,L
838,-0.265,1.455,-0.070,72.222,102.778,380.556,680.556,33.333,L
839,-0.265,1.460,-0.090,75.000,105.556,366.667,686.111,5.556,L
840,-0.305,1.450,-0.140,77.778,113.889,391.667,688.889,2.778,L
841,-0.320,1.305,-0.130,77.778,113.889,400.000,733.333,44.444,L
842,-0.265,1.370,-0.080,69.444,111.111,402.778,738.889,5.556,L
843,-0.280,1.445,-0.095,75.000,102.778,388.889,727.778,11.111,L
844,-0.305,1.475,-0.195,75.000,108.333,397.222,727.778,0.000,L
845,-0.370,1.240,-0.215,75.000,108.333,394.444,750.000,22.222,L
846,-0.390,1.095,-0.120,69.444,105.556,383.333,700.000,50.000,L
847,-0.290,1.325,-0.085,83.333,111.111,372.222,675.000,25.000,L
848,-0.275,1.460,-0.085,80.556,111.111,388.889,697.222,22.222,L
849,-0.265,1.540,-0.115,75.000,113.889,397.222,702.778,5.556,L
850,-0.255,1.355,-0.090,69.444,113.889,402.778,755.556,52.778,L
851,-0.230,1.190,-0.015,72.222,111.111,402.778,750.000,5.556,L
852,-0.190,1.405,-0.025,63.889,108.333,386.111,727.778,22.222,L
853,-0.225,1.470,-0.040,69.444,113.889,402.778,733.333,5.556,L
854,-0.230,1.515,-0.090,80.556,105.556,366.667,750.000,16.667,L
855,-0.285,1.470,-0.085,75.000,102.778,372.222,694.444,55.556,L
856,-0.255,1.120,-0.040,72.222,105.556,375.000,683.333,11.111,L
857,-0.035,0.415,0.450,100.000,83.333,352.778,538.889,144.444,V
858,-0.230,1.435,-0.070,75.000,111.111,400.000,894.444,355.556,L
859,-0.255,1.425,-0.115,77.778,113.889,402.778,755.556,138.889,L
860,-0.290,1.435,-0.135,69.444,116.667,405.556,755.556,0.000,L
861,-0.340,1.060,-0.105,61.111,105.556,388.889,725.000,30.556,L
862,-0.270,1.215,-0.065,77.778,108.333,388.889,716.667,8.333,L
863,-0.280,1.345,-0.085,75.000,100.000,369.444,730.556,13.889,L
864,-0.270,1.390,-0.090,75.000,100.000,372.222,700.000,30.556,L
865,-0.315,1.385,-0.160,72.222,102.778,372.222,683.333,16.667,L
866,-0.380,1.130,-0.195,80.556,113.889,391.667,725.000,41.667,L
867,-0.355,1.110,-0.125,75.000,113.889,397.222,741.667,16.667,L
868,-0.300,1.270,-0.110,83.333,113.889,402.778,758.333,16.667,L
869,0.245,-1.005,0.000,83.333,5.556,250.000,616.667,141.667,V
870,-0.320,1.390,-0.125,58.333,100.000,388.889,827.778,211.111,L
871,-0.365,1.280,-0.180,66.667,105.556,380.556,705.556,122.222,L
872,-0.325,1.205,-0.055,66.667,105.556,383.333,733.333,27.778,L
873,-0.265,1.335,-0.045,66.667,105.556,366.667,700.000,33.333,L
874,-0.265,1.425,-0.080,86.111,108.333,386.111,702.778,2.778,L
875,-0.290,1.440,-0.080,83.333,105.556,386.111,730.556,27.778,L
876,-0.285,1.460,-0.100,77.778,113.889,394.444,744.444,13.889,L
877,-0.300,1.340,-0.080,80.556,113.889,394.444,755.556,11.111,L
878,-0.220,1.355,-0.025,69.444,105.556,380.556,719.444,36.111,L
879,-0.215,1.470,-0.020,69.444,102.778,375.000,686.111,33.333,L
880,-0.235,1.495,-0.035,77.778,100.000,391.667,702.778,16.667,L
881,-0.250,1.505,-0.065,63.889,100.000,388.889,719.444,16.667,L
882,-0.225,1.435,-0.060,66.667,105.556,366.667,705.556,13.889,L
883,-0.225,1.395,-0.030,72.222,105.556,397.222,708.333,2.778,L
884,-0.220,1.465,0.000,69.444,111.111,405.556,744.444,36.111,L
885,-0.190,1.495,-0.035,72.222,108.333,397.222,736.111,8.333,L
886,-0.245,1.445,-0.040,75.000,113.889,394.444,755.556,19.444,L
887,-0.180,1.480,0.015,66.667,111.111,386.111,705.556,50.000,L
888,-0.155,1.515,-0.005,197.222,100.000,383.333,680.556,25.000,L
889,-0.185,1.495,-0.020,75.000,105.556,394.444,711.111,30.556,L
890,-0.210,1.495,-0.045,66.667,97.222,383.333,722.222,11.111,L
891,-0.230,1.455,-0.050,77.778,97.222,391.667,727.778,5.556,L
892,-0.250,1.480,-0.080,66.667,108.333,400.000,725.000,2.778,L
893,-0.245,1.445,-0.075,69.444,97.222,388.889,755.556,30.556,L
894,-0.245,1.465,-0.040,63.889,108.333,400.000,741.667,13.889,L
895,-0.235,1.495,-0.075,72.222,108.333,380.556,738.889,2.778,L
896,-0.275,1.475,-0.075,83.333,108.333,386.111,694.444,44.444,L
897,-0.270,1.435,-0.110,197.222,102.778,391.667,680.556,13.889,L
898,-0.315,1.335,-0.145,75.000,105.556,394.444,713.889,33.333,L
899,-0.305,1.380,-0.125,77.778,102.778,397.222,733.333,19.444,L
900,-0.310,1.445,-0.130,83.333,105.556,400.000,741.667,8.333,L
901,-0.310,1.445,-0.145,80.556,105.556,402.778,730.556,11.111,L
902,-0.325,1.470,-0.125,63.889,97.222,391.667,747.222,16.667,L
903,-0.280,1.405,-0.090,69.444,108.333,397.222,738.889,8.333,L
904,-0.290,1.475,-0.115,72.222,102.778,372.222,722.222,16.667,L
905,-0.315,1.460,-0.125,75.000,102.778,391.667,688.889,33.333,L
906,-0.325,1.505,-0.160,197.222,97.222,383.333,688.889,0.000,L
907,-0.355,1.395,-0.185,77.778,108.333,402.778,730.556,41.667,L
908,-0.340,1.360,-0.190,80.556,111.111,400.000,750.000,19.444,L
909,-0.370,1.440,-0.180,66.667,105.556,388.889,750.000,0.000,L
910,-0.360,1.435,-0.205,72.222,102.778,394.444,725.000,25.000,L
911,-0.370,1.435,-0.165,72.222,97.222,391.667,730.556,5.556,L
912,-0.335,1.395,-0.095,63.889,102.778,391.667,725.000,5.556,L
913,-0.260,1.480,-0.085,69.444,100.000,366.667,722.222,2.778,L
914,-0.260,1.560,-0.080,66.667,100.000,383.333,683.333,38.889,L
915,-0.280,1.580,-0.110,69.444,105.556,394.444,683.333,0.000,L
916,-0.240,1.390,-0.085,83.333,116.667,405.556,752.778,69.444,L
917,-0.210,1.225,-0.015,75.000,105.556,397.222,755.556,2.778,L
918,-0.185,1.405,0.010,77.778,100.000,391.667,733.333,22.222,L
919,-0.170,1.530,0.010,69.444,108.333,400.000,725.000,8.333,L
920,-0.190,1.595,-0.015,61.111,100.000,375.000,711.111,13.889,L
921,-0.210,1.405,-0.015,61.111,100.000,369.444,700.000,11.111,L
922,-0.190,1.250,0.045,75.000,102.778,375.000,711.111,11.111,L
923,-0.155,1.390,0.015,66.667,108.333,383.333,680.556,30.556,L
924,-0.200,1.470,-0.005,69.444,105.556,394.444,686.111,5.556,L
925,-0.215,1.595,-0.075,66.667,116.667,405.556,744.444,58.333,L
926,-0.240,1.245,-0.070,72.222,102.778,391.667,758.333,13.889,L
927,-0.050,0.425,0.475,100.000,86.111,341.667,608.333,150.000,V
928,-0.205,1.400,0.005,61.111,105.556,391.667,825.000,216.667,L
929,-0.245,1.435,-0.025,75.000,102.778,372.222,705.556,119.444,L
930,-0.235,1.550,-0.075,75.000,105.556,380.556,697.222,8.333,L
931,-0.275,1.280,-0.075,66.667,113.889,386.111,705.556,8.333,L
932,-0.225,1.265,-0.010,77.778,111.111,400.000,711.111,5.556,L
933,-0.230,1.430,-0.025,77.778,111.111,391.667,719.444,8.333,L
934,-0.245,1.480,-0.130,80.556,113.889,402.778,750.000,30.556,L
935,-0.300,1.425,-0.115,69.444,111.111,386.111,769.444,19.444,L
936,-0.325,1.140,-0.055,75.000,100.000,377.778,741.667,27.778,L
937,-0.255,1.335,-0.050,72.222,102.778,380.556,697.222,44.444,L
938,-0.275,1.375,-0.070,75.000,102.778,361.111,702.778,5.556,L
939,-0.305,1.425,-0.130,72.222,108.333,383.333,697.222,5.556,L
940,-0.320,1.340,-0.145,75.000,108.333,388.889,719.444,22.222,L
941,-0.350,1.145,-0.115,75.000,111.111,402.778,733.333,13.889,L
942,-0.285,1.290,-0.085,75.000,108.333,394.444,736.111,2.778,L
943,-0.305,1.380,-0.140,77.778,108.333,400.000,750.000,13.889,L
944,-0.315,1.415,-0.130,72.222,105.556,394.444,766.667,16.667,L
945,-0.345,1.260,-0.180,72.222,102.778,363.889,725.000,41.667,L
946,-0.320,1.215,-0.095,69.444,102.778,363.889,683.333,41.667,L
947,-0.275,1.320,-0.090,80.556,108.333,369.444,694.444,11.111,L
948,-0.280,1.380,-0.090,77.778,108.333,388.889,700.000,5.556,L
949,-0.270,1.445,-0.105,86.111,113.889,405.556,738.889,38.889,L
950,-0.275,1.320,-0.105,69.444,108.333,394.444,738.889,0.000,L
951,-0.235,1.335,-0.060,66.667,105.556,397.222,744.444,5.556,L
952,-0.250,1.395,-0.080,83.333,113.889,402.778,747.222,2.778,L
953,-0.235,1.435,-0.065,66.667,108.333,369.444,750.000,2.778,L
954,-0.235,1.460,-0.075,69.444,102.778,375.000,702.778,47.222,L
955,-0.245,1.320,-0.040,75.000,102.778,377.778,686.111,16.667,L
956,-0.235,1.385,-0.060,75.000,111.111,375.000,705.556,19.444,L
957,-0.245,1.425,-0.065,66.667,111.111,400.000,705.556,0.000,L
958,-0.245,1.420,-0.135,94.444,113.889,400.000,761.111,55.556,L
959,-0.280,1.340,-0.100,72.222,105.556,397.222,747.222,13.889,L
960,-0.240,1.325,-0.050,75.000,105.556,391.667,736.111,11.111,L
961,-0.235,1.435,-0.070,77.778,108.333,391.667,736.111,0.000,L
962,-0.250,1.415,-0.060,69.444,102.778,377.778,741.667,5.556,L
963,-0.260,1.425,-0.125,69.444,105.556,380.556,700.000,41.667,L
964,-0.320,1.370,-0.120,69.444,102.778,388.889,686.111,13.889,L
965,-0.270,1.360,-0.075,80.556,102.778,388.889,722.222,36.111,L
966,-0.245,1.420,-0.075,72.222,113.889,402.778,725.000,2.778,L
967,-0.250,1.460,-0.130,75.000,111.111,397.222,772.222,47.222,L
968,-0.070,0.500,0.370,97.222,83.333,355.556,588.889,183.333,V
969,-0.330,1.480,-0.130,83.333,108.333,400.000,900.000,311.111,L
970,-0.340,1.345,-0.125,75.000,102.778,388.889,713.889,186.111,L
971,-0.275,1.450,-0.065,75.000,102.778,391.667,747.222,33.333,L
972,-0.275,1.485,-0.100,66.667,100.000,358.333,708.333,38.889,L
973,-0.285,1.465,-0.080,72.222,97.222,388.889,691.667,16.667,L
974,-0.295,1.480,-0.160,77.778,108.333,391.667,736.111,44.444,L
975,-0.325,1.375,-0.155,75.000,108.333,394.444,747.222,11.111,L
976,-0.290,1.340,-0.135,77.778,111.111,397.222,766.667,19.444,L
977,-0.290,1.405,-0.105,75.000,105.556,391.667,733.333,33.333,L
978,-0.280,1.460,-0.125,69.444,102.778,397.222,708.333,25.000,L
979,-0.285,1.480,-0.135,77.778,111.111,391.667,711.111,2.778,L
980,-0.275,1.475,-0.110,88.889,100.000,377.778,725.000,13.889,L
981,-0.260,1.375,-0.060,63.889,105.556,366.667,711.111,13.889,L
982,-0.255,1.495,-0.060,66.667,105.556,383.333,700.000,11.111,L
983,-0.220,1.480,-0.045,77.778,108.333,391.667,744.444,44.444,L
984,-0.215,1.540,-0.080,108.333,108.333,397.222,747.222,2.778,L
985,-0.220,1.470,-0.060,66.667,111.111,391.667,758.333,11.111,L
986,-0.225,1.390,-0.035,66.667,108.333,400.000,719.444,38.889,L
987,-0.215,1.460,-0.030,63.889,100.000,388.889,691.667,27.778,L
988,-0.200,1.560,-0.055,83.333,108.333,391.667,722.222,30.556,L
989,-0.180,1.505,0.020,69.444,100.000,383.333,719.444,2.778,L
990,-0.155,1.550,0.025,72.222,97.222,388.889,722.222,2.778,L
991,-0.135,1.595,-0.010,72.222,105.556,394.444,730.556,8.333,L
992,-0.200,1.555,-0.030,69.444,100.000,391.667,752.778,22.222,L
993,-0.210,1.405,-0.025,86.111,102.778,397.222,763.889,11.111,L
994,-0.170,1.365,0.040,75.000,105.556,375.000,752.778,11.111,L
995,-0.150,1.550,0.035,83.333,105.556,380.556,697.222,55.556,L
996,-0.155,1.595,-0.010,197.222,100.000,383.333,677.778,19.444,L
997,-0.215,1.550,-0.070,83.333,111.111,402.778,719.444,41.667,L
998,-0.250,1.245,-0.040,197.222,102.778,394.444,716.667,2.778,L
999,-0.235,1.235,-0.020,80.556,102.778,388.889,727.778,11.111,L
1000,-0.210,1.395,-0.020,69.444,102.778,394.444,727.778,0.000,L
1001,-0.250,1.490,-0.070,197.222,105.556,383.333,741.667,13.889,L
1002,-0.265,1.545,-0.105,69.444,105.556,397.222,738.889,2.778,L
1003,-0.325,1.265,-0.145,75.000,105.556,388.889,738.889,0.000,L
1004,-0.285,1.120,-0.045,72.222,105.556,361.111,697.222,41.667,L
1005,-0.225,1.365,-0.045,197.222,102.778,394.444,672.222,25.000,L
1006,-0.260,1.460,-0.075,69.444,111.111,400.000,722.222,50.000,L
1007,-0.290,1.530,-0.140,66.667,105.556,397.222,733.333,11.111,L
1008,-0.320,1.390,-0.145,66.667,108.333,394.444,733.333,0.000,L
1009,-0.335,1.090,-0.140,61.111,108.333,388.889,725.000,8.333,L
1010,-0.250,1.320,-0.030,66.667,111.111,400.000,738.889,13.889,L
1011,-0.205,1.500,0.005,197.222,100.000,386.111,730.556,8.333,L
1012,-0.215,1.570,-0.070,197.222,97.222,369.444,716.667,13.889,L
1013,-0.275,1.355,-0.035,58.333,102.778,361.111,694.444,22.222,L
1014,-0.215,1.325,0.000,77.778,108.333,388.889,688.889,5.556,L
1015,-0.185,1.440,-0.010,83.333,113.889,402.778,741.667,52.778,L
1016,-0.220,1.540,-0.040,66.667,113.889,402.778,744.444,2.778,L
1017,-0.210,1.560,-0.030,72.222,102.778,397.222,738.889,5.556,L
1018,-0.215,1.495,-0.085,69.444,108.333,397.222,736.111,2.778,L
1019,-0.255,1.215,-0.020,66.667,105.556,397.222,727.778,8.333,L
1020,-0.220,1.335,-0.050,197.222,102.778,386.111,725.000,2.778,L
1021,-0.205,1.435,-0.045,197.222,97.222,372.222,708.333,16.667,L
1022,-0.215,1.505,-0.020,197.222,100.000,388.889,694.444,13.889,L
1023,-0.220,1.515,-0.095,75.000,111.111,391.667,700.000,5.556,L
1024,-0.250,1.400,-0.075,75.000,113.889,397.222,761.111,61.111,L
1025,-0.230,1.295,-0.005,75.000,111.111,397.222,750.000,11.111,L
1026,-0.175,1.410,-0.005,77.778,108.333,391.667,736.111,13.889,L
1027,-0.215,1.470,-0.035,77.778,111.111,391.667,733.333,2.778,L
1028,-0.225,1.490,-0.065,75.000,108.333,375.000,702.778,30.556,L
1029,-0.235,1.490,-0.020,75.000,105.556,397.222,711.111,8.333,L
1030,-0.185,1.345,0.000,197.222,97.222,377.778,708.333,2.778,L
1031,-0.185,1.425,-0.030,197.222,108.333,386.111,697.222,11.111,L
1032,-0.250,1.420,-0.090,75.000,108.333,400.000,711.111,13.889,L
1033,-0.265,1.440,-0.075,75.000,111.111,400.000,766.667,55.556,L
1034,-0.245,1.505,-0.095,83.333,111.111,402.778,747.222,19.444,L
1035,-0.250,1.400,-0.030,63.889,111.111,400.000,708.333,38.889,L
1036,-0.210,1.490,-0.005,77.778,111.111,391.667,713.889,5.556,L
1037,-0.190,1.485,-0.030,197.222,102.778,394.444,691.667,22.222,L
1038,-0.225,1.505,-0.050,94.444,102.778,397.222,708.333,16.667,L
1039,-0.245,1.520,-0.090,61.111,97.222,369.444,716.667,8.333,L
1040,-0.260,1.440,-0.060,72.222,105.556,383.333,708.333,8.333,L
1041,-0.215,1.480,-0.055,83.333,111.111,402.778,730.556,22.222,L
1042,-0.245,1.505,-0.050,77.778,116.667,405.556,783.333,52.778,L
1043,-0.230,1.545,-0.045,77.778,113.889,394.444,747.222,36.111,L
1044,-0.215,1.510,-0.050,72.222,100.000,391.667,708.333,38.889,L
1045,-0.205,1.505,-0.015,72.222,102.778,394.444,700.000,8.333,L
1046,-0.215,1.540,-0.055,66.667,108.333,400.000,694.444,5.556,L
1047,-0.240,1.500,-0.085,75.000,102.778,391.667,711.111,16.667,L
1048,-0.275,1.520,-0.080,69.444,100.000,394.444,719.444,8.333,L
1049,-0.240,1.470,-0.065,63.889,111.111,388.889,730.556,11.111,L
1050,-0.255,1.495,-0.085,86.111,113.889,405.556,741.667,11.111,L
1051,-0.230,1.480,-0.080,77.778,108.333,400.000,772.222,30.556,L
1052,-0.250,1.490,-0.065,75.000,108.333,394.444,733.333,38.889,L
1053,-0.240,1.450,-0.070,75.000,100.000,388.889,697.222,36.111,L
1054,-0.240,1.485,-0.045,197.222,105.556,391.667,691.667,5.556,L
1055,-0.245,1.495,-0.055,75.000,100.000,391.667,694.444,2.778,L
1056,-0.225,1.505,-0.100,72.222,105.556,400.000,725.000,30.556,L
1057,-0.290,1.490,-0.110,63.889,97.222,388.889,744.444,19.444,L
1058,-0.290,1.485,-0.140,75.000,105.556,397.222,744.444,0.000,L
1059,-0.320,1.460,-0.140,69.444,113.889,400.000,727.778,16.667,L
1060,-0.295,1.370,-0.105,77.778,111.111,391.667,761.111,33.333,L
1061,-0.280,1.450,-0.105,66.667,111.111,383.333,705.556,55.556,L
1062,-0.255,1.495,-0.130,197.222,97.222,391.667,686.111,19.444,L
1063,-0.320,1.455,-0.170,197.222,100.000,397.222,683.333,2.778,L
1064,-0.315,1.425,-0.215,197.222,100.000,391.667,688.889,5.556,L
1065,-0.395,1.230,-0.205,69.444,105.556,397.222,727.778,38.889,L
1066,-0.355,1.285,-0.150,69.444,108.333,400.000,766.667,38.889,L
1067,-0.350,1.375,-0.180,72.222,108.333,394.444,733.333,33.333,L
1068,-0.370,1.430,-0.200,80.556,113.889,402.778,713.889,19.444,L
1069,-0.375,1.440,-0.225,75.000,111.111,394.444,738.889,25.000,L
1070,-0.350,1.240,-0.180,197.222,100.000,388.889,702.778,36.111,L
1071,-0.300,1.215,-0.100,197.222,100.000,369.444,686.111,16.667,L
1072,-0.235,1.400,-0.110,197.222,102.778,394.444,672.222,13.889,L
1073,-0.290,1.435,-0.100,69.444,100.000,375.000,708.333,36.111,L
1074,-0.310,1.555,-0.140,66.667,116.667,402.778,725.000,16.667,L
1075,-0.275,1.225,-0.080,72.222,113.889,386.111,755.556,30.556,L
1076,-0.225,1.265,-0.025,102.778,113.889,402.778,730.556,25.000,L
1077,-0.220,1.405,-0.030,63.889,105.556,394.444,697.222,33.333,L
1078,-0.250,1.485,-0.065,105.556,108.333,400.000,719.444,22.222,L
1079,-0.245,1.590,-0.080,197.222,97.222,372.222,708.333,11.111,L
1080,-0.235,1.370,-0.055,197.222,100.000,386.111,686.111,22.222,L
1081,-0.200,1.230,0.015,69.444,102.778,380.556,686.111,0.000,L
1082,-0.200,1.440,0.010,72.222,111.111,402.778,719.444,33.333,L
1083,-0.180,1.520,-0.010,80.556,113.889,402.778,727.778,8.333,L
1084,-0.215,1.555,-0.085,77.778,111.111,400.000,744.444,16.667,L
1085,-0.245,1.360,-0.050,63.889,116.667,405.556,725.000,19.444,L
1086,-0.200,1.415,0.005,86.111,102.778,377.778,702.778,22.222,L
1087,-0.185,1.470,0.000,75.000,111.111,397.222,688.889,13.889,L
1088,-0.220,1.550,-0.065,80.556,102.778,380.556,708.333,19.444,L
1089,-0.235,1.375,-0.055,77.778,102.778,375.000,694.444,13.889,L
1090,-0.215,1.300,-0.025,83.333,113.889,386.111,688.889,5.556,L
1091,-0.205,1.425,-0.015,80.556,113.889,391.667,730.556,41.667,L
1092,-0.225,1.480,-0.090,102.778,116.667,402.778,738.889,8.333,L
1093,-0.270,1.470,-0.115,80.556,111.111,394.444,758.333,19.444,L
1094,-0.300,1.235,-0.075,69.444,105.556,397.222,725.000,33.333,L
1095,-0.245,1.325,-0.060,69.444,97.222,372.222,702.778,22.222,L
1096,-0.270,1.385,-0.090,69.444,108.333,400.000,697.222,5.556,L
1097,-0.305,1.420,-0.105,69.444,100.000,380.556,730.556,33.333,L
1098,-0.330,1.435,-0.170,86.111,111.111,383.333,716.667,13.889,L
1099,-0.330,1.290,-0.105,66.667,113.889,391.667,713.889,2.778,L
1100,-0.255,1.390,-0.045,75.000,113.889,402.778,750.000,36.111,L
1101,-0.245,1.430,-0.085,91.667,113.889,400.000,744.444,5.556,L
1102,-0.255,1.455,-0.115,69.444,113.889,394.444,758.333,13.889,L
1103,-0.295,1.410,-0.125,197.222,102.778,388.889,713.889,44.444,L
1104,-0.275,1.340,-0.080,197.222,102.778,377.778,686.111,27.778,L
1105,-0.250,1.450,-0.070,77.778,113.889,388.889,713.889,27.778,L
1106,-0.250,1.505,-0.040,66.667,102.778,388.889,730.556,16.667,L
1107,-0.245,1.505,-0.085,75.000,105.556,380.556,727.778,2.778,L
1108,-0.245,1.425,-0.065,72.222,105.556,386.111,730.556,2.778,L
1109,-0.205,1.455,-0.010,77.778,108.333,400.000,752.778,22.222,L
1110,-0.170,1.530,0.010,72.222,108.333,397.222,733.333,19.444,L
1111,-0.170,1.560,0.025,77.778,113.889,391.667,738.889,5.556,L
1112,-0.160,1.605,-0.005,97.222,102.778,372.222,700.000,38.889,L
1113,-0.180,1.560,-0.010,63.889,100.000,386.111,683.333,16.667,L
1114,-0.155,1.550,0.030,69.444,111.111,402.778,722.222,38.889,L
1115,-0.130,1.605,0.055,77.778,102.778,388.889,741.667,19.444,L
1116,-0.120,1.615,0.050,69.444,105.556,383.333,744.444,2.778,L
1117,-0.170,1.620,-0.020,86.111,102.778,397.222,730.556,13.889,L
1118,-0.180,1.525,-0.010,69.444,102.778,397.222,752.778,22.222,L
1119,-0.175,1.525,0.015,80.556,102.778,388.889,725.000,27.778,L
1120,-0.180,1.575,-0.005,97.222,108.333,375.000,716.667,8.333,L
1121,-0.170,1.590,0.010,72.222,105.556,380.556,691.667,25.000,L
1122,-0.190,1.585,-0.055,197.222,100.000,394.444,683.333,8.333,L
1123,-0.235,1.450,-0.040,77.778,105.556,397.222,722.222,38.889,L
1124,-0.200,1.540,-0.045,77.778,108.333,394.444,750.000,27.778,L
1125,-0.185,1.540,-0.030,72.222,102.778,391.667,747.222,2.778,L
1126,-0.230,1.590,-0.080,63.889,102.778,383.333,725.000,22.222,L
1127,-0.220,1.495,-0.075,66.667,94.444,377.778,733.333,8.333,L
1128,-0.250,1.435,-0.040,66.667,105.556,391.667,716.667,16.667,L
1129,-0.215,1.500,-0.040,80.556,105.556,372.222,713.889,2.778,L
1130,-0.225,1.565,-0.030,72.222,100.000,377.778,691.667,22.222,L
1131,-0.245,1.545,-0.115,75.000,102.778,394.444,691.667,0.000,L
1132,-0.285,1.445,-0.145,75.000,113.889,405.556,744.444,52.778,L
1133,-0.265,1.380,-0.070,69.444,111.111,402.778,761.111,16.667,L
1134,-0.210,1.475,-0.030,63.889,100.000,386.111,744.444,16.667,L
1135,-0.220,1.530,-0.035,66.667,105.556,397.222,722.222,22.222,L
1136,-0.210,1.540,-0.090,197.222,100.000,386.111,711.111,11.111,L
1137,-0.255,1.540,-0.060,72.222,102.778,391.667,708.333,2.778,L
1138,-0.225,1.435,-0.065,72.222,100.000,377.778,716.667,8.333,L
1139,-0.215,1.385,0.005,69.444,105.556,383.333,697.222,19.444,L
1140,-0.185,1.510,-0.040,77.778,111.111,394.444,694.444,2.778,L
1141,-0.200,1.590,-0.085,97.222,113.889,397.222,766.667,72.222,L
1142,-0.220,1.540,-0.080,75.000,113.889,402.778,750.000,16.667,L
1143,-0.235,1.390,-0.055,69.444,100.000,391.667,725.000,25.000,L
1144,-0.190,1.415,-0.005,63.889,111.111,388.889,725.000,0.000,L
1145,-0.110,1.560,-0.010,197.222,100.000,386.111,700.000,25.000,L
1146,-0.225,1.550,-0.070,66.667,105.556,383.333,708.333,8.333,L
1147,-0.245,1.310,-0.035,55.556,97.222,388.889,719.444,11.111,L
1148,-0.190,1.355,0.015,69.444,102.778,377.778,713.889,5.556,L
1149,-0.175,1.500,0.000,72.222,108.333,400.000,716.667,2.778,L
1150,-0.175,1.555,-0.030,77.778,113.889,402.778,772.222,55.556,L
1151,-0.220,1.530,-0.065,75.000,105.556,394.444,747.222,25.000,L
1152,-0.225,1.265,-0.050,197.222,100.000,391.667,713.889,33.333,L
1153,-0.185,1.305,0.035,75.000,108.333,391.667,705.556,8.333,L
1154,-0.145,1.460,0.025,197.222,102.778,394.444,694.444,11.111,L
1155,-0.170,1.550,0.025,66.667,105.556,391.667,711.111,16.667,L
1156,-0.205,1.570,-0.070,66.667,97.222,375.000,719.444,8.333,L
1157,-0.255,1.280,-0.040,77.778,111.111,391.667,727.778,8.333,L
1158,-0.210,1.320,-0.045,75.000,108.333,397.222,730.556,2.778,L
1159,-0.230,1.405,-0.060,83.333,113.889,391.667,769.444,38.889,L
1160,-0.265,1.505,-0.085,72.222,113.889,402.778,741.667,27.778,L
1161,-0.280,1.470,-0.150,197.222,100.000,377.778,700.000,41.667,L
1162,-0.355,1.260,-0.125,72.222,102.778,394.444,686.111,13.889,L
1163,-0.295,1.300,-0.070,72.222,102.778,394.444,697.222,11.111,L
1164,-0.270,1.435,-0.055,72.222,105.556,391.667,719.444,22.222,L
1165,-0.270,1.520,-0.105,91.667,100.000,391.667,736.111,16.667,L
1166,-0.300,1.450,-0.125,72.222,105.556,391.667,730.556,5.556,L
1167,-0.310,1.340,-0.105,77.778,111.111,391.667,736.111,5.556,L
1168,-0.250,1.475,-0.065,80.556,116.667,402.778,772.222,36.111,L
1169,-0.270,1.545,-0.065,69.444,108.333,400.000,719.444,52.778,L
1170,-0.250,1.570,-0.125,197.222,100.000,391.667,688.889,30.556,L
1171,-0.320,1.435,-0.125,66.667,108.333,386.111,694.444,5.556,L
1172,-0.280,1.380,-0.060,69.444,108.333,400.000,700.000,5.556,L
1173,-0.225,1.510,-0.040,66.667,113.889,397.222,730.556,30.556,L
1174,-0.225,1.580,-0.040,97.222,113.889,402.778,750.000,19.444,L
1175,-0.240,1.560,-0.085,72.222,105.556,397.222,741.667,8.333,L
1176,-0.265,1.550,-0.090,72.222,105.556,397.222,733.333,8.333,L
1177,-0.250,1.480,-0.020,75.000,108.333,394.444,758.333,25.000,L
1178,-0.215,1.575,-0.005,66.667,108.333,386.111,702.778,55.556,L
1179,-0.170,1.610,-0.050,197.222,100.000,383.333,680.556,22.222,L
1180,-0.220,1.560,-0.050,69.444,102.778,394.444,691.667,11.111,L
1181,-0.215,1.475,-0.010,72.222,102.778,394.444,702.778,11.111,L
1182,-0.180,1.580,-0.035,69.444,105.556,397.222,730.556,27.778,L
1183,-0.195,1.575,-0.055,69.444,105.556,397.222,763.889,33.333,L
1184,-0.230,1.545,-0.085,77.778,105.556,394.444,741.667,22.222,L
1185,-0.265,1.420,-0.085,69.444,108.333,397.222,708.333,33.333,L
1186,-0.265,1.445,-0.085,66.667,113.889,391.667,730.556,22.222,L
1187,-0.260,1.530,-0.085,66.667,105.556,386.111,700.000,30.556,L
1188,-0.235,1.490,-0.070,197.222,100.000,377.778,688.889,11.111,L
1189,-0.280,1.510,-0.125,69.444,97.222,397.222,694.444,5.556,L
1190,-0.310,1.455,-0.145,69.444,102.778,394.444,722.222,27.778,L
1191,-0.310,1.360,-0.130,77.778,105.556,394.444,755.556,33.333,L
1192,-0.250,1.455,-0.105,77.778,111.111,391.667,766.667,11.111,L
1193,-0.295,1.490,-0.090,77.778,113.889,391.667,736.111,30.556,L
1194,-0.300,1.485,-0.155,77.778,105.556,386.111,702.778,33.333,L
1195,0.285,-1.055,-0.025,80.556,8.333,263.889,636.111,66.667,V
1196,-0.335,1.340,-0.125,72.222,102.778,397.222,788.889,152.778,L
1197,-0.305,1.370,-0.110,75.000,97.222,372.222,702.778,86.111,L
1198,-0.280,1.435,-0.120,69.444,100.000,397.222,713.889,11.111,L
1199,-0.310,1.420,-0.165,72.222,105.556,397.222,747.222,33.333,L
1200,-0.335,1.400,-0.185,83.333,108.333,402.778,763.889,16.667,L
1201,-0.355,1.275,-0.140,75.000,108.333,400.000,755.556,8.333,L
1202,-0.285,1.390,-0.115,72.222,105.556,383.333,730.556,25.000,L
1203,-0.275,1.425,-0.095,66.667,100.000,383.333,694.444,36.111,L
1204,-0.255,1.440,-0.090,102.778,108.333,402.778,719.444,25.000,L
1205,-0.270,1.475,-0.155,77.778,102.778,388.889,711.111,8.333,L
1206,-0.280,1.375,-0.105,66.667,97.222,383.333,719.444,8.333,L
1207,-0.250,1.390,-0.090,94.444,102.778,400.000,730.556,11.111,L
1208,-0.230,1.505,-0.065,69.444,105.556,397.222,755.556,25.000,L
1209,-0.225,1.490,-0.105,75.000,102.778,391.667,758.333,2.778,L
1210,-0.245,1.425,-0.055,66.667,111.111,386.111,755.556,2.778,L
1211,-0.230,1.390,-0.010,83.333,105.556,383.333,702.778,52.778,L
1212,-0.185,1.460,-0.025,69.444,105.556,394.444,686.111,16.667,L
1213,-0.190,1.515,-0.010,72.222,105.556,397.222,716.667,30.556,L
1214,-0.205,1.590,-0.060,88.889,102.778,394.444,716.667,0.000,L
1215,-0.230,1.475,-0.090,69.444,100.000,380.556,730.556,13.889,L
1216,-0.235,1.305,-0.040,72.222,108.333,391.667,744.444,13.889,L
1217,-0.200,1.440,-0.005,72.222,105.556,391.667,744.444,0.000,L
1218,-0.200,1.530,-0.010,83.333,111.111,405.556,744.444,0.000,L
1219,-0.195,1.610,-0.005,69.444,102.778,383.333,733.333,11.111,L
1220,-0.190,1.465,-0.055,72.222,102.778,375.000,688.889,44.444,L
1221,-0.225,1.320,-0.005,69.444,102.778,377.778,683.333,5.556,L
1222,-0.245,1.450,-0.080,72.222,108.333,397.222,716.667,33.333,L
1223,-0.285,1.520,-0.140,72.222,102.778,394.444,736.111,19.444,L
1224,-0.350,1.450,-0.190,61.111,105.556,391.667,736.111,0.000,L
1225,-0.400,1.130,-0.190,69.444,102.778,394.444,725.000,11.111,L
1226,-0.325,1.180,-0.080,63.889,102.778,386.111,741.667,16.667,L
1227,-0.290,1.350,-0.080,72.222,100.000,388.889,713.889,27.778,L
1228,-0.310,1.495,-0.085,72.222,100.000,372.222,716.667,2.778,L
1229,-0.305,1.535,-0.155,69.444,100.000,377.778,683.333,33.333,L
1230,-0.360,1.270,-0.145,63.889,108.333,383.333,677.778,5.556,L
1231,-0.330,1.195,-0.110,66.667,113.889,402.778,730.556,52.778,L
1232,-0.225,1.415,-0.060,86.111,113.889,402.778,752.778,22.222,L
1233,-0.275,1.490,-0.045,69.444,102.778,388.889,738.889,13.889,L
1234,-0.250,1.595,-0.065,86.111,108.333,400.000,727.778,11.111,L
1235,-0.260,1.495,-0.070,63.889,97.222,369.444,727.778,0.000,L
1236,-0.230,1.335,0.015,63.889,102.778,386.111,716.667,11.111,L
1237,-0.165,1.495,0.050,69.444,102.778,361.111,708.333,8.333,L
1238,-0.140,1.630,0.080,63.889,102.778,369.444,691.667,16.667,L
1239,-0.135,1.640,0.040,75.000,105.556,391.667,694.444,2.778,L
1240,-0.160,1.655,-0.055,80.556,113.889,405.556,755.556,61.111,L
1241,-0.205,1.390,-0.035,77.778,111.111,397.222,747.222,8.333,L
1242,-0.180,1.400,0.010,72.222,102.778,394.444,744.444,2.778,L
1243,-0.195,1.475,-0.015,72.222,108.333,400.000,730.556,13.889,L
1244,-0.180,1.540,0.000,197.222,105.556,388.889,713.889,16.667,L
1245,-0.215,1.585,-0.055,197.222,105.556,388.889,713.889,0.000,L
1246,-0.250,1.405,-0.105,72.222,100.000,375.000,722.222,8.333,L
1247,-0.260,1.310,-0.035,75.000,100.000,375.000,705.556,16.667,L
1248,-0.245,1.445,-0.070,72.222,105.556,394.444,713.889,8.333,L
1249,-0.255,1.460,-0.120,80.556,111.111,400.000,775.000,61.111,L
1250,-0.275,1.485,-0.100,83.333,116.667,402.778,752.778,22.222,L
1251,-0.275,1.500,-0.135,197.222,102.778,388.889,730.556,22.222,L
1252,-0.280,1.365,-0.055,69.444,102.778,394.444,722.222,8.333,L
1253,-0.230,1.450,-0.020,63.889,105.556,383.333,691.667,30.556,L
1254,-0.215,1.535,-0.010,72.222,105.556,397.222,713.889,22.222,L
1255,-0.210,1.570,-0.040,77.778,97.222,386.111,722.222,8.333,L
1256,-0.260,1.515,-0.065,61.111,102.778,377.778,711.111,11.111,L
1257,-0.265,1.490,-0.090,72.222,113.889,402.778,727.778,16.667,L
1258,-0.250,1.500,-0.090,83.333,113.889,394.444,777.778,50.000,L
1259,-0.295,1.485,-0.095,86.111,111.111,402.778,738.889,38.889,L
1260,-0.300,1.540,-0.115,105.556,102.778,380.556,702.778,36.111,L
1261,-0.290,1.440,-0.100,69.444,105.556,397.222,697.222,5.556,L
1262,-0.270,1.450,-0.070,94.444,102.778,394.444,691.667,5.556,L
1263,-0.260,1.470,-0.090,69.444,108.333,400.000,708.333,16.667,L
1264,-0.300,1.480,-0.095,72.222,102.778,397.222,719.444,11.111,L
1265,-0.305,1.475,-0.110,75.000,102.778,394.444,722.222,2.778,L
1266,-0.270,1.475,-0.085,75.000,108.333,394.444,730.556,8.333,L
1267,-0.205,1.470,-0.030,75.000,111.111,391.667,769.444,38.889,L
1268,-0.215,1.475,-0.020,72.222,105.556,397.222,727.778,41.667,L
1269,-0.205,1.535,-0.035,72.222,105.556,380.556,683.333,44.444,L
1270,-0.235,1.530,-0.035,72.222,105.556,388.889,688.889,5.556,L
1271,-0.220,1.470,-0.055,75.000,105.556,391.667,683.333,5.556,L
1272,-0.220,1.395,-0.025,75.000,102.778,391.667,716.667,33.333,L
1273,-0.200,1.460,-0.065,75.000,102.778,394.444,713.889,2.778,L
1274,-0.225,1.510,-0.010,75.000,102.778,400.000,733.333,19.444,L
1275,-0.205,1.550,-0.085,72.222,105.556,397.222,730.556,2.778,L
1276,-0.235,1.455,-0.060,63.889,105.556,391.667,758.333,27.778,L
1277,-0.250,1.405,-0.055,77.778,108.333,391.667,716.667,41.667,L
1278,-0.250,1.455,-0.040,83.333,108.333,386.111,686.111,30.556,L
1279,-0.220,1.480,-0.055,75.000,105.556,377.778,694.444,8.333,L
1280,-0.245,1.520,-0.080,80.556,113.889,394.444,686.111,8.333,L
1281,-0.255,1.465,-0.095,75.000,111.111,402.778,727.778,41.667,L
1282,-0.280,1.375,-0.080,66.667,113.889,405.556,741.667,13.889,L
1283,-0.240,1.430,-0.055,69.444,111.111,386.111,736.111,5.556,L
1284,-0.280,1.445,-0.145,94.444,111.111,391.667,725.000,11.111,L
1285,-0.330,1.425,-0.165,77.778,105.556,394.444,747.222,22.222,L
1286,-0.345,1.285,-0.145,75.000,102.778,397.222,700.000,47.222,L
1287,-0.275,1.400,-0.110,197.222,102.778,388.889,672.222,27.778,L
1288,-0.310,1.475,-0.100,77.778,102.778,388.889,683.333,11.111,L
1289,-0.305,1.530,-0.145,197.222,105.556,400.000,686.111,2.778,L
1290,-0.315,1.430,-0.100,86.111,113.889,402.778,733.333,47.222,L
1291,-0.215,1.545,-0.035,72.222,113.889,391.667,750.000,16.667,L
1292,-0.205,1.610,0.000,72.222,102.778,394.444,725.000,25.000,L
1293,-0.215,1.650,-0.085,69.444,111.111,402.778,711.111,13.889,L
1294,-0.080,0.630,0.450,86.111,91.667,369.444,586.111,125.000,V
1295,-0.235,1.430,-0.015,72.222,102.778,394.444,850.000,263.889,L
1296,-0.165,1.535,-0.010,197.222,100.000,391.667,663.889,186.111,L
1297,-0.205,1.635,-0.030,69.444,111.111,400.000,700.000,36.111,L
1298,-0.235,1.575,-0.090,75.000,105.556,397.222,705.556,5.556,L
1299,-0.255,1.365,-0.060,75.000,105.556,394.444,733.333,27.778,L
1300,-0.190,1.385,0.040,69.444,102.778,397.222,747.222,13.889,L
1301,-0.190,1.520,-0.005,66.667,111.111,386.111,727.778,19.444,L
1302,-0.205,1.585,-0.020,75.000,105.556,397.222,691.667,36.111,L
1303,-0.220,1.585,-0.100,66.667,111.111,391.667,708.333,16.667,L
1304,-0.210,1.345,-0.075,197.222,102.778,377.778,683.333,25.000,L
1305,-0.120,1.345,0.030,197.222,100.000,380.556,680.556,2.778,L
1306,-0.150,1.520,0.005,197.222,108.333,386.111,683.333,2.778,L
1307,-0.195,1.590,-0.020,63.889,108.333,388.889,716.667,33.333,L
1308,-0.250,1.555,-0.110,69.444,108.333,400.000,738.889,22.222,L
1309,-0.275,1.250,-0.030,63.889,111.111,400.000,750.000,11.111,L
1310,-0.210,1.440,-0.015,75.000,108.333,397.222,722.222,27.778,L
1311,-0.225,1.515,0.000,63.889,111.111,386.111,691.667,30.556,L
1312,-0.225,1.580,-0.060,80.556,108.333,391.667,694.444,2.778,L
1313,-0.275,1.445,-0.095,72.222,102.778,375.000,697.222,2.778,L
1314,-0.275,1.220,-0.020,197.222,105.556,363.889,694.444,2.778,L
1315,-0.030,0.460,0.470,80.556,86.111,338.889,550.000,144.444,V
1316,-0.240,1.530,-0.035,80.556,113.889,391.667,880.556,330.556,L
1317,-0.275,1.495,-0.095,88.889,111.111,397.222,725.000,155.556,L
1318,-0.275,1.540,-0.120,75.000,111.111,388.889,755.556,30.556,L
1319,-0.320,1.260,-0.100,197.222,108.333,391.667,700.000,55.556,L
1320,-0.190,1.355,0.000,197.222,105.556,388.889,683.333,16.667,L
1321,-0.240,1.490,-0.015,88.889,105.556,397.222,691.667,8.333,L
1322,-0.215,1.550,-0.025,69.444,100.000,380.556,716.667,25.000,L
1323,-0.245,1.595,-0.070,72.222,113.889,388.889,700.000,16.667,L
1324,-0.295,1.475,-0.110,72.222,111.111,394.444,702.778,2.778,L
1325,-0.265,1.360,-0.045,77.778,113.889,391.667,741.667,38.889,L
1326,-0.235,1.495,-0.080,77.778,108.333,394.444,727.778,13.889,L
1327,-0.240,1.530,-0.050,83.333,113.889,402.778,741.667,13.889,L
1328,-0.255,1.580,-0.080,197.222,102.778,377.778,702.778,38.889,L
1329,-0.205,1.460,-0.065,197.222,94.444,375.000,686.111,16.667,L
1330,-0.235,1.505,-0.050,69.444,111.111,388.889,694.444,8.333,L
1331,-0.265,1.555,-0.055,63.889,105.556,388.889,730.556,36.111,L
1332,-0.235,1.560,-0.095,83.333,111.111,386.111,722.222,8.333,L
1333,-0.275,1.475,-0.125,69.444,111.111,397.222,719.444,2.778,L
1334,-0.275,1.425,-0.105,80.556,111.111,400.000,755.556,36.111,L
1335,-0.260,1.510,-0.075,86.111,105.556,397.222,727.778,27.778,L
1336,-0.265,1.495,-0.075,69.444,113.889,402.778,727.778,0.000,L
1337,-0.245,1.545,-0.055,66.667,102.778,394.444,705.556,22.222,L
1338,-0.210,1.510,-0.075,197.222,97.222,372.222,691.667,13.889,L
1339,-0.225,1.435,-0.010,69.444,100.000,391.667,694.444,2.778,L
1340,-0.205,1.540,-0.015,91.667,105.556,394.444,750.000,55.556,L
1341,-0.205,1.545,-0.040,75.000,111.111,402.778,744.444,5.556,L
1342,-0.205,1.530,-0.055,77.778,111.111,391.667,727.778,16.667,L
1343,-0.235,1.525,-0.085,88.889,111.111,400.000,741.667,13.889,L
1344,-0.235,1.450,-0.050,75.000,105.556,394.444,722.222,19.444,L
1345,-0.215,1.510,-0.040,72.222,102.778,391.667,716.667,5.556,L
1346,-0.190,1.545,-0.055,197.222,97.222,386.111,705.556,11.111,L
1347,-0.225,1.530,-0.105,197.222,97.222,372.222,697.222,8.333,L
1348,-0.260,1.450,-0.090,63.889,113.889,402.778,702.778,5.556,L
1349,-0.240,1.515,-0.065,80.556,111.111,400.000,769.444,66.667,L
1350,-0.230,1.540,-0.045,91.667,105.556,397.222,758.333,11.111,L
1351,-0.235,1.585,-0.060,83.333,108.333,402.778,725.000,33.333,L
1352,-0.195,1.535,-0.060,77.778,102.778,388.889,727.778,2.778,L
1353,-0.245,1.400,-0.070,83.333,111.111,397.222,702.778,25.000,L
1354,-0.245,1.475,-0.100,72.222,102.778,391.667,722.222,19.444,L
1355,-0.260,1.490,-0.110,197.222,100.000,391.667,700.000,22.222,L
1356,-0.280,1.535,-0.125,72.222,100.000,391.667,700.000,0.000,L
1357,-0.310,1.530,-0.180,80.556,113.889,402.778,727.778,27.778,L
1358,-0.245,1.465,-0.065,83.333,113.889,402.778,783.333,55.556,L
1359,-0.200,1.560,-0.025,80.556,113.889,391.667,750.000,33.333,L
1360,-0.210,1.580,-0.035,91.667,111.111,386.111,722.222,27.778,L
1361,-0.240,1.580,-0.110,69.444,111.111,372.222,713.889,8.333,L
1362,-0.265,1.490,-0.110,69.444,105.556,380.556,688.889,25.000,L
1363,-0.270,1.440,-0.045,69.444,113.889,386.111,711.111,22.222,L
1364,-0.210,1.530,-0.030,66.667,105.556,383.333,697.222,13.889,L
1365,-0.200,1.595,-0.005,72.222,105.556,394.444,708.333,11.111,L
1366,-0.190,1.630,-0.105,80.556,111.111,394.444,738.889,30.556,L
1367,-0.205,1.500,-0.035,72.222,108.333,405.556,775.000,36.111,L
1368,-0.205,1.460,-0.010,75.000,105.556,377.778,736.111,38.889,L
1369,-0.185,1.530,-0.015,75.000,102.778,377.778,700.000,36.111,L
1370,-0.225,1.605,-0.045,75.000,105.556,375.000,708.333,8.333,L
1371,-0.255,1.445,-0.100,66.667,113.889,386.111,686.111,22.222,L
1372,-0.295,1.155,-0.075,75.000,108.333,388.889,711.111,25.000,L
1373,-0.255,1.335,-0.065,72.222,105.556,391.667,713.889,2.778,L
1374,-0.255,1.465,-0.040,72.222,102.778,394.444,730.556,16.667,L
1375,-0.265,1.505,-0.125,83.333,111.111,400.000,744.444,13.889,L
1376,-0.325,1.415,-0.165,72.222,105.556,383.333,772.222,27.778,L
1377,-0.355,1.120,-0.135,58.333,102.778,361.111,733.333,38.889,L
1378,-0.300,1.225,-0.050,66.667,105.556,380.556,694.444,38.889,L
1379,-0.270,1.385,-0.045,66.667,113.889,372.222,697.222,2.778,L
1380,-0.280,1.510,-0.060,80.556,108.333,388.889,700.000,2.778,L
1381,-0.290,1.525,-0.135,72.222,108.333,400.000,722.222,22.222,L
1382,-0.325,1.225,-0.140,69.444,116.667,405.556,730.556,8.333,L
1383,-0.310,1.210,-0.065,69.444,108.333,394.444,736.111,5.556,L
1384,-0.285,1.405,-0.085,75.000,108.333,400.000,752.778,16.667,L
1385,-0.265,1.535,-0.045,75.000,108.333,388.889,755.556,2.778,L
1386,-0.275,1.580,-0.090,69.444,100.000,372.222,713.889,41.667,L
1387,-0.255,1.480,-0.040,61.111,100.000,375.000,683.333,30.556,L
1388,-0.255,1.565,-0.060,197.222,100.000,369.444,702.778,19.444,L
1389,-0.270,1.570,-0.060,75.000,100.000,391.667,713.889,11.111,L
1390,-0.275,1.595,-0.115,88.889,111.111,405.556,744.444,30.556,L
1391,-0.310,1.410,-0.110,88.889,113.889,405.556,733.333,11.111,L
1392,-0.295,1.295,-0.085,66.667,111.111,400.000,727.778,5.556,L
1393,-0.280,1.415,-0.055,88.889,113.889,405.556,755.556,27.778,L
1394,-0.220,1.515,-0.030,197.222,102.778,394.444,725.000,30.556,L
1395,-0.185,1.570,-0.080,197.222,97.222,361.111,688.889,36.111,L
1396,-0.215,1.355,-0.050,197.222,100.000,386.111,680.556,8.333,L
1397,-0.195,1.410,0.000,197.222,94.444,377.778,700.000,19.444,L
1398,-0.205,1.495,-0.010,77.778,102.778,391.667,713.889,13.889,L
1399,-0.200,1.520,-0.005,75.000,105.556,397.222,761.111,47.222,L
1400,-0.220,1.555,-0.050,77.778,111.111,405.556,744.444,16.667,L
1401,-0.250,1.375,-0.060,75.000,105.556,391.667,725.000,19.444,L
1402,-0.220,1.470,-0.005,80.556,113.889,405.556,758.333,33.333,L
1403,-0.195,1.505,-0.015,197.222,100.000,391.667,719.444,38.889,L
1404,-0.095,1.510,-0.050,197.222,91.667,377.778,697.222,22.222,L
1405,-0.225,1.500,-0.100,197.222,108.333,397.222,700.000,2.778,L
1406,-0.250,1.300,-0.055,72.222,100.000,391.667,725.000,25.000,L
1407,-0.215,1.405,-0.065,75.000,111.111,394.444,752.778,27.778,L
1408,-0.220,1.460,-0.015,69.444,105.556,400.000,777.778,25.000,L
1409,-0.220,1.485,-0.035,75.000,102.778,394.444,750.000,27.778,L
1410,-0.240,1.470,-0.060,75.000,102.778,391.667,722.222,27.778,L
1411,-0.230,1.405,-0.035,66.667,111.111,400.000,738.889,16.667,L
1412,-0.205,1.460,-0.005,77.778,102.778,391.667,711.111,27.778,L
1413,-0.105,1.485,-0.045,197.222,97.222,391.667,691.667,19.444,L
1414,-0.260,1.455,-0.125,72.222,100.000,394.444,705.556,13.889,L
1415,-0.285,1.395,-0.130,72.222,105.556,397.222,730.556,25.000,L
1416,-0.280,1.425,-0.165,72.222,108.333,400.000,766.667,36.111,L
1417,-0.300,1.415,-0.130,69.444,105.556,383.333,763.889,2.778,L
1418,-0.280,1.440,-0.105,72.222,100.000,375.000,736.111,27.778,L
1419,-0.280,1.490,-0.105,66.667,102.778,388.889,711.111,25.000,L
1420,-0.270,1.495,-0.125,72.222,105.556,380.556,738.889,27.778,L
1421,-0.275,1.445,-0.110,75.000,105.556,377.778,702.778,36.111,L
1422,-0.255,1.420,-0.035,75.000,102.778,394.444,697.222,5.556,L
1423,-0.190,1.510,-0.050,77.778,111.111,394.444,722.222,25.000,L
1424,-0.220,1.525,-0.095,77.778,113.889,402.778,738.889,16.667,L
1425,-0.240,1.505,-0.135,72.222,111.111,397.222,758.333,19.444,L
1426,-0.260,1.440,-0.080,72.222,102.778,397.222,747.222,11.111,L
1427,-0.225,1.435,-0.020,66.667,94.444,380.556,711.111,36.111,L
1428,-0.200,1.500,-0.020,72.222,100.000,391.667,691.667,19.444,L
1429,-0.195,1.535,-0.050,77.778,105.556,377.778,722.222,30.556,L
1430,-0.245,1.525,-0.090,72.222,108.333,400.000,691.667,30.556,L
1431,-0.260,1.340,-0.075,66.667,113.889,402.778,694.444,2.778,L
1432,-0.225,1.410,-0.035,86.111,111.111,400.000,736.111,41.667,L
1433,-0.205,1.500,-0.050,69.444,108.333,400.000,733.333,2.778,L
1434,-0.220,1.495,-0.105,77.778,111.111,388.889,744.444,11.111,L
1435,-0.275,1.450,-0.135,69.444,100.000,375.000,738.889,5.556,L
1436,-0.300,1.265,-0.080,69.444,105.556,363.889,702.778,36.111,L
1437,-0.265,1.360,-0.095,83.333,102.778,388.889,677.778,25.000,L
1438,-0.275,1.415,-0.120,77.778,108.333,388.889,711.111,33.333,L
1439,-0.300,1.485,-0.170,66.667,108.333,400.000,705.556,5.556,L
1440,-0.340,1.310,-0.190,75.000,100.000,388.889,713.889,8.333,L
1441,-0.360,1.145,-0.140,72.222,105.556,394.444,727.778,13.889,L
1442,-0.275,1.355,-0.090,83.333,108.333,400.000,741.667,13.889,L
1443,-0.290,1.460,-0.105,83.333,105.556,397.222,736.111,5.556,L
1444,-0.300,1.505,-0.120,66.667,108.333,383.333,733.333,2.778,L
1445,-0.315,1.400,-0.155,72.222,102.778,375.000,688.889,44.444,L
1446,-0.335,1.270,-0.105,69.444,102.778,391.667,683.333,5.556,L
1447,-0.325,1.400,-0.145,77.778,108.333,394.444,719.444,36.111,L
1448,-0.335,1.495,-0.150,63.889,105.556,391.667,736.111,16.667,L
1449,-0.325,1.535,-0.170,66.667,97.222,394.444,738.889,2.778,L
1450,-0.345,1.255,-0.140,58.333,105.556,394.444,725.000,13.889,L
1451,-0.090,0.420,0.325,147.222,77.778,330.556,663.889,61.111,V
1452,-0.230,1.570,-0.030,69.444,105.556,397.222,813.889,150.000,L
1453,-0.260,1.575,-0.040,75.000,102.778,375.000,705.556,108.333,L
1454,-0.240,1.595,-0.065,72.222,108.333,380.556,694.444,11.111,L
1455,-0.255,1.385,-0.050,69.444,105.556,394.444,686.111,8.333,L
1456,-0.220,1.450,-0.010,80.556,113.889,402.778,725.000,38.889,L
1457,-0.190,1.585,0.000,77.778,105.556,400.000,744.444,19.444,L
1458,-0.195,1.700,0.030,83.333,105.556,391.667,744.444,0.000,L
1459,-0.190,1.690,-0.035,75.000,102.778,394.444,722.222,22.222,L
1460,-0.240,1.470,-0.040,66.667,100.000,375.000,730.556,8.333,L
1461,-0.220,1.390,0.045,66.667,108.333,386.111,711.111,19.444,L
1462,-0.160,1.570,0.025,72.222,105.556,380.556,705.556,5.556,L
1463,0.005,0.510,0.085,197.222,83.333,366.667,630.556,75.000,V
1464,-0.260,1.590,-0.125,197.222,105.556,400.000,747.222,116.667,L
1465,-0.360,1.470,-0.250,80.556,113.889,394.444,730.556,16.667,L
1466,-0.365,1.255,-0.145,77.778,108.333,388.889,763.889,33.333,L
1467,-0.285,1.365,-0.055,86.111,108.333,386.111,744.444,19.444,L
1468,-0.275,1.460,-0.065,75.000,105.556,391.667,719.444,25.000,L
1469,-0.265,1.550,-0.065,86.111,105.556,366.667,711.111,8.333,L
1470,-0.260,1.545,-0.095,72.222,105.556,375.000,688.889,22.222,L
1471,-0.295,1.415,-0.100,75.000,113.889,380.556,705.556,16.667,L
1472,-0.270,1.340,-0.030,72.222,105.556,391.667,697.222,8.333,L
1473,-0.235,1.465,-0.045,75.000,102.778,397.222,697.222,0.000,L
1474,-0.245,1.495,-0.085,69.444,113.889,402.778,744.444,47.222,L
1475,-0.260,1.535,-0.100,72.222,105.556,397.222,769.444,25.000,L
1476,-0.255,1.390,-0.055,69.444,108.333,375.000,736.111,33.333,L
1477,-0.230,1.440,-0.035,72.222,100.000,391.667,700.000,36.111,L
1478,-0.225,1.460,-0.040,77.778,102.778,361.111,702.778,2.778,L
1479,-0.245,1.510,-0.065,77.778,105.556,391.667,686.111,16.667,L
1480,-0.240,1.495,-0.075,63.889,113.889,386.111,705.556,19.444,L
1481,-0.245,1.350,-0.025,94.444,108.333,394.444,708.333,2.778,L
1482,-0.190,1.440,-0.005,69.444,102.778,388.889,713.889,5.556,L
1483,-0.200,1.495,-0.055,75.000,116.667,405.556,752.778,38.889,L
1484,-0.185,1.520,-0.060,77.778,102.778,391.667,766.667,13.889,L
1485,-0.265,1.495,-0.095,83.333,102.778,369.444,722.222,44.444,L
1486,-0.275,1.355,-0.090,83.333,94.444,377.778,686.111,36.111,L
1487,-0.275,1.410,-0.090,66.667,113.889,388.889,697.222,11.111,L
1488,-0.295,1.420,-0.110,77.778,102.778,388.889,694.444,2.778,L
1489,-0.295,1.390,-0.115,72.222,108.333,397.222,713.889,19.444,L
1490,-0.310,1.435,-0.125,66.667,113.889,402.778,725.000,11.111,L
1491,-0.115,0.550,0.365,77.778,86.111,361.111,577.778,147.222,V
1492,-0.250,1.405,-0.125,80.556,113.889,402.778,919.444,341.667,L
1493,-0.280,1.380,-0.065,72.222,100.000,394.444,761.111,158.333,L
1494,-0.235,1.460,-0.060,69.444,100.000,380.556,727.778,33.333,L
1495,-0.255,1.440,-0.095,75.000,97.222,361.111,688.889,38.889,L
1496,-0.260,1.395,-0.055,69.444,94.444,377.778,697.222,8.333,L
1497,-0.235,1.470,-0.060,80.556,108.333,388.889,711.111,13.889,L
1498,-0.250,1.455,-0.055,69.444,113.889,391.667,736.111,25.000,L
1499,-0.230,1.500,-0.065,86.111,111.111,402.778,733.333,2.778,L
1500,-0.265,1.465,-0.125,69.444,111.111,400.000,730.556,2.778,L
1501,-0.320,1.380,-0.160,75.000,105.556,394.444,744.444,13.889,L
1502,-0.275,1.355,-0.100,77.778,100.000,386.111,736.111,8.333,L
1503,-0.275,1.420,-0.080,197.222,97.222,369.444,697.222,38.889,L
1504,-0.250,1.475,-0.105,197.222,97.222,388.889,683.333,13.889,L
1505,-0.290,1.495,-0.105,72.222,94.444,375.000,694.444,11.111,L
1506,-0.275,1.400,-0.095,80.556,105.556,402.778,711.111,16.667,L
1507,-0.245,1.385,-0.035,77.778,113.889,397.222,761.111,50.000,L
1508,-0.235,1.525,-0.040,77.778,111.111,402.778,738.889,22.222,L
1509,-0.215,1.525,-0.060,69.444,111.111,386.111,719.444,19.444,L
1510,-0.260,1.570,-0.080,72.222,105.556,394.444,738.889,19.444,L
1511,-0.205,1.505,-0.040,197.222,102.778,380.556,711.111,27.778,L
1512,-0.140,1.445,0.010,197.222,94.444,372.222,686.111,25.000,L
1513,-0.165,1.520,0.010,197.222,100.000,388.889,672.222,13.889,L
1514,-0.195,1.615,-0.030,75.000,97.222,383.333,702.778,30.556,L
1515,-0.240,1.580,-0.100,72.222,108.333,397.222,725.000,22.222,L
1516,-0.280,1.470,-0.105,88.889,113.889,402.778,750.000,25.000,L
1517,-0.250,1.390,-0.025,72.222,108.333,397.222,736.111,13.889,L
1518,-0.235,1.540,-0.050,72.222,108.333,400.000,711.111,25.000,L
1519,-0.235,1.590,-0.080,75.000,108.333,391.667,727.778,16.667,L
1520,-0.225,1.530,-0.065,197.222,102.778,391.667,705.556,22.222,L
1521,-0.175,1.440,-0.020,197.222,100.000,372.222,691.667,13.889,L
1522,-0.185,1.535,0.015,197.222,102.778,386.111,686.111,5.556,L
1523,-0.200,1.605,-0.010,69.444,102.778,397.222,722.222,36.111,L
1524,-0.205,1.655,-0.065,69.444,105.556,397.222,750.000,27.778,L
1525,-0.250,1.460,-0.055,66.667,111.111,402.778,766.667,16.667,L
1526,-0.230,1.440,-0.040,88.889,113.889,388.889,733.333,33.333,L
1527,-0.240,1.510,-0.045,69.444,105.556,380.556,702.778,30.556,L
1528,-0.250,1.560,-0.090,75.000,105.556,394.444,719.444,16.667,L
1529,-0.285,1.445,-0.125,197.222,102.778,375.000,700.000,19.444,L
1530,-0.220,1.350,-0.035,197.222,102.778,394.444,697.222,2.778,L
1531,-0.200,1.470,-0.045,72.222,102.778,394.444,702.778,5.556,L
1532,-0.035,0.555,0.395,116.667,83.333,352.778,611.111,91.667,V
1533,-0.290,1.520,-0.140,72.222,105.556,397.222,869.444,258.333,L
1534,-0.305,1.390,-0.135,72.222,102.778,377.778,755.556,113.889,L
1535,-0.265,1.350,-0.015,66.667,111.111,388.889,722.222,33.333,L
1536,-0.205,1.490,-0.010,75.000,102.778,386.111,683.333,38.889,L
1537,-0.195,1.560,0.000,75.000,105.556,397.222,711.111,27.778,L
1538,-0.190,1.595,-0.075,80.556,102.778,388.889,705.556,5.556,L
1539,-0.225,1.395,-0.075,197.222,97.222,383.333,700.000,5.556,L
1540,-0.245,1.195,-0.045,86.111,102.778,394.444,708.333,8.333,L
1541,-0.175,1.380,0.000,63.889,111.111,388.889,741.667,33.333,L
1542,-0.010,0.545,0.485,91.667,88.889,358.333,597.222,144.444,V
1543,-0.200,1.505,-0.060,80.556,113.889,391.667,905.556,308.333,L
1544,-0.280,1.390,-0.070,61.111,102.778,375.000,694.444,211.111,L
1545,-0.215,1.270,-0.045,197.222,105.556,391.667,686.111,8.333,L
1546,-0.210,1.290,-0.015,77.778,111.111,394.444,716.667,30.556,L
1547,-0.180,1.400,-0.010,72.222,102.778,375.000,711.111,5.556,L
1548,-0.190,1.480,-0.030,197.222,97.222,388.889,705.556,5.556,L
1549,-0.230,1.485,-0.065,86.111,111.111,402.778,722.222,16.667,L
1550,-0.255,1.345,-0.080,72.222,100.000,388.889,738.889,16.667,L
1551,-0.245,1.215,-0.010,66.667,108.333,400.000,741.667,2.778,L
1552,-0.175,1.395,0.025,72.222,108.333,383.333,736.111,5.556,L
1553,-0.175,1.485,0.035,69.444,100.000,383.333,700.000,36.111,L
1554,-0.155,1.480,-0.010,197.222,111.111,386.111,680.556,19.444,L
1555,-0.230,1.425,-0.105,97.222,105.556,397.222,713.889,33.333,L
1556,-0.270,1.195,-0.105,69.444,105.556,397.222,722.222,8.333,L
1557,-0.065,0.445,0.360,158.333,91.667,350.000,638.889,83.333,V
1558,-0.215,1.400,-0.045,75.000,102.778,397.222,833.333,194.444,L
1559,-0.260,1.385,-0.085,63.889,102.778,383.333,738.889,94.444,L
1560,-0.250,1.320,-0.095,72.222,105.556,397.222,741.667,2.778,L
1561,-0.255,1.220,-0.045,75.000,102.778,375.000,719.444,22.222,L
1562,-0.240,1.360,-0.065,66.667,105.556,380.556,691.667,27.778,L
1563,-0.230,1.350,-0.100,197.222,100.000,386.111,683.333,8.333,L
1564,-0.295,1.360,-0.155,77.778,108.333,391.667,713.889,30.556,L
1565,-0.325,1.315,-0.185,66.667,111.111,402.778,736.111,22.222,L
1566,-0.325,1.215,-0.095,77.778,111.111,391.667,750.000,13.889,L
1567,-0.265,1.345,-0.085,77.778,102.778,397.222,727.778,22.222,L
1568,-0.265,1.365,-0.105,77.778,105.556,377.778,733.333,5.556,L
1569,-0.310,1.365,-0.170,75.000,105.556,391.667,719.444,13.889,L
1570,-0.335,1.260,-0.150,75.000,111.111,400.000,716.667,2.778,L
1571,-0.285,1.295,-0.095,69.444,102.778,380.556,691.667,25.000,L
1572,-0.260,1.375,-0.070,80.556,97.222,388.889,691.667,0.000,L
1573,-0.245,1.445,-0.080,72.222,111.111,402.778,725.000,33.333,L
1574,-0.265,1.415,-0.120,80.556,108.333,400.000,761.111,36.111,L
1575,-0.285,1.400,-0.105,72.222,105.556,400.000,741.667,19.444,L
1576,-0.230,1.355,0.010,77.778,100.000,388.889,719.444,22.222,L
1577,-0.165,1.470,0.035,77.778,100.000,372.222,716.667,2.778,L
1578,-0.155,1.515,-0.010,83.333,111.111,386.111,691.667,25.000,L
1579,-0.250,1.480,-0.095,69.444,111.111,402.778,702.778,11.111,L
1580,-0.285,1.435,-0.175,197.222,102.778,386.111,691.667,11.111,L
1581,-0.320,1.325,-0.115,197.222,100.000,391.667,700.000,8.333,L
1582,-0.275,1.355,-0.115,75.000,113.889,402.778,730.556,30.556,L
1583,-0.250,1.460,-0.085,77.778,113.889,391.667,775.000,44.444,L
1584,-0.295,1.480,-0.100,77.778,108.333,386.111,730.556,44.444,L
1585,-0.275,1.525,-0.100,72.222,105.556,391.667,711.111,19.444,L
1586,-0.280,1.435,-0.135,80.556,102.778,375.000,705.556,5.556,L
1587,-0.315,1.350,-0.090,77.778,108.333,391.667,680.556,25.000,L
1588,-0.285,1.460,-0.095,69.444,108.333,397.222,705.556,25.000,L
1589,-0.290,1.445,-0.105,197.222,100.000,388.889,708.333,2.778,L
1590,-0.295,1.490,-0.125,75.000,100.000,391.667,716.667,8.333,L
1591,-0.340,1.490,-0.195,69.444,108.333,400.000,730.556,13.889,L
1592,-0.330,1.365,-0.100,75.000,111.111,391.667,772.222,41.667,L
1593,-0.280,1.445,-0.075,83.333,116.667,391.667,738.889,33.333,L
1594,-0.070,0.530,0.395,161.111,75.000,347.222,513.889,225.000,V
1595,-0.260,1.575,-0.060,72.222,102.778,397.222,875.000,361.111,L
1596,-0.300,1.510,-0.105,72.222,105.556,394.444,683.333,191.667,L
1597,-0.250,1.410,-0.040,66.667,108.333,400.000,727.778,44.444,L
1598,-0.210,1.510,-0.045,72.222,100.000,394.444,722.222,5.556,L
1599,-0.250,1.565,-0.055,66.667,108.333,391.667,744.444,22.222,L
1600,-0.255,1.580,-0.090,86.111,108.333,400.000,736.111,8.333,L
1601,-0.285,1.595,-0.140,75.000,108.333,394.444,775.000,38.889,L
1602,-0.310,1.475,-0.110,69.444,105.556,377.778,727.778,47.222,L
1603,-0.245,1.445,-0.005,197.222,100.000,375.000,686.111,41.667,L
1604,-0.195,1.590,0.000,69.444,108.333,400.000,694.444,8.333,L
1605,-0.210,1.685,-0.040,77.778,108.333,388.889,694.444,0.000,L
1606,-0.260,1.590,-0.140,77.778,105.556,394.444,730.556,36.111,L
1607,0.355,-1.060,0.005,80.556,8.333,250.000,625.000,105.556,V
1608,-0.280,1.435,-0.030,83.333,111.111,405.556,852.778,227.778,L
1609,-0.300,1.495,-0.145,77.778,108.333,397.222,738.889,113.889,L
1610,-0.285,1.600,-0.055,66.667,111.111,388.889,772.222,33.333,L
1611,-0.280,1.640,-0.110,69.444,100.000,363.889,702.778,69.444,L
1612,-0.280,1.530,0.000,75.000,102.778,386.111,680.556,22.222,L
1613,-0.215,1.595,-0.010,75.000,108.333,386.111,697.222,16.667,L
1614,-0.235,1.620,-0.045,77.778,111.111,394.444,697.222,0.000,L
1615,-0.270,1.635,-0.165,80.556,116.667,405.556,738.889,41.667,L
1616,-0.295,1.480,-0.095,72.222,105.556,394.444,738.889,0.000,L
1617,-0.245,1.435,-0.040,69.444,111.111,402.778,730.556,8.333,L
1618,-0.250,1.535,-0.095,69.444,113.889,400.000,733.333,2.778,L
1619,-0.315,1.545,-0.125,75.000,100.000,375.000,741.667,8.333,L
1620,-0.305,1.430,-0.030,72.222,100.000,375.000,683.333,58.333,L
1621,-0.235,1.540,-0.030,69.444,111.111,388.889,675.000,8.333,L
1622,-0.255,1.545,-0.095,75.000,108.333,388.889,691.667,16.667,L
1623,-0.320,1.500,-0.180,75.000,113.889,397.222,700.000,8.333,L
1624,-0.360,1.355,-0.145,77.778,113.889,405.556,738.889,38.889,L
1625,-0.285,1.440,-0.095,77.778,111.111,391.667,744.444,5.556,L
1626,-0.275,1.505,-0.100,69.444,105.556,394.444,727.778,16.667,L
1627,-0.320,1.515,-0.120,63.889,102.778,388.889,708.333,19.444,L
1628,-0.295,1.335,-0.055,69.444,102.778,377.778,725.000,16.667,L
1629,-0.235,1.385,-0.050,77.778,100.000,377.778,688.889,36.111,L
1630,-0.250,1.480,-0.065,86.111,108.333,386.111,675.000,13.889,L
1631,-0.280,1.485,-0.120,77.778,113.889,391.667,697.222,22.222,L
1632,-0.305,1.390,-0.150,80.556,113.889,402.778,713.889,16.667,L
1633,-0.280,1.315,-0.100,77.778,113.889,402.778,750.000,36.111,L
1634,-0.195,1.430,-0.010,69.444,105.556,397.222,741.667,8.333,L
1635,-0.205,1.500,-0.030,75.000,100.000,377.778,719.444,22.222,L
1636,-0.235,1.500,-0.065,69.444,102.778,394.444,697.222,22.222,L
1637,-0.245,1.455,-0.065,69.444,108.333,372.222,713.889,16.667,L
1638,-0.210,1.365,0.005,72.222,102.778,375.000,688.889,25.000,L
1639,-0.195,1.480,-0.030,69.444,108.333,386.111,677.778,11.111,L
1640,-0.220,1.510,-0.045,86.111,111.111,402.778,702.778,25.000,L
1641,-0.240,1.530,-0.125,77.778,111.111,394.444,722.222,19.444,L
1642,0.310,-0.980,0.050,86.111,0.000,272.222,652.778,69.444,V
1643,-0.225,1.380,-0.010,75.000,105.556,400.000,836.111,183.333,L
1644,-0.150,1.440,-0.030,197.222,100.000,375.000,713.889,122.222,L
1645,-0.200,1.490,-0.030,72.222,105.556,394.444,711.111,2.778,L
1646,-0.240,1.500,-0.090,66.667,102.778,375.000,722.222,11.111,L
1647,-0.245,1.355,-0.035,72.222,100.000,377.778,694.444,27.778,L
1648,-0.185,1.425,0.040,80.556,111.111,388.889,691.667,2.778,L
1649,-0.155,1.520,0.005,83.333,116.667,402.778,738.889,47.222,L
1650,-0.210,1.530,-0.070,80.556,116.667,405.556,730.556,8.333,L
1651,-0.265,1.455,-0.125,88.889,113.889,402.778,755.556,25.000,L
1652,-0.280,1.330,-0.035,75.000,105.556,391.667,722.222,33.333,L
1653,-0.150,1.490,0.020,197.222,97.222,375.000,691.667,30.556,L
1654,-0.175,1.560,-0.010,80.556,105.556,388.889,691.667,0.000,L
1655,-0.220,1.560,-0.065,72.222,100.000,377.778,716.667,25.000,L
1656,-0.250,1.400,-0.025,77.778,105.556,391.667,700.000,16.667,L
1657,-0.170,1.480,0.000,80.556,113.889,386.111,705.556,5.556,L
1658,-0.190,1.540,-0.035,77.778,116.667,397.222,744.444,38.889,L
1659,-0.230,1.525,-0.105,75.000,113.889,402.778,730.556,13.889,L
1660,-0.280,1.390,-0.110,66.667,108.333,400.000,744.444,13.889,L
1661,-0.270,1.270,-0.050,69.444,105.556,394.444,719.444,25.000,L
1662,-0.205,1.385,-0.075,197.222,97.222,372.222,688.889,30.556,L
1663,-0.265,1.440,-0.080,75.000,102.778,391.667,683.333,5.556,L
1664,-0.270,1.475,-0.125,72.222,105.556,383.333,727.778,44.444,L
1665,-0.315,1.445,-0.130,77.778,111.111,394.444,725.000,2.778,L
1666,-0.285,1.320,-0.055,77.778,111.111,394.444,713.889,11.111,L
1667,-0.225,1.445,-0.010,80.556,113.889,400.000,738.889,25.000,L
1668,-0.190,1.550,-0.030,80.556,113.889,400.000,733.333,5.556,L
1669,-0.210,1.580,-0.090,63.889,113.889,402.778,733.333,0.000,L
1670,-0.205,1.470,-0.110,197.222,100.000,386.111,694.444,38.889,L
1671,-0.210,1.430,-0.020,197.222,100.000,386.111,686.111,8.333,L
1672,-0.195,1.520,-0.015,77.778,105.556,394.444,697.222,11.111,L
1673,-0.195,1.625,-0.005,80.556,111.111,391.667,738.889,41.667,L
1674,-0.205,1.630,-0.035,80.556,113.889,388.889,733.333,5.556,L
1675,-0.225,1.440,-0.035,75.000,111.111,394.444,725.000,8.333,L
1676,-0.200,1.490,0.005,77.778,111.111,391.667,736.111,11.111,L
1677,-0.185,1.610,-0.015,77.778,113.889,402.778,719.444,16.667,L
1678,-0.205,1.645,-0.050,69.444,111.111,388.889,722.222,2.778,L
1679,-0.155,1.570,-0.040,197.222,102.778,377.778,683.333,38.889,L
1680,-0.170,1.505,0.010,197.222,100.000,375.000,686.111,2.778,L
1681,-0.230,1.535,-0.060,72.222,108.333,397.222,697.222,11.111,L
1682,-0.275,1.555,-0.080,72.222,111.111,388.889,752.778,55.556,L
1683,-0.265,1.575,-0.075,83.333,113.889,405.556,730.556,22.222,L
1684,-0.300,1.560,-0.135,72.222,108.333,397.222,719.444,11.111,L
1685,-0.320,1.445,-0.105,80.556,111.111,402.778,727.778,8.333,L
1686,-0.240,1.490,-0.010,77.778,105.556,386.111,697.222,30.556,L
1687,-0.190,1.590,-0.015,69.444,111.111,386.111,702.778,5.556,L
1688,-0.170,1.620,-0.040,197.222,102.778,383.333,702.778,0.000,L
1689,-0.245,1.535,-0.115,197.222,100.000,375.000,688.889,13.889,L
1690,-0.285,1.350,-0.095,69.444,105.556,397.222,697.222,8.333,L
1691,-0.235,1.435,-0.065,86.111,116.667,402.778,766.667,69.444,L
1692,-0.240,1.500,-0.085,77.778,116.667,394.444,744.444,22.222,L
1693,-0.240,1.515,-0.080,80.556,105.556,400.000,716.667,27.778,L
1694,-0.270,1.525,-0.130,66.667,111.111,402.778,719.444,2.778,L
1695,-0.245,1.370,-0.090,197.222,100.000,386.111,697.222,22.222,L
1696,-0.200,1.450,-0.025,197.222,97.222,391.667,702.778,5.556,L
1697,-0.215,1.490,-0.045,72.222,100.000,375.000,722.222,19.444,L
1698,-0.250,1.485,-0.110,77.778,102.778,372.222,702.778,19.444,L
1699,-0.280,1.430,-0.145,80.556,113.889,397.222,705.556,2.778,L
1700,-0.255,1.325,-0.070,86.111,113.889,405.556,772.222,66.667,L
1701,-0.215,1.480,-0.035,72.222,111.111,402.778,750.000,22.222,L
1702,-0.200,1.520,-0.045,72.222,100.000,375.000,719.444,30.556,L
1703,-0.245,1.430,-0.095,197.222,105.556,397.222,697.222,22.222,L
1704,-0.210,1.380,-0.095,197.222,100.000,377.778,697.222,0.000,L
1705,-0.275,1.450,-0.095,197.222,100.000,391.667,705.556,8.333,L
1706,-0.270,1.475,-0.095,72.222,97.222,369.444,716.667,11.111,L
1707,-0.260,1.360,-0.085,72.222,105.556,394.444,716.667,0.000,L
1708,-0.260,1.260,-0.060,77.778,108.333,400.000,719.444,2.778,L
1709,-0.225,1.420,-0.080,86.111,111.111,402.778,758.333,38.889,L
1710,-0.225,1.440,-0.055,75.000,105.556,397.222,741.667,16.667,L
1711,-0.225,1.480,-0.105,197.222,94.444,372.222,713.889,27.778,L
1712,-0.230,1.325,-0.125,197.222,97.222,375.000,686.111,27.778,L
1713,-0.245,1.270,-0.050,197.222,97.222,375.000,697.222,11.111,L
1714,-0.245,1.400,-0.075,69.444,100.000,391.667,708.333,11.111,L
1715,-0.255,1.465,-0.095,77.778,108.333,388.889,730.556,22.222,L
1716,-0.270,1.405,-0.090,75.000,111.111,400.000,725.000,5.556,L
1717,-0.230,1.340,-0.020,72.222,111.111,402.778,730.556,5.556,L
1718,-0.220,1.415,-0.090,75.000,105.556,397.222,755.556,25.000,L
1719,-0.260,1.430,-0.100,63.889,102.778,394.444,736.111,19.444,L
1720,-0.255,1.410,-0.145,197.222,100.000,369.444,705.556,30.556,L
1721,-0.295,1.240,-0.110,197.222,94.444,380.556,686.111,19.444,L
1722,-0.185,1.335,-0.085,197.222,91.667,377.778,697.222,11.111,L
1723,-0.265,1.370,-0.120,83.333,108.333,400.000,716.667,19.444,L
1724,-0.280,1.445,-0.130,83.333,116.667,405.556,750.000,33.333,L
1725,-0.295,1.345,-0.105,69.444,108.333,394.444,738.889,11.111,L
1726,-0.215,1.320,-0.015,75.000,111.111,391.667,722.222,16.667,L
1727,-0.185,1.440,-0.055,75.000,111.111,400.000,747.222,25.000,L
1728,-0.235,1.440,-0.090,66.667,100.000,377.778,722.222,25.000,L
1729,-0.240,1.415,-0.175,197.222,94.444,361.111,686.111,36.111,L
1730,-0.345,1.225,-0.175,72.222,97.222,394.444,672.222,13.889,L
1731,-0.290,1.245,-0.080,197.222,97.222,388.889,702.778,30.556,L
1732,-0.270,1.375,-0.085,72.222,102.778,391.667,716.667,13.889,L
1733,-0.280,1.450,-0.125,80.556,108.333,397.222,752.778,36.111,L
1734,-0.300,1.430,-0.145,66.667,111.111,400.000,722.222,30.556,L
1735,-0.330,1.275,-0.115,61.111,108.333,388.889,713.889,8.333,L
1736,-0.260,1.365,-0.090,77.778,105.556,394.444,744.444,30.556,L
1737,-0.275,1.485,-0.090,72.222,102.778,375.000,713.889,30.556,L
1738,-0.215,1.495,-0.125,197.222,97.222,375.000,688.889,25.000,L
1739,-0.260,1.425,-0.100,197.222,100.000,388.889,680.556,8.333,L
1740,-0.275,1.330,-0.025,63.889,102.778,388.889,719.444,38.889,L
1741,-0.225,1.450,-0.065,75.000,102.778,394.444,744.444,25.000,L
1742,-0.295,1.465,-0.110,72.222,108.333,400.000,763.889,19.444,L
1743,-0.330,1.530,-0.165,72.222,108.333,402.778,730.556,33.333,L
1744,-0.365,1.370,-0.190,72.222,102.778,391.667,708.333,22.222,L
1745,-0.375,1.290,-0.095,63.889,105.556,391.667,719.444,11.111,L
1746,-0.235,1.500,-0.060,197.222,97.222,386.111,702.778,16.667,L
1747,-0.180,1.570,-0.095,197.222,97.222,372.222,688.889,13.889,L
1748,-0.240,1.555,-0.150,197.222,97.222,394.444,691.667,2.778,L
1749,-0.345,1.390,-0.175,83.333,105.556,400.000,722.222,30.556,L
1750,-0.325,1.345,-0.125,72.222,108.333,397.222,755.556,33.333,L
1751,-0.340,1.490,-0.140,72.222,105.556,397.222,763.889,8.333,L
1752,-0.365,1.465,-0.190,75.000,108.333,388.889,725.000,38.889,L
1753,-0.415,1.495,-0.225,72.222,102.778,394.444,694.444,30.556,L
1754,-0.410,1.365,-0.185,72.222,102.778,394.444,719.444,25.000,L
1755,-0.335,1.430,-0.110,197.222,102.778,400.000,705.556,13.889,L
1756,-0.285,1.540,-0.095,197.222,94.444,386.111,697.222,8.333,L
1757,-0.310,1.615,-0.115,75.000,102.778,391.667,711.111,13.889,L
1758,-0.320,1.620,-0.175,86.111,105.556,397.222,730.556,19.444,L
1759,-0.325,1.470,-0.185,69.444,108.333,400.000,747.222,16.667,L
1760,-0.330,1.410,-0.080,75.000,108.333,394.444,761.111,13.889,L
1761,-0.275,1.555,-0.075,72.222,102.778,377.778,711.111,50.000,L
1762,-0.270,1.620,-0.085,197.222,105.556,391.667,675.000,36.111,L
1763,-0.295,1.655,-0.155,80.556,102.778,391.667,716.667,41.667,L
1764,-0.320,1.520,-0.085,197.222,102.778,394.444,694.444,22.222,L
1765,-0.170,1.625,0.015,197.222,97.222,388.889,702.778,8.333,L
1766,-0.165,1.730,0.025,88.889,111.111,397.222,730.556,27.778,L
1767,-0.150,1.775,-0.010,72.222,111.111,402.778,744.444,13.889,L
1768,-0.250,1.655,-0.110,72.222,108.333,402.778,752.778,8.333,L
1769,-0.270,1.485,-0.015,63.889,102.778,388.889,744.444,8.333,L
1770,-0.150,1.645,0.065,197.222,97.222,361.111,702.778,41.667,L
1771,-0.105,1.725,0.095,69.444,102.778,397.222,683.333,19.444,L
1772,-0.095,1.765,0.050,80.556,108.333,394.444,727.778,44.444,L
1773,-0.155,1.620,0.020,72.222,102.778,394.444,708.333,19.444,L
1774,-0.135,1.605,0.095,72.222,111.111,400.000,711.111,2.778,L
1775,-0.095,1.665,0.055,72.222,111.111,400.000,738.889,27.778,L
1776,-0.110,1.680,0.015,77.778,111.111,402.778,741.667,2.778,L
1777,-0.190,1.600,-0.050,77.778,108.333,400.000,747.222,5.556,L
1778,-0.200,1.430,-0.015,194.444,100.000,375.000,713.889,33.333,L
1779,-0.145,1.515,-0.020,197.222,97.222,366.667,688.889,25.000,L
1780,-0.230,1.520,-0.035,69.444,102.778,400.000,686.111,2.778,L
1781,-0.260,1.510,-0.135,72.222,108.333,400.000,722.222,36.111,L
1782,-0.325,1.340,-0.140,75.000,111.111,402.778,719.444,2.778,L
1783,-0.305,1.310,-0.095,69.444,111.111,400.000,727.778,8.333,L
1784,-0.275,1.375,-0.090,75.000,108.333,402.778,738.889,11.111,L
1785,-0.270,1.445,-0.145,72.222,105.556,397.222,719.444,19.444,L
1786,-0.305,1.410,-0.155,75.000,105.556,391.667,733.333,13.889,L
1787,-0.310,1.275,-0.115,197.222,100.000,386.111,705.556,27.778,L
1788,-0.255,1.360,-0.085,197.222,97.222,363.889,683.333,22.222,L
1789,-0.260,1.475,-0.050,75.000,105.556,386.111,680.556,2.778,L
1790,-0.220,1.515,-0.060,83.333,113.889,402.778,736.111,55.556,L
1791,-0.220,1.475,-0.060,80.556,113.889,402.778,733.333,2.778,L
1792,-0.225,1.355,-0.035,66.667,113.889,405.556,719.444,13.889,L
1793,-0.180,1.410,0.005,69.444,108.333,400.000,733.333,13.889,L
1794,-0.185,1.490,-0.010,86.111,111.111,402.778,716.667,16.667,L
1795,-0.200,1.530,-0.040,80.556,100.000,397.222,711.111,5.556,L
1796,-0.160,1.550,-0.025,197.222,100.000,369.444,700.000,11.111,L
1797,-0.165,1.465,0.015,197.222,97.222,380.556,686.111,13.889,L
1798,-0.170,1.555,0.005,72.222,105.556,400.000,688.889,2.778,L
1799,-0.165,1.615,-0.025,80.556,113.889,397.222,758.333,69.444,L
1800,-0.185,1.575,-0.045,72.222,113.889,402.778,741.667,16.667,L
1801,-0.195,1.470,-0.025,72.222,105.556,394.444,716.667,25.000,L
1802,-0.175,1.470,0.020,83.333,113.889,402.778,730.556,13.889,L
1803,-0.160,1.555,0.035,197.222,102.778,391.667,705.556,25.000,L
1804,-0.175,1.555,-0.030,197.222,100.000,391.667,702.778,2.778,L
1805,-0.215,1.520,-0.055,197.222,97.222,369.444,700.000,2.778,L
1806,-0.225,1.465,0.015,69.444,100.000,391.667,697.222,2.778,L
1807,-0.185,1.555,-0.025,80.556,108.333,400.000,691.667,5.556,L
1808,-0.240,1.515,-0.120,88.889,113.889,405.556,755.556,63.889,L
1809,-0.280,1.370,-0.055,66.667,111.111,402.778,744.444,11.111,L
1810,-0.185,1.495,-0.015,197.222,105.556,397.222,719.444,25.000,L
1811,-0.220,1.525,-0.075,72.222,102.778,397.222,708.333,11.111,L
1812,-0.185,1.490,-0.110,197.222,97.222,380.556,691.667,16.667,L
1813,-0.305,1.365,-0.065,66.667,102.778,386.111,700.000,8.333,L
1814,-0.230,1.445,-0.030,75.000,102.778,375.000,708.333,8.333,L
1815,-0.250,1.495,-0.060,72.222,105.556,397.222,700.000,8.333,L
1816,-0.300,1.490,-0.175,80.556,111.111,391.667,705.556,5.556,L
1817,-0.340,1.330,-0.225,77.778,116.667,405.556,750.000,44.444,L
1818,-0.320,1.310,-0.140,72.222,105.556,394.444,744.444,5.556,L
1819,-0.315,1.450,-0.125,69.444,94.444,380.556,725.000,19.444,L
1820,-0.330,1.485,-0.185,69.444,102.778,366.667,686.111,38.889,L
1821,-0.345,1.435,-0.165,66.667,91.667,377.778,680.556,5.556,L
1822,-0.325,1.320,-0.100,72.222,105.556,377.778,691.667,11.111,L
1823,-0.285,1.445,-0.095,83.333,111.111,388.889,711.111,19.444,L
1824,-0.280,1.530,-0.125,80.556,113.889,400.000,697.222,13.889,L
1825,-0.285,1.520,-0.120,72.222,100.000,391.667,708.333,11.111,L
1826,-0.275,1.450,-0.095,80.556,113.889,402.778,741.667,33.333,L
1827,-0.235,1.505,-0.045,72.222,102.778,391.667,755.556,13.889,L
1828,-0.240,1.615,-0.050,66.667,102.778,369.444,711.111,44.444,L
1829,-0.235,1.675,-0.075,72.222,100.000,377.778,675.000,36.111,L
1830,-0.260,1.565,-0.030,63.889,108.333,375.000,688.889,13.889,L
1831,-0.195,1.585,-0.010,86.111,111.111,402.778,688.889,0.000,L
1832,-0.230,1.625,-0.040,83.333,111.111,402.778,716.667,27.778,L
1833,-0.245,1.640,-0.110,77.778,111.111,397.222,725.000,8.333,L
1834,-0.275,1.515,-0.100,69.444,102.778,394.444,730.556,5.556,L
1835,-0.285,1.420,-0.060,72.222,113.889,405.556,747.222,16.667,L
1836,-0.240,1.550,-0.035,72.222,102.778,375.000,755.556,8.333,L
1837,-0.250,1.605,-0.040,77.778,100.000,375.000,702.778,52.778,L
1838,-0.245,1.640,-0.080,66.667,102.778,380.556,675.000,27.778,L
1839,-0.280,1.520,-0.100,72.222,102.778,377.778,700.000,25.000,L
1840,-0.265,1.440,-0.015,69.444,111.111,402.778,697.222,2.778,L
1841,-0.220,1.520,-0.055,72.222,113.889,405.556,736.111,38.889,L
1842,-0.215,1.595,-0.060,77.778,111.111,400.000,741.667,5.556,L
1843,-0.240,1.605,-0.100,80.556,108.333,400.000,736.111,5.556,L
1844,-0.295,1.465,-0.125,77.778,111.111,400.000,730.556,5.556,L
1845,-0.275,1.390,-0.030,63.889,105.556,388.889,750.000,19.444,L
1846,-0.180,1.525,0.025,77.778,111.111,391.667,700.000,50.000,L
1847,-0.180,1.550,0.000,72.222,100.000,375.000,677.778,22.222,L
1848,-0.205,1.565,-0.065,72.222,105.556,377.778,700.000,22.222,L
1849,-0.245,1.435,-0.105,86.111,113.889,405.556,711.111,11.111,L
1850,-0.065,0.575,0.355,163.889,91.667,358.333,644.444,66.667,V
1851,-0.230,1.485,-0.060,83.333,111.111,400.000,852.778,208.333,L
1852,-0.245,1.485,-0.065,72.222,100.000,388.889,733.333,119.444,L
1853,-0.240,1.500,-0.055,66.667,102.778,397.222,716.667,16.667,L
1854,-0.220,1.455,-0.035,83.333,108.333,386.111,733.333,16.667,L
1855,-0.205,1.445,-0.020,69.444,111.111,383.333,702.778,30.556,L
1856,-0.230,1.455,-0.060,72.222,102.778,377.778,669.444,33.333,L
1857,-0.265,1.455,-0.125,72.222,105.556,391.667,702.778,33.333,L
1858,-0.295,1.395,-0.165,77.778,113.889,402.778,722.222,19.444,L
1859,-0.290,1.305,-0.120,75.000,116.667,402.778,761.111,38.889,L
1860,-0.245,1.385,-0.055,75.000,105.556,391.667,736.111,25.000,L
1861,-0.235,1.480,-0.050,77.778,100.000,388.889,716.667,19.444,L
1862,-0.225,1.535,-0.075,75.000,108.333,400.000,702.778,13.889,L
1863,-0.240,1.440,-0.055,72.222,100.000,361.111,722.222,19.444,L
1864,-0.210,1.320,0.020,77.778,102.778,391.667,688.889,33.333,L
1865,-0.170,1.495,0.015,72.222,102.778,394.444,680.556,8.333,L
1866,-0.200,1.520,0.005,75.000,111.111,400.000,716.667,36.111,L
1867,-0.195,1.545,-0.065,77.778,111.111,400.000,722.222,5.556,L
1868,-0.200,1.425,-0.065,69.444,113.889,405.556,755.556,33.333,L
