id,Pamp,Ramp,Tamp,PR,QRS,QT,RRI,dRRI,label
1,-0.120,0.495,0.150,175.000,52.778,216.667,558.333,30.556,N
2,-0.145,0.510,0.190,175.000,55.556,233.333,547.222,11.111,N
3,-0.145,0.590,0.205,169.444,83.333,241.667,547.222,0.000,N
4,-0.125,0.730,0.220,180.556,61.111,219.444,544.444,2.778,N
5,-0.145,0.630,0.180,166.667,52.778,191.667,519.444,25.000,N
6,-0.180,0.625,0.150,175.000,52.778,208.333,522.222,2.778,N
7,-0.150,0.425,0.135,166.667,52.778,191.667,513.889,8.333,N
8,-0.215,0.540,0.135,175.000,47.222,180.556,522.222,8.333,N
9,-0.200,0.565,0.090,161.111,58.333,216.667,497.222,25.000,N
10,-0.235,0.625,0.130,172.222,52.778,208.333,516.667,19.444,N
11,-0.190,0.535,0.170,172.222,55.556,208.333,519.444,2.778,N
12,-0.125,0.535,0.190,175.000,58.333,216.667,533.333,13.889,N
13,-0.100,0.535,0.230,191.667,61.111,225.000,566.667,33.333,N
14,-0.085,0.925,0.325,188.889,58.333,225.000,580.556,13.889,N
15,0.005,0.750,0.280,191.667,58.333,222.222,555.556,25.000,N
16,-0.095,0.620,0.230,186.111,52.778,208.333,572.222,16.667,N
17,-0.085,0.710,0.270,161.111,77.778,225.000,511.111,61.111,N
18,-0.050,0.595,0.245,166.667,50.000,186.111,505.556,5.556,N
19,-0.090,0.510,0.215,175.000,55.556,208.333,505.556,0.000,N
20,-0.085,0.665,0.280,155.556,47.222,183.333,516.667,11.111,N
21,-0.075,0.660,0.265,172.222,83.333,225.000,502.778,13.889,N
22,-0.040,0.680,0.220,172.222,55.556,208.333,530.556,27.778,N
23,-0.205,0.510,0.170,191.667,77.778,258.333,552.778,22.222,N
24,-0.205,0.555,0.200,169.444,50.000,208.333,558.333,5.556,N
25,-0.135,0.765,0.300,183.333,52.778,208.333,550.000,8.333,N
26,-0.120,0.720,0.260,177.778,55.556,202.778,538.889,11.111,N
27,-0.020,1.010,0.335,177.778,50.000,200.000,519.444,19.444,N
28,0.040,1.025,0.335,177.778,77.778,241.667,516.667,2.778,N
29,-0.090,0.795,0.140,180.556,61.111,208.333,536.111,19.444,N
30,-0.250,0.570,0.095,158.333,41.667,180.556,525.000,11.111,N
31,-0.040,1.245,-0.260,58.333,116.667,400.000,472.222,52.778,V
32,-0.170,0.665,0.275,158.333,58.333,208.333,563.889,91.667,N
33,-0.020,0.655,0.245,175.000,52.778,200.000,516.667,47.222,N
34,-0.015,0.715,0.280,183.333,50.000,205.556,541.667,25.000,N
35,0.005,0.780,0.330,183.333,50.000,205.556,566.667,25.000,N
36,0.010,0.750,0.345,172.222,52.778,211.111,544.444,22.222,N
37,0.020,0.795,0.365,180.556,52.778,194.444,566.667,22.222,N
38,0.030,0.770,0.330,177.778,69.444,241.667,555.556,11.111,N
39,0.070,0.720,0.300,163.889,50.000,194.444,561.111,5.556,N
40,0.025,0.655,0.260,163.889,47.222,200.000,519.444,41.667,N
41,-0.055,0.575,0.255,161.111,47.222,194.444,513.889,5.556,N
42,-0.065,0.670,0.250,161.111,47.222,188.889,500.000,13.889,N
43,-0.050,0.610,0.250,169.444,50.000,205.556,508.333,8.333,N
44,-0.065,0.635,0.255,169.444,52.778,222.222,536.111,27.778,N
45,0.095,2.115,1.580,58.333,105.556,366.667,436.111,100.000,V
46,-0.140,1.580,-0.030,66.667,113.889,255.556,308.333,127.778,V
47,-0.120,0.635,0.080,169.444,80.556,238.889,930.556,622.222,N
48,-0.065,0.550,0.170,175.000,47.222,211.111,544.444,386.111,N
49,-0.130,0.545,0.140,175.000,61.111,208.333,550.000,5.556,N
50,-0.140,0.505,0.140,166.667,50.000,211.111,533.333,16.667,N
51,-0.170,0.425,0.150,155.556,44.444,188.889,519.444,13.889,N
52,-0.035,1.160,1.005,58.333,116.667,405.556,466.667,52.778,V
53,-0.255,1.225,-0.280,58.333,116.667,369.444,358.333,108.333,V
54,-0.160,0.550,0.065,163.889,52.778,227.778,711.111,352.778,N
55,-0.115,0.460,0.175,166.667,83.333,241.667,519.444,191.667,N
56,-0.170,0.615,0.165,183.333,58.333,230.556,533.333,13.889,N
57,-0.070,0.455,0.130,166.667,47.222,211.111,538.889,5.556,N
58,-0.160,0.455,0.145,180.556,52.778,205.556,541.667,2.778,N
59,-0.120,0.590,0.220,172.222,61.111,227.778,552.778,11.111,N
60,-0.105,0.740,0.225,197.222,61.111,236.111,577.778,25.000,N
61,-0.070,0.590,0.245,175.000,83.333,227.778,550.000,27.778,N
62,-0.105,0.660,0.240,169.444,52.778,202.778,522.222,27.778,N
63,-0.095,0.570,0.230,161.111,44.444,194.444,505.556,16.667,N
64,-0.110,0.565,0.255,158.333,47.222,183.333,497.222,8.333,N
65,-0.050,0.710,0.340,155.556,50.000,188.889,497.222,0.000,N
66,0.115,1.070,0.480,169.444,55.556,197.222,511.111,13.889,N
67,0.055,0.905,0.375,163.889,50.000,208.333,500.000,11.111,N
68,0.045,0.735,0.335,186.111,55.556,213.889,536.111,36.111,N
69,0.040,0.805,0.375,183.333,52.778,222.222,552.778,16.667,N
70,0.050,0.725,0.165,188.889,52.778,208.333,569.444,16.667,N
71,-0.215,0.875,0.085,194.444,58.333,216.667,558.333,11.111,N
72,-0.300,0.750,0.040,186.111,55.556,205.556,538.889,19.444,N
73,-0.325,0.725,0.025,166.667,50.000,194.444,513.889,25.000,N
74,-0.340,0.695,0.060,163.889,50.000,200.000,508.333,5.556,N
75,-0.265,0.705,1.085,175.000,47.222,369.444,513.889,5.556,N
76,0.105,2.345,-0.280,191.667,108.333,283.333,369.444,144.444,V
77,-0.225,0.790,-0.020,166.667,50.000,208.333,677.778,308.333,N
78,-0.155,0.655,0.120,177.778,50.000,200.000,538.889,138.889,N
79,-0.180,0.685,0.175,166.667,47.222,197.222,536.111,2.778,N
80,-0.070,0.615,0.205,177.778,47.222,194.444,550.000,13.889,N
81,-0.080,0.755,0.245,177.778,55.556,222.222,544.444,5.556,N
82,-0.065,0.755,0.235,180.556,50.000,208.333,558.333,13.889,N
83,-0.075,0.705,0.225,183.333,52.778,225.000,536.111,22.222,N
84,-0.085,0.635,0.240,169.444,47.222,191.667,550.000,13.889,N
85,0.115,1.500,-0.150,58.333,116.667,405.556,483.333,66.667,V
86,-0.040,0.870,0.310,163.889,44.444,191.667,544.444,61.111,N
87,-0.060,0.680,0.245,169.444,47.222,191.667,488.889,55.556,N
88,-0.125,0.510,0.195,155.556,47.222,202.778,500.000,11.111,N
89,-0.135,0.550,0.220,166.667,50.000,188.889,502.778,2.778,N
90,-0.085,0.705,0.290,175.000,75.000,225.000,522.222,19.444,N
91,-0.055,0.820,0.340,194.444,58.333,222.222,547.222,25.000,N
92,0.015,0.875,0.305,186.111,58.333,208.333,563.889,16.667,N
93,-0.010,0.775,0.290,186.111,55.556,225.000,547.222,16.667,N
94,0.290,1.670,0.095,191.667,116.667,255.556,388.889,158.333,V
95,-0.085,0.795,0.220,169.444,55.556,211.111,691.667,302.778,N
96,-0.070,0.635,0.225,161.111,47.222,191.667,511.111,180.556,N
97,-0.090,0.655,0.220,166.667,52.778,205.556,511.111,0.000,N
98,-0.110,0.780,0.235,155.556,47.222,205.556,497.222,13.889,N
99,-0.090,0.735,0.810,169.444,50.000,338.889,497.222,0.000,N
100,0.215,0.795,0.220,141.667,83.333,225.000,311.111,186.111,V
101,-0.220,0.510,0.075,172.222,58.333,211.111,727.778,416.667,N
102,-0.185,0.455,0.115,169.444,47.222,191.667,538.889,188.889,N
103,-0.170,0.740,0.215,188.889,63.889,225.000,555.556,16.667,N
104,-0.130,0.730,0.225,169.444,52.778,211.111,533.333,22.222,N
105,-0.130,0.715,0.210,183.333,55.556,225.000,536.111,2.778,N
106,-0.135,0.590,0.190,188.889,58.333,222.222,555.556,19.444,N
107,-0.140,0.545,0.200,186.111,66.667,222.222,558.333,2.778,N
108,-0.140,0.765,0.210,163.889,77.778,225.000,511.111,47.222,N
109,-0.145,0.740,0.230,163.889,61.111,205.556,500.000,11.111,N
110,-0.115,0.705,0.225,166.667,50.000,205.556,491.667,8.333,N
111,-0.105,0.540,0.220,172.222,75.000,225.000,502.778,11.111,N
112,-0.110,0.570,0.210,166.667,50.000,208.333,511.111,8.333,N
113,-0.135,0.705,0.225,177.778,50.000,191.667,544.444,33.333,N
114,-0.115,0.745,0.245,172.222,58.333,222.222,511.111,33.333,N
115,-0.090,0.735,0.275,188.889,77.778,241.667,566.667,55.556,N
116,-0.080,0.850,0.270,197.222,55.556,230.556,558.333,8.333,N
117,-0.105,0.750,0.185,188.889,58.333,200.000,575.000,16.667,N
118,-0.145,0.495,0.165,177.778,61.111,208.333,536.111,38.889,N
119,-0.150,0.385,0.155,158.333,77.778,230.556,530.556,5.556,N
120,-0.145,0.615,0.205,158.333,58.333,208.333,500.000,30.556,N
121,-0.185,0.905,0.230,41.667,50.000,200.000,500.000,0.000,N
122,-0.090,0.900,0.200,169.444,52.778,205.556,511.111,11.111,N
123,-0.140,0.835,0.190,172.222,55.556,205.556,533.333,22.222,N
124,-0.175,0.845,0.195,177.778,52.778,227.778,527.778,5.556,N
125,-0.155,0.765,0.120,191.667,55.556,219.444,561.111,33.333,N
126,-0.215,0.530,0.095,180.556,50.000,225.000,541.667,19.444,N
127,-0.240,0.520,0.100,172.222,52.778,213.889,552.778,11.111,N
128,-0.185,0.440,0.135,191.667,63.889,238.889,575.000,22.222,N
129,-0.125,0.495,0.220,169.444,72.222,227.778,541.667,33.333,N
130,-0.045,0.775,0.350,169.444,52.778,205.556,530.556,11.111,N
131,-0.010,0.925,0.335,172.222,55.556,208.333,505.556,25.000,N
132,0.025,0.675,0.290,166.667,50.000,188.889,511.111,5.556,N
133,-0.020,0.740,0.570,163.889,47.222,369.444,497.222,13.889,N
134,0.290,2.015,-0.120,191.667,116.667,363.889,380.556,116.667,V
135,-0.025,0.845,0.195,163.889,55.556,202.778,647.222,266.667,N
136,-0.045,0.745,0.250,177.778,50.000,216.667,533.333,113.889,N
137,-0.095,0.730,0.225,183.333,58.333,250.000,569.444,36.111,N
138,-0.045,0.635,0.250,194.444,52.778,211.111,600.000,30.556,N
139,-0.050,0.730,0.265,177.778,52.778,211.111,566.667,33.333,N
140,-0.035,0.775,0.300,177.778,52.778,197.222,563.889,2.778,N
141,-0.030,0.870,0.390,166.667,52.778,205.556,508.333,55.556,N
142,0.375,2.425,1.860,197.222,116.667,369.444,394.444,113.889,V
143,-0.080,1.825,-0.115,55.556,105.556,275.000,313.889,80.556,V
144,-0.075,0.745,0.140,150.000,55.556,194.444,805.556,491.667,N
145,-0.030,0.815,0.225,172.222,52.778,188.889,519.444,286.111,N
146,-0.090,0.880,0.255,166.667,55.556,222.222,516.667,2.778,N
147,-0.080,0.760,0.220,175.000,52.778,233.333,552.778,36.111,N
148,-0.165,0.710,0.175,163.889,52.778,225.000,541.667,11.111,N
149,-0.205,0.705,0.135,180.556,55.556,211.111,550.000,8.333,N
150,-0.245,0.760,0.115,177.778,52.778,211.111,530.556,19.444,N
151,-0.220,0.860,0.155,169.444,52.778,208.333,522.222,8.333,N
152,-0.215,0.880,0.135,180.556,52.778,211.111,527.778,5.556,N
153,-0.180,0.790,0.170,169.444,50.000,188.889,522.222,5.556,N
154,-0.215,0.640,0.190,163.889,50.000,197.222,497.222,25.000,N
155,-0.240,0.640,0.095,169.444,52.778,205.556,502.778,5.556,N
156,-0.245,0.740,0.130,158.333,75.000,227.778,488.889,13.889,N
157,-0.200,0.725,0.145,166.667,52.778,191.667,491.667,2.778,N
158,-0.220,0.660,0.240,169.444,61.111,225.000,511.111,19.444,N
159,0.060,2.030,-0.200,194.444,111.111,397.222,416.667,94.444,V
160,-0.120,0.665,0.140,169.444,61.111,236.111,666.667,250.000,N
161,-0.085,0.775,0.210,175.000,72.222,227.778,561.111,105.556,N
162,-0.155,0.860,0.175,183.333,66.667,252.778,561.111,0.000,N
163,-0.160,0.665,0.210,172.222,77.778,236.111,558.333,2.778,N
164,-0.190,0.710,0.175,161.111,80.556,244.444,519.444,38.889,N
165,-0.175,0.660,0.200,169.444,52.778,191.667,508.333,11.111,N
166,-0.160,0.760,0.210,158.333,63.889,208.333,488.889,19.444,N
167,-0.140,0.795,0.205,166.667,75.000,222.222,500.000,11.111,N
168,-0.090,0.785,0.225,177.778,50.000,208.333,525.000,25.000,N
169,-0.090,0.745,0.185,180.556,69.444,222.222,550.000,25.000,N
170,-0.140,0.740,0.175,177.778,80.556,252.778,541.667,8.333,N
171,-0.155,0.790,0.190,186.111,52.778,208.333,561.111,19.444,N
172,-0.155,0.780,0.175,183.333,86.111,244.444,541.667,19.444,N
173,-0.125,0.690,0.170,175.000,83.333,236.111,550.000,8.333,N
174,-0.210,0.710,0.170,197.222,88.889,244.444,552.778,2.778,N
175,-0.195,0.690,0.170,152.778,69.444,222.222,522.222,30.556,N
176,-0.160,0.705,0.205,172.222,58.333,205.556,516.667,5.556,N
177,-0.080,0.740,0.115,163.889,50.000,194.444,508.333,8.333,N
178,-0.185,0.645,0.105,169.444,69.444,222.222,519.444,11.111,N
179,-0.200,0.620,0.130,166.667,50.000,191.667,519.444,0.000,N
180,0.015,2.045,-0.255,197.222,105.556,291.667,397.222,122.222,V
181,-0.165,0.660,0.150,175.000,61.111,205.556,658.333,261.111,N
182,-0.090,0.680,0.255,188.889,72.222,225.000,544.444,113.889,N
183,-0.065,0.770,0.245,180.556,58.333,219.444,572.222,27.778,N
184,-0.115,0.685,0.225,197.222,69.444,238.889,605.556,33.333,N
185,-0.110,0.755,0.245,180.556,58.333,222.222,561.111,44.444,N
186,0.075,1.980,-0.185,197.222,102.778,272.222,422.222,138.889,V
187,-0.095,0.730,0.140,158.333,83.333,236.111,625.000,202.778,N
188,-0.120,0.625,0.225,155.556,47.222,194.444,502.778,122.222,N
189,-0.135,0.655,0.195,172.222,72.222,219.444,508.333,5.556,N
190,-0.105,0.570,0.175,158.333,69.444,216.667,505.556,2.778,N
191,-0.145,0.665,0.210,183.333,83.333,238.889,525.000,19.444,N
192,-0.130,0.795,0.235,169.444,52.778,225.000,533.333,8.333,N
193,-0.120,0.870,0.225,194.444,58.333,216.667,566.667,33.333,N
194,-0.120,0.835,0.220,177.778,50.000,197.222,547.222,19.444,N
195,-0.140,0.645,0.215,188.889,72.222,238.889,558.333,11.111,N
196,-0.130,0.665,0.200,183.333,50.000,194.444,541.667,16.667,N
197,-0.170,0.600,0.185,175.000,61.111,208.333,527.778,13.889,N
198,-0.155,1.800,-0.270,102.778,108.333,286.111,447.222,80.556,V
199,-0.220,0.680,0.205,175.000,61.111,208.333,588.889,141.667,N
200,-0.125,0.590,0.210,163.889,69.444,197.222,488.889,100.000,N
201,-0.150,0.655,0.165,177.778,80.556,219.444,513.889,25.000,N
202,-0.200,0.555,0.165,161.111,77.778,222.222,497.222,16.667,N
203,-0.105,0.890,0.200,180.556,61.111,208.333,519.444,22.222,N
204,-0.190,0.880,0.180,175.000,83.333,250.000,505.556,13.889,N
205,-0.195,0.775,0.205,188.889,72.222,225.000,552.778,47.222,N
206,-0.145,0.755,0.240,177.778,86.111,233.333,536.111,16.667,N
207,-0.140,0.710,0.230,177.778,83.333,241.667,569.444,33.333,N
208,-0.095,0.730,0.265,188.889,83.333,247.222,555.556,13.889,N
209,-0.095,0.855,0.310,169.444,80.556,225.000,530.556,25.000,N
210,-0.055,0.835,0.335,166.667,83.333,241.667,500.000,30.556,N
211,-0.035,0.830,0.270,166.667,52.778,205.556,502.778,2.778,N
212,-0.070,0.775,0.280,158.333,55.556,208.333,500.000,2.778,N
213,-0.090,0.775,0.250,180.556,69.444,225.000,513.889,13.889,N
214,-0.105,0.845,0.220,177.778,58.333,225.000,530.556,16.667,N
215,-0.130,0.845,0.255,172.222,72.222,236.111,544.444,13.889,N
216,-0.110,0.820,0.190,183.333,75.000,241.667,550.000,5.556,N
217,-0.125,0.645,0.130,177.778,86.111,238.889,558.333,8.333,N
218,-0.110,0.655,0.125,177.778,58.333,222.222,544.444,13.889,N
219,-0.195,0.700,0.125,175.000,69.444,241.667,541.667,2.778,N
220,-0.160,0.690,0.185,172.222,86.111,236.111,533.333,8.333,N
221,-0.215,0.665,0.085,161.111,61.111,208.333,505.556,27.778,N
222,-0.195,0.615,0.145,166.667,52.778,194.444,519.444,13.889,N
223,-0.170,0.575,0.130,166.667,77.778,238.889,513.889,5.556,N
224,-0.190,0.640,0.165,177.778,50.000,180.556,533.333,19.444,N
225,-0.180,0.800,0.180,186.111,50.000,200.000,513.889,19.444,N
226,-0.080,0.800,0.195,177.778,47.222,205.556,538.889,25.000,N
227,-0.095,0.740,0.205,186.111,86.111,227.778,533.333,5.556,N
228,-0.095,0.685,0.180,188.889,83.333,258.333,550.000,16.667,N
229,-0.150,0.685,0.185,183.333,86.111,244.444,569.444,19.444,N
230,-0.170,0.730,0.140,191.667,52.778,208.333,586.111,16.667,N
231,-0.175,0.705,0.125,186.111,69.444,222.222,536.111,50.000,N
232,-0.180,0.630,0.140,166.667,52.778,208.333,527.778,8.333,N
233,-0.145,0.685,0.150,163.889,83.333,227.778,497.222,30.556,N
234,-0.180,0.555,0.170,163.889,83.333,241.667,500.000,2.778,N
235,-0.145,0.615,0.145,166.667,80.556,230.556,513.889,13.889,N
236,-0.140,0.585,0.185,150.000,47.222,202.778,505.556,8.333,N
237,-0.170,0.745,0.210,177.778,83.333,241.667,527.778,22.222,N
238,-0.140,0.695,0.150,180.556,72.222,233.333,538.889,11.111,N
239,-0.150,1.635,-0.225,108.333,116.667,316.667,488.889,50.000,V
240,-0.145,0.705,0.205,180.556,83.333,258.333,641.667,152.778,N
241,-0.110,0.635,0.235,172.222,55.556,222.222,555.556,86.111,N
242,-0.110,0.755,0.240,172.222,55.556,205.556,536.111,19.444,N
243,-0.130,0.825,0.220,166.667,52.778,200.000,508.333,27.778,N
244,-0.110,0.820,0.210,172.222,75.000,225.000,508.333,0.000,N
245,-0.115,0.630,0.220,169.444,50.000,188.889,511.111,2.778,N
246,-0.115,0.620,0.210,161.111,77.778,230.556,508.333,2.778,N
247,-0.145,0.660,0.230,180.556,50.000,208.333,522.222,13.889,N
248,-0.145,0.815,0.245,166.667,52.778,197.222,516.667,5.556,N
249,-0.130,0.860,0.210,188.889,55.556,222.222,525.000,8.333,N
250,-0.170,0.660,0.140,177.778,63.889,238.889,522.222,2.778,N
251,-0.225,0.575,0.125,188.889,63.889,208.333,563.889,41.667,N
252,-0.250,0.530,0.055,180.556,66.667,225.000,536.111,27.778,N
253,-0.285,0.700,0.095,180.556,80.556,241.667,547.222,11.111,N
254,-0.245,0.745,0.110,183.333,52.778,211.111,522.222,25.000,N
255,-0.210,0.605,0.145,169.444,69.444,222.222,519.444,2.778,N
256,-0.135,0.685,0.185,169.444,69.444,208.333,500.000,19.444,N
257,-0.190,0.625,0.135,169.444,52.778,205.556,500.000,0.000,N
258,-0.230,0.715,0.130,161.111,75.000,230.556,488.889,11.111,N
259,-0.185,0.700,0.185,172.222,75.000,222.222,497.222,8.333,N
260,-0.195,0.720,0.190,188.889,58.333,222.222,533.333,36.111,N
261,-0.200,0.740,0.185,191.667,58.333,225.000,566.667,33.333,N
262,-0.160,0.780,0.175,183.333,80.556,238.889,558.333,8.333,N
263,-0.140,0.785,0.155,183.333,66.667,222.222,566.667,8.333,N
264,-0.170,0.680,0.170,172.222,55.556,205.556,541.667,25.000,N
265,-0.010,1.485,-0.280,58.333,116.667,405.556,527.778,13.889,V
266,-0.225,0.540,0.200,169.444,52.778,205.556,533.333,5.556,N
267,-0.185,0.645,0.165,158.333,47.222,197.222,505.556,27.778,N
268,-0.170,0.715,0.170,163.889,50.000,208.333,494.444,11.111,N
269,-0.135,0.605,0.195,163.889,83.333,225.000,513.889,19.444,N
270,-0.135,0.600,0.190,175.000,63.889,222.222,530.556,16.667,N
271,-0.130,0.710,0.215,175.000,77.778,225.000,544.444,13.889,N
272,-0.155,0.750,0.175,180.556,80.556,238.889,538.889,5.556,N
273,-0.140,0.635,0.195,175.000,58.333,222.222,561.111,22.222,N
274,-0.145,0.650,0.220,172.222,55.556,225.000,547.222,13.889,N
275,-0.130,0.680,0.215,183.333,55.556,225.000,561.111,13.889,N
276,-0.120,0.775,0.225,180.556,63.889,238.889,561.111,0.000,N
277,-0.095,0.750,0.195,166.667,50.000,191.667,538.889,22.222,N
278,-0.125,0.730,0.190,166.667,50.000,208.333,513.889,25.000,N
279,-0.110,0.910,0.260,155.556,52.778,191.667,505.556,8.333,N
280,-0.105,0.895,0.230,169.444,69.444,213.889,483.333,22.222,N
281,-0.105,0.840,0.220,163.889,77.778,219.444,505.556,22.222,N
282,-0.115,0.725,0.255,183.333,52.778,222.222,525.000,19.444,N
283,-0.105,0.810,0.270,169.444,52.778,208.333,538.889,13.889,N
284,-0.080,1.035,0.305,186.111,58.333,227.778,547.222,8.333,N
285,-0.110,0.945,0.225,177.778,52.778,225.000,544.444,2.778,N
286,-0.145,0.760,0.155,191.667,58.333,236.111,577.778,33.333,N
287,-0.175,0.655,0.155,175.000,50.000,208.333,555.556,22.222,N
288,-0.190,0.770,0.270,169.444,52.778,208.333,536.111,19.444,N
289,-0.070,1.010,0.315,163.889,63.889,205.556,497.222,38.889,N
290,-0.055,0.950,0.260,163.889,75.000,213.889,486.111,11.111,N
291,-0.090,0.750,0.260,172.222,55.556,205.556,502.778,16.667,N
292,-0.110,0.760,0.300,186.111,55.556,211.111,530.556,27.778,N
293,-0.040,1.075,0.335,158.333,55.556,219.444,522.222,8.333,N
294,-0.035,1.030,0.225,188.889,61.111,225.000,530.556,8.333,N
295,-0.180,0.745,0.220,172.222,55.556,225.000,533.333,2.778,N
296,-0.100,0.710,0.265,172.222,55.556,211.111,547.222,13.889,N
297,-0.070,0.825,0.245,166.667,52.778,208.333,530.556,16.667,N
298,0.015,0.810,0.415,197.222,105.556,113.889,433.333,97.222,V
299,-0.065,0.630,0.210,169.444,55.556,208.333,636.111,202.778,N
300,-0.105,0.600,0.235,172.222,47.222,194.444,525.000,111.111,N
301,-0.130,0.885,0.240,163.889,52.778,200.000,497.222,27.778,N
302,-0.115,0.835,0.225,166.667,55.556,194.444,494.444,2.778,N
303,-0.135,0.800,0.180,155.556,52.778,205.556,483.333,11.111,N
304,0.060,1.750,-0.245,58.333,116.667,394.444,444.444,38.889,V
305,-0.155,0.570,0.155,158.333,86.111,236.111,575.000,130.556,N
306,-0.105,0.710,0.255,180.556,50.000,222.222,527.778,47.222,N
307,0.255,1.345,0.025,186.111,116.667,272.222,383.333,144.444,V
308,-0.070,0.800,0.280,186.111,61.111,241.667,736.111,352.778,N
309,-0.020,0.670,0.315,172.222,52.778,208.333,544.444,191.667,N
310,-0.060,0.870,0.305,186.111,52.778,208.333,555.556,11.111,N
311,-0.055,0.905,0.290,163.889,50.000,183.333,494.444,61.111,N
312,-0.080,0.850,0.250,166.667,50.000,191.667,502.778,8.333,N
313,0.205,1.965,-0.215,197.222,108.333,383.333,386.111,116.667,V
314,-0.175,0.585,0.090,158.333,75.000,222.222,619.444,233.333,N
315,-0.145,0.900,0.220,163.889,52.778,188.889,486.111,133.333,N
316,-0.115,0.845,0.215,172.222,77.778,241.667,511.111,25.000,N
317,-0.175,0.815,0.225,169.444,52.778,208.333,527.778,16.667,N
318,-0.140,0.710,0.210,169.444,55.556,222.222,552.778,25.000,N
319,-0.140,0.675,0.190,188.889,86.111,252.778,550.000,2.778,N
320,-0.110,0.675,0.215,175.000,52.778,202.778,552.778,2.778,N
321,-0.160,0.760,0.255,169.444,52.778,222.222,525.000,27.778,N
322,-0.150,0.785,0.255,163.889,52.778,188.889,530.556,5.556,N
323,-0.105,0.780,0.240,172.222,83.333,241.667,525.000,5.556,N
324,0.105,1.555,-0.120,58.333,113.889,405.556,500.000,25.000,V
325,-0.100,0.830,0.395,163.889,80.556,244.444,525.000,25.000,N
326,-0.025,0.835,0.300,166.667,58.333,208.333,502.778,22.222,N
327,-0.075,0.850,0.335,169.444,75.000,211.111,502.778,0.000,N
328,-0.020,0.730,0.265,166.667,50.000,188.889,533.333,30.556,N
329,-0.010,0.830,0.285,175.000,58.333,222.222,555.556,22.222,N
330,-0.035,0.900,0.270,169.444,72.222,225.000,530.556,25.000,N
331,-0.075,0.815,0.250,191.667,58.333,222.222,552.778,22.222,N
332,-0.080,0.765,0.325,186.111,77.778,244.444,563.889,11.111,N
333,-0.060,0.990,0.290,186.111,55.556,208.333,580.556,16.667,N
334,-0.090,0.900,0.215,169.444,47.222,183.333,502.778,77.778,N
335,-0.160,0.875,0.400,172.222,52.778,372.222,502.778,0.000,N
336,0.215,2.020,1.600,197.222,100.000,380.556,375.000,127.778,V
337,-0.270,1.600,0.445,58.333,111.111,377.778,322.222,52.778,V
338,-0.335,0.445,0.265,94.444,80.556,238.889,319.444,2.778,V
339,-0.175,0.635,0.010,197.222,77.778,208.333,516.667,197.222,N
340,-0.120,0.550,1.945,177.778,52.778,372.222,533.333,16.667,N
341,0.185,1.945,-0.195,138.889,108.333,302.778,347.222,186.111,V
342,-0.170,0.640,0.030,191.667,58.333,202.778,769.444,422.222,N
343,-0.080,0.520,0.180,166.667,69.444,225.000,541.667,227.778,N
344,-0.040,0.705,0.245,186.111,86.111,252.778,552.778,11.111,N
345,-0.040,0.560,0.245,175.000,63.889,225.000,536.111,16.667,N
346,-0.045,0.785,0.315,166.667,55.556,205.556,536.111,0.000,N
347,-0.015,1.035,0.335,169.444,52.778,205.556,491.667,44.444,N
348,-0.020,1.070,0.305,163.889,47.222,194.444,494.444,2.778,N
349,-0.030,0.975,0.265,169.444,50.000,205.556,491.667,2.778,N
350,-0.115,0.960,0.270,163.889,63.889,191.667,508.333,16.667,N
351,-0.125,0.725,0.215,166.667,50.000,197.222,500.000,8.333,N
352,-0.090,0.905,0.230,172.222,52.778,188.889,541.667,41.667,N
353,0.250,1.090,0.480,94.444,77.778,216.667,522.222,19.444,N
354,-0.050,0.845,0.560,44.444,55.556,222.222,541.667,19.444,N
355,0.050,0.365,0.250,166.667,86.111,272.222,583.333,41.667,N
356,0.255,0.380,0.120,105.556,61.111,236.111,591.667,8.333,N
357,-0.190,0.320,0.275,175.000,83.333,250.000,538.889,52.778,N
358,0.055,0.620,0.260,161.111,58.333,197.222,511.111,27.778,N
359,-0.045,1.130,0.400,83.333,52.778,213.889,494.444,16.667,N
360,0.280,1.285,0.595,180.556,86.111,194.444,472.222,22.222,N
361,0.255,1.205,0.735,188.889,55.556,200.000,497.222,25.000,N
362,0.245,1.170,0.595,188.889,61.111,188.889,505.556,8.333,N
363,0.100,1.205,0.450,197.222,83.333,241.667,530.556,25.000,N
364,0.080,1.215,0.415,180.556,61.111,219.444,533.333,2.778,N
365,-0.010,1.075,0.365,194.444,77.778,241.667,561.111,27.778,N
366,-0.020,0.995,0.325,172.222,55.556,208.333,547.222,13.889,N
367,-0.085,0.905,0.540,66.667,50.000,194.444,563.889,16.667,N
368,0.170,0.870,0.490,127.778,86.111,130.556,527.778,36.111,N
369,-0.015,0.725,0.290,188.889,75.000,219.444,505.556,22.222,N
370,-0.190,0.950,0.255,152.778,58.333,205.556,505.556,0.000,N
371,-0.160,0.885,0.230,186.111,50.000,205.556,508.333,2.778,N
372,-0.080,0.910,0.240,152.778,66.667,227.778,497.222,11.111,N
373,-0.065,0.760,1.675,197.222,63.889,383.333,527.778,30.556,N
374,0.260,1.630,0.090,186.111,111.111,400.000,344.444,183.333,V
375,0.035,1.260,0.060,175.000,88.889,269.444,377.778,33.333,V
376,-0.065,1.065,0.175,172.222,72.222,183.333,858.333,480.556,N
377,-0.040,0.920,0.340,180.556,69.444,211.111,575.000,283.333,N
378,-0.020,1.165,0.325,183.333,86.111,252.778,536.111,38.889,N
379,0.000,1.145,0.345,169.444,86.111,241.667,550.000,13.889,N
380,-0.045,1.005,0.315,180.556,63.889,222.222,544.444,5.556,N
381,0.155,2.090,-0.200,197.222,100.000,269.444,408.333,136.111,V
382,-0.205,0.890,0.110,163.889,63.889,208.333,588.889,180.556,N
383,-0.175,0.860,0.165,161.111,50.000,191.667,488.889,100.000,N
384,-0.260,0.520,0.080,155.556,72.222,225.000,488.889,0.000,N
385,-0.265,0.630,0.135,180.556,86.111,225.000,511.111,22.222,N
386,-0.220,0.615,0.145,183.333,72.222,227.778,533.333,22.222,N
387,-0.240,0.475,0.105,177.778,66.667,208.333,544.444,11.111,N
388,-0.230,0.425,0.080,180.556,88.889,244.444,536.111,8.333,N
389,-0.255,0.360,0.095,188.889,77.778,225.000,558.333,22.222,N
390,-0.235,0.445,0.105,177.778,83.333,238.889,525.000,33.333,N
391,-0.220,0.330,0.110,161.111,77.778,236.111,533.333,8.333,N
392,-0.210,0.245,0.075,183.333,83.333,225.000,519.444,13.889,N
393,-0.215,0.175,0.065,166.667,83.333,222.222,500.000,19.444,N
394,-0.190,0.400,0.085,161.111,83.333,230.556,511.111,11.111,N
395,-0.190,0.350,0.175,119.444,91.667,236.111,491.667,19.444,N
396,-0.080,0.375,0.195,177.778,86.111,238.889,533.333,41.667,N
397,-0.150,0.535,0.195,172.222,77.778,225.000,502.778,30.556,N
398,-0.110,0.470,0.200,58.333,86.111,230.556,541.667,38.889,N
399,-0.110,0.485,0.230,175.000,75.000,222.222,525.000,16.667,N
400,-0.105,0.720,0.270,180.556,55.556,213.889,538.889,13.889,N
401,0.040,1.030,0.295,183.333,69.444,225.000,555.556,16.667,N
402,-0.050,1.080,0.215,69.444,63.889,194.444,558.333,2.778,N
403,-0.065,0.910,0.225,197.222,77.778,175.000,516.667,41.667,N
404,-0.190,0.665,0.095,169.444,66.667,194.444,522.222,5.556,N
405,-0.225,0.570,0.100,152.778,50.000,188.889,488.889,33.333,N
406,-0.245,0.770,0.145,166.667,50.000,169.444,494.444,5.556,N
407,-0.210,0.775,0.170,163.889,50.000,211.111,483.333,11.111,N
408,-0.205,0.805,0.220,163.889,50.000,194.444,513.889,30.556,N
409,-0.145,0.755,0.180,175.000,58.333,222.222,511.111,2.778,N
410,-0.200,0.840,0.180,180.556,58.333,208.333,550.000,38.889,N
411,-0.180,0.895,0.180,188.889,83.333,261.111,550.000,0.000,N
412,-0.175,0.945,0.205,177.778,77.778,236.111,558.333,8.333,N
413,-0.160,0.830,0.245,183.333,86.111,255.556,552.778,5.556,N
414,-0.125,1.095,0.300,169.444,55.556,188.889,538.889,13.889,N
415,-0.075,1.125,0.250,169.444,50.000,191.667,497.222,41.667,N
416,-0.145,1.085,0.220,175.000,77.778,238.889,505.556,8.333,N
417,-0.205,0.885,0.130,172.222,52.778,205.556,513.889,8.333,N
418,-0.270,0.560,0.070,152.778,75.000,225.000,513.889,0.000,N
419,-0.290,0.565,0.040,169.444,86.111,247.222,530.556,16.667,N
420,-0.255,0.730,0.035,166.667,52.778,194.444,530.556,0.000,N
421,-0.250,0.795,0.115,172.222,72.222,225.000,519.444,11.111,N
422,-0.305,0.715,0.085,175.000,58.333,216.667,533.333,13.889,N
423,-0.250,0.940,0.225,183.333,55.556,211.111,550.000,16.667,N
424,-0.150,0.875,0.230,163.889,61.111,205.556,525.000,25.000,N
425,-0.100,0.915,0.260,186.111,52.778,213.889,558.333,33.333,N
426,-0.065,1.030,0.305,175.000,80.556,211.111,525.000,33.333,N
427,-0.050,0.925,0.325,175.000,83.333,208.333,519.444,5.556,N
428,-0.090,0.810,0.215,158.333,61.111,211.111,494.444,25.000,N
429,-0.140,0.600,0.230,161.111,47.222,188.889,505.556,11.111,N
430,-0.120,0.885,0.325,119.444,69.444,211.111,502.778,2.778,N
431,-0.055,0.920,0.225,102.778,66.667,252.778,469.444,33.333,V
432,-0.015,0.890,0.390,180.556,86.111,233.333,572.222,102.778,N
433,0.015,0.880,0.410,191.667,83.333,241.667,569.444,2.778,N
434,0.025,0.940,0.470,138.889,80.556,241.667,561.111,8.333,N
435,0.015,0.940,0.445,180.556,50.000,202.778,569.444,8.333,N
436,0.000,0.960,0.345,166.667,50.000,208.333,536.111,33.333,N
437,-0.065,1.025,0.340,177.778,75.000,219.444,530.556,5.556,N
438,-0.040,1.010,0.310,175.000,50.000,197.222,500.000,30.556,N
439,-0.125,0.965,0.245,163.889,50.000,200.000,497.222,2.778,N
440,-0.145,0.990,0.250,172.222,52.778,197.222,488.889,8.333,N
441,0.115,1.400,-0.265,58.333,111.111,300.000,463.889,25.000,V
442,-0.160,0.915,0.280,177.778,61.111,236.111,569.444,105.556,N
443,-0.040,0.860,0.275,180.556,50.000,211.111,533.333,36.111,N
444,-0.040,0.845,0.260,188.889,55.556,202.778,544.444,11.111,N
445,-0.055,0.390,0.175,177.778,61.111,225.000,555.556,11.111,N
446,-0.115,0.620,0.170,166.667,83.333,230.556,552.778,2.778,N
447,-0.095,0.850,0.215,175.000,55.556,222.222,536.111,16.667,N
448,-0.135,0.965,0.195,141.667,58.333,208.333,552.778,16.667,N
449,-0.170,0.960,0.215,163.889,55.556,200.000,525.000,27.778,N
450,-0.115,0.890,0.195,175.000,50.000,180.556,497.222,27.778,N
451,-0.100,0.565,0.175,158.333,83.333,205.556,497.222,0.000,N
452,-0.170,0.490,0.110,180.556,83.333,208.333,488.889,8.333,N
453,-0.100,0.830,0.255,152.778,66.667,202.778,502.778,13.889,N
454,-0.065,0.965,0.255,66.667,86.111,216.667,500.000,2.778,N
455,0.000,0.955,0.375,169.444,55.556,208.333,502.778,2.778,N
456,-0.040,1.100,0.365,186.111,80.556,236.111,530.556,27.778,N
457,-0.050,1.075,0.335,147.222,52.778,211.111,544.444,13.889,N
458,-0.115,0.935,0.320,61.111,58.333,230.556,561.111,16.667,N
459,0.065,0.745,0.280,172.222,83.333,225.000,550.000,11.111,N
460,-0.080,0.590,0.185,161.111,75.000,216.667,536.111,13.889,N
461,-0.040,0.670,0.220,163.889,77.778,208.333,505.556,30.556,N
462,-0.020,1.015,0.325,72.222,69.444,222.222,488.889,16.667,N
463,-0.005,0.955,0.325,147.222,77.778,219.444,486.111,2.778,N
464,-0.080,1.000,0.340,166.667,63.889,238.889,505.556,19.444,N
465,-0.115,0.965,0.275,191.667,47.222,169.444,525.000,19.444,N
466,-0.140,1.150,0.200,175.000,61.111,200.000,527.778,2.778,N
467,-0.185,0.795,0.230,169.444,83.333,244.444,544.444,16.667,N
468,-0.195,0.740,0.235,191.667,80.556,244.444,530.556,13.889,N
469,-0.135,0.600,0.170,169.444,61.111,202.778,552.778,22.222,N
470,-0.130,0.790,0.340,138.889,86.111,255.556,555.556,2.778,N
471,-0.080,0.965,0.280,172.222,83.333,233.333,522.222,33.333,N
472,-0.125,1.135,0.255,194.444,75.000,216.667,505.556,16.667,N
473,-0.085,1.010,0.200,172.222,72.222,211.111,494.444,11.111,N
474,-0.125,0.945,0.260,197.222,52.778,200.000,508.333,13.889,N
475,-0.135,0.950,0.245,169.444,47.222,183.333,488.889,19.444,N
476,-0.120,0.905,0.220,180.556,50.000,202.778,508.333,19.444,N
477,-0.090,0.795,0.185,33.333,50.000,213.889,508.333,0.000,N
478,-0.025,0.795,0.240,63.889,86.111,244.444,527.778,19.444,N
479,0.005,0.820,0.265,188.889,58.333,230.556,561.111,33.333,N
480,-0.075,0.895,0.265,191.667,69.444,244.444,591.667,30.556,N
481,-0.025,1.070,0.270,191.667,77.778,233.333,561.111,30.556,N
482,-0.150,1.010,0.255,150.000,61.111,208.333,538.889,22.222,N
483,-0.080,1.030,0.260,100.000,52.778,205.556,519.444,19.444,N
484,-0.165,0.975,0.260,136.111,75.000,219.444,505.556,13.889,N
485,-0.060,0.830,0.155,175.000,44.444,205.556,505.556,0.000,N
486,-0.100,1.045,0.320,119.444,83.333,230.556,511.111,5.556,N
487,-0.065,0.995,0.290,158.333,58.333,205.556,483.333,27.778,N
488,-0.030,1.035,0.290,175.000,63.889,208.333,513.889,30.556,N
489,-0.095,0.965,0.260,186.111,75.000,202.778,530.556,16.667,N
490,-0.080,0.865,0.280,191.667,83.333,247.222,569.444,38.889,N
491,0.180,1.510,-0.210,58.333,113.889,325.000,500.000,69.444,V
492,-0.085,0.875,0.275,141.667,69.444,227.778,608.333,108.333,N
493,-0.060,0.870,0.275,186.111,47.222,183.333,538.889,69.444,N
494,-0.080,0.865,0.270,52.778,69.444,219.444,530.556,8.333,N
495,-0.080,0.900,0.320,169.444,58.333,208.333,530.556,0.000,N
496,-0.015,0.785,0.225,172.222,83.333,230.556,533.333,2.778,N
497,-0.055,0.790,0.285,52.778,61.111,202.778,500.000,33.333,N
498,-0.050,0.980,0.370,172.222,61.111,191.667,522.222,22.222,N
499,0.025,1.115,0.385,163.889,50.000,188.889,494.444,27.778,N
500,0.050,1.075,0.375,177.778,52.778,205.556,530.556,36.111,N
501,0.045,1.040,0.350,175.000,83.333,222.222,525.000,5.556,N
502,0.025,0.970,0.320,191.667,75.000,230.556,566.667,41.667,N
503,0.005,0.825,0.310,180.556,69.444,230.556,552.778,13.889,N
504,-0.110,0.960,0.275,122.222,55.556,233.333,575.000,22.222,N
505,-0.080,1.005,0.310,191.667,88.889,222.222,561.111,13.889,N
506,-0.060,1.000,0.270,163.889,83.333,233.333,541.667,19.444,N
507,-0.075,0.885,0.245,180.556,86.111,227.778,511.111,30.556,N
508,-0.130,0.610,0.285,158.333,66.667,197.222,513.889,2.778,N
509,-0.120,0.825,0.225,166.667,50.000,191.667,505.556,8.333,N
510,-0.120,0.885,0.260,180.556,66.667,225.000,516.667,11.111,N
511,-0.075,1.065,0.220,186.111,69.444,233.333,541.667,25.000,N
512,-0.110,1.030,0.250,180.556,72.222,244.444,558.333,16.667,N
513,-0.030,0.830,0.200,188.889,72.222,255.556,555.556,2.778,N
514,-0.100,0.675,0.375,180.556,80.556,247.222,566.667,11.111,N
515,-0.050,0.970,0.280,94.444,58.333,222.222,552.778,13.889,N
516,-0.095,1.080,0.245,183.333,50.000,205.556,525.000,27.778,N
517,-0.150,0.955,0.230,194.444,83.333,230.556,530.556,5.556,N
518,-0.175,0.815,0.185,163.889,47.222,202.778,508.333,22.222,N
519,-0.160,0.790,0.160,163.889,47.222,197.222,522.222,13.889,N
520,-0.145,0.615,0.140,169.444,55.556,197.222,519.444,2.778,N
521,-0.210,0.685,0.170,183.333,66.667,197.222,550.000,30.556,N
522,-0.180,0.845,0.145,169.444,55.556,197.222,502.778,47.222,N
523,-0.180,0.810,0.180,188.889,80.556,230.556,558.333,55.556,N
524,-0.180,0.640,0.200,180.556,61.111,219.444,530.556,27.778,N
525,-0.145,0.845,0.225,183.333,55.556,213.889,558.333,27.778,N
526,-0.145,0.790,0.240,194.444,55.556,233.333,566.667,8.333,N
527,-0.205,0.550,0.175,183.333,83.333,241.667,583.333,16.667,N
528,-0.160,0.425,0.155,163.889,86.111,241.667,533.333,50.000,N
529,-0.110,0.330,0.230,161.111,80.556,241.667,527.778,5.556,N
530,0.145,-0.835,0.070,30.556,5.556,136.111,538.889,11.111,N
531,-0.215,0.370,0.220,158.333,44.444,194.444,472.222,66.667,N
532,-0.090,0.500,0.175,177.778,61.111,205.556,522.222,50.000,N
533,-0.155,0.500,0.110,161.111,47.222,175.000,519.444,2.778,N
534,-0.185,0.550,0.170,186.111,55.556,227.778,538.889,19.444,N
535,-0.175,0.665,0.220,191.667,50.000,219.444,555.556,16.667,N
536,-0.150,0.785,0.240,197.222,52.778,208.333,575.000,19.444,N
537,-0.170,1.075,0.330,166.667,83.333,255.556,547.222,27.778,N
538,0.330,0.715,0.195,194.444,77.778,225.000,391.667,155.556,A
539,-0.125,0.695,0.150,152.778,50.000,188.889,661.111,269.444,N
540,-0.060,0.530,0.215,172.222,52.778,202.778,536.111,125.000,N
541,-0.060,0.655,0.195,175.000,50.000,194.444,522.222,13.889,N
542,-0.135,0.620,0.095,166.667,52.778,211.111,541.667,19.444,N
543,-0.225,0.585,0.050,172.222,50.000,202.778,519.444,22.222,N
544,-0.230,0.555,0.045,180.556,50.000,205.556,536.111,16.667,N
545,-0.225,0.555,0.090,169.444,52.778,216.667,530.556,5.556,N
546,-0.160,0.680,0.170,183.333,55.556,208.333,547.222,16.667,N
547,-0.155,0.695,0.210,188.889,83.333,252.778,552.778,5.556,N
548,-0.095,0.735,0.270,177.778,61.111,205.556,572.222,19.444,N
549,-0.070,0.735,0.140,180.556,55.556,230.556,538.889,33.333,N
550,-0.220,0.645,0.190,175.000,50.000,186.111,555.556,16.667,N
551,-0.130,0.630,0.085,177.778,47.222,180.556,527.778,27.778,N
552,-0.200,0.575,0.040,177.778,47.222,175.000,513.889,13.889,N
553,-0.230,0.855,0.315,63.889,80.556,236.111,483.333,30.556,N
554,-0.065,1.030,0.215,169.444,50.000,194.444,483.333,0.000,N
555,-0.195,0.805,0.100,155.556,50.000,172.222,488.889,5.556,N
556,-0.215,1.025,0.215,183.333,52.778,208.333,516.667,27.778,N
557,-0.130,0.980,0.245,188.889,58.333,238.889,558.333,41.667,N
558,-0.160,0.900,0.175,186.111,58.333,241.667,588.889,30.556,N
559,-0.215,0.880,0.185,183.333,58.333,233.333,583.333,5.556,N
560,-0.195,0.810,0.165,194.444,52.778,197.222,594.444,11.111,N
561,-0.190,0.730,0.205,172.222,58.333,208.333,527.778,66.667,N
562,-0.165,0.770,0.150,169.444,58.333,208.333,522.222,5.556,N
563,-0.160,0.750,0.210,172.222,52.778,202.778,513.889,8.333,N
564,0.020,0.670,0.230,155.556,50.000,188.889,494.444,19.444,N
565,-0.115,0.770,0.245,161.111,63.889,222.222,508.333,13.889,N
566,0.010,0.680,0.280,169.444,52.778,205.556,525.000,16.667,N
567,-0.045,0.705,0.255,166.667,55.556,202.778,563.889,38.889,N
568,-0.105,0.760,0.230,177.778,52.778,188.889,547.222,16.667,N
569,-0.090,0.730,0.180,183.333,63.889,219.444,566.667,19.444,N
570,-0.110,0.550,0.195,166.667,83.333,244.444,541.667,25.000,N
571,-0.065,0.665,0.240,194.444,50.000,227.778,555.556,13.889,N
572,-0.120,0.695,0.225,166.667,52.778,211.111,566.667,11.111,N
573,-0.130,0.525,0.170,166.667,50.000,197.222,552.778,13.889,N
574,-0.185,0.465,0.115,144.444,80.556,208.333,497.222,55.556,N
575,-0.035,0.525,0.215,119.444,55.556,208.333,505.556,8.333,N
576,0.160,2.030,1.560,197.222,102.778,405.556,380.556,125.000,V
577,-0.115,1.965,-0.245,58.333,102.778,386.111,361.111,19.444,V
578,-0.090,0.705,0.210,161.111,86.111,244.444,752.778,391.667,N
579,-0.005,0.870,0.340,183.333,50.000,191.667,552.778,200.000,N
580,-0.080,0.935,0.255,177.778,61.111,227.778,527.778,25.000,N
581,-0.135,0.660,0.165,180.556,52.778,191.667,555.556,27.778,N
582,-0.180,0.655,0.165,194.444,83.333,263.889,558.333,2.778,N
583,-0.180,0.640,0.220,166.667,69.444,222.222,558.333,0.000,N
584,-0.145,0.715,0.175,175.000,63.889,213.889,522.222,36.111,N
585,-0.165,0.635,0.145,161.111,63.889,200.000,505.556,16.667,N
586,-0.180,0.805,0.245,175.000,47.222,202.778,491.667,13.889,N
587,-0.110,0.960,0.330,188.889,83.333,219.444,500.000,8.333,N
588,-0.085,1.065,0.340,83.333,50.000,216.667,494.444,5.556,N
589,-0.020,1.195,0.370,194.444,52.778,194.444,536.111,41.667,N
590,-0.085,1.005,0.315,75.000,83.333,230.556,525.000,11.111,N
591,-0.115,1.045,0.270,183.333,86.111,244.444,555.556,30.556,N
592,-0.020,0.790,0.350,188.889,63.889,225.000,547.222,8.333,N
593,-0.075,0.795,0.220,175.000,86.111,238.889,555.556,8.333,N
594,-0.110,0.795,0.260,186.111,58.333,230.556,569.444,13.889,N
595,-0.140,0.875,0.195,169.444,77.778,244.444,527.778,41.667,N
596,-0.220,1.095,0.240,197.222,61.111,213.889,519.444,8.333,N
597,-0.150,0.945,0.175,169.444,61.111,211.111,494.444,25.000,N
598,-0.240,0.855,0.175,166.667,52.778,186.111,511.111,16.667,N
599,-0.210,0.705,0.155,166.667,69.444,216.667,494.444,16.667,N
600,-0.275,0.745,0.095,183.333,52.778,152.778,538.889,44.444,N
601,-0.215,0.715,0.180,152.778,52.778,208.333,508.333,30.556,N
602,-0.255,0.880,0.185,180.556,86.111,241.667,533.333,25.000,N
603,-0.175,0.755,0.200,188.889,63.889,216.667,561.111,27.778,N
604,-0.165,0.725,0.210,155.556,88.889,247.222,583.333,22.222,N
605,-0.265,0.670,0.150,188.889,55.556,219.444,561.111,22.222,N
606,-0.220,0.665,0.170,180.556,52.778,227.778,575.000,13.889,N
607,-0.180,0.605,0.145,158.333,50.000,175.000,513.889,61.111,N
608,-0.200,0.870,0.335,91.667,52.778,205.556,511.111,2.778,N
609,-0.150,0.880,0.380,177.778,47.222,186.111,491.667,19.444,N
610,0.005,0.915,0.270,155.556,61.111,202.778,494.444,2.778,N
611,-0.105,0.935,0.245,177.778,80.556,238.889,502.778,8.333,N
612,-0.170,0.900,0.175,166.667,72.222,241.667,522.222,19.444,N
613,-0.220,0.880,0.185,175.000,61.111,241.667,558.333,36.111,N
614,-0.180,0.730,0.150,172.222,72.222,230.556,552.778,5.556,N
615,0.115,1.665,-0.305,58.333,116.667,405.556,441.667,111.111,V
616,-0.280,0.740,0.055,186.111,55.556,222.222,669.444,227.778,N
617,-0.285,0.875,0.165,175.000,50.000,197.222,519.444,150.000,N
618,-0.215,0.890,0.165,166.667,69.444,233.333,525.000,5.556,N
619,-0.160,0.905,0.260,169.444,83.333,233.333,519.444,5.556,N
620,-0.160,0.900,0.265,158.333,50.000,205.556,500.000,19.444,N
621,-0.110,0.810,0.200,172.222,80.556,227.778,502.778,2.778,N
622,-0.245,0.685,0.070,163.889,47.222,191.667,505.556,2.778,N
623,-0.275,0.755,0.120,172.222,52.778,205.556,491.667,13.889,N
624,-0.215,1.800,-0.300,88.889,111.111,300.000,416.667,75.000,V
625,-0.225,0.840,0.160,188.889,63.889,222.222,625.000,208.333,N
626,-0.155,0.735,0.195,175.000,69.444,225.000,519.444,105.556,N
627,-0.270,0.735,0.150,186.111,83.333,227.778,566.667,47.222,N
628,-0.220,0.780,0.200,183.333,83.333,238.889,550.000,16.667,N
629,-0.235,0.635,0.160,175.000,83.333,230.556,561.111,11.111,N
630,-0.225,0.715,0.175,175.000,52.778,202.778,513.889,47.222,N
631,-0.135,0.775,0.230,163.889,77.778,222.222,502.778,11.111,N
632,-0.165,0.710,0.200,155.556,80.556,222.222,486.111,16.667,N
633,-0.170,0.665,0.205,163.889,80.556,236.111,497.222,11.111,N
634,-0.195,0.705,0.170,177.778,55.556,205.556,527.778,30.556,N
635,-0.190,0.840,0.175,180.556,61.111,222.222,538.889,11.111,N
636,-0.205,0.785,0.135,186.111,69.444,222.222,525.000,13.889,N
637,-0.230,0.700,0.060,175.000,66.667,216.667,566.667,41.667,N
638,-0.285,0.485,0.055,177.778,55.556,227.778,527.778,38.889,N
639,-0.260,0.515,0.070,163.889,61.111,186.111,563.889,36.111,N
640,-0.225,0.640,0.135,144.444,80.556,244.444,550.000,13.889,N
641,-0.230,0.750,0.135,169.444,72.222,225.000,525.000,25.000,N
642,-0.255,0.790,0.135,177.778,61.111,205.556,508.333,16.667,N
643,-0.270,0.725,0.105,166.667,72.222,211.111,508.333,0.000,N
644,-0.230,0.570,0.090,175.000,61.111,211.111,519.444,11.111,N
645,-0.230,0.605,0.110,169.444,69.444,219.444,516.667,2.778,N
646,-0.275,0.660,0.215,155.556,72.222,205.556,533.333,16.667,N
647,-0.225,0.750,0.205,172.222,69.444,227.778,527.778,5.556,N
648,-0.185,0.860,0.210,180.556,86.111,244.444,530.556,2.778,N
649,-0.085,0.735,0.195,186.111,58.333,233.333,566.667,36.111,N
650,-0.255,0.660,0.250,72.222,52.778,241.667,602.778,36.111,N
651,-0.135,0.740,0.200,44.444,61.111,227.778,575.000,27.778,N
652,-0.160,0.750,0.200,166.667,52.778,211.111,552.778,22.222,N
653,-0.170,0.760,0.195,183.333,69.444,225.000,502.778,50.000,N
654,-0.180,0.755,0.210,180.556,50.000,202.778,505.556,2.778,N
655,-0.230,0.655,0.140,152.778,66.667,225.000,494.444,11.111,N
656,-0.175,0.625,0.135,175.000,80.556,233.333,519.444,25.000,N
657,-0.135,0.675,0.105,172.222,55.556,208.333,505.556,13.889,N
658,-0.255,0.750,0.155,175.000,58.333,213.889,538.889,33.333,N
659,-0.245,0.825,0.170,188.889,86.111,261.111,552.778,13.889,N
660,-0.255,0.710,0.165,197.222,88.889,247.222,563.889,11.111,N
661,-0.190,0.710,0.130,172.222,58.333,222.222,558.333,5.556,N
662,-0.165,0.660,0.195,191.667,52.778,205.556,566.667,8.333,N
663,-0.170,0.790,0.175,169.444,66.667,227.778,525.000,41.667,N
664,-0.165,0.655,0.200,175.000,80.556,222.222,511.111,13.889,N
665,-0.165,0.730,0.190,169.444,83.333,225.000,522.222,11.111,N
666,-0.145,0.990,0.265,175.000,50.000,197.222,511.111,11.111,N
667,-0.110,0.905,0.210,175.000,80.556,247.222,494.444,16.667,N
668,-0.155,0.840,0.130,175.000,55.556,205.556,536.111,41.667,N
669,-0.235,0.605,0.115,180.556,83.333,241.667,505.556,30.556,N
670,-0.225,0.670,0.150,166.667,61.111,222.222,550.000,44.444,N
671,-0.195,0.710,0.130,194.444,55.556,213.889,569.444,19.444,N
672,-0.200,0.770,0.150,175.000,50.000,197.222,544.444,25.000,N
673,-0.195,0.920,0.160,186.111,52.778,208.333,558.333,13.889,N
674,-0.195,0.850,0.125,188.889,52.778,208.333,550.000,8.333,N
675,-0.205,0.775,0.090,180.556,50.000,200.000,544.444,5.556,N
676,-0.250,0.625,0.060,169.444,52.778,202.778,508.333,36.111,N
677,-0.250,0.540,0.075,166.667,69.444,225.000,513.889,5.556,N
678,-0.235,0.495,0.075,161.111,58.333,191.667,505.556,8.333,N
679,-0.215,0.715,0.165,175.000,52.778,205.556,513.889,8.333,N
680,-0.180,0.875,0.200,186.111,55.556,222.222,530.556,16.667,N
681,-0.160,0.920,0.210,197.222,55.556,230.556,577.778,47.222,N
682,-0.170,0.835,0.195,183.333,52.778,222.222,572.222,5.556,N
683,-0.185,0.725,0.155,186.111,55.556,227.778,583.333,11.111,N
684,-0.195,0.620,0.135,172.222,50.000,197.222,561.111,22.222,N
685,-0.200,0.675,0.155,180.556,52.778,211.111,566.667,5.556,N
686,-0.180,0.770,0.145,175.000,55.556,208.333,525.000,41.667,N
687,-0.225,0.770,0.460,163.889,47.222,369.444,508.333,16.667,N
688,0.105,1.910,-0.310,197.222,108.333,388.889,375.000,133.333,V
689,-0.225,0.595,0.040,166.667,83.333,244.444,641.667,266.667,N
690,-0.160,0.490,0.110,166.667,86.111,258.333,533.333,108.333,N
691,-0.175,0.570,0.115,169.444,86.111,236.111,538.889,5.556,N
692,-0.185,0.685,0.135,175.000,55.556,200.000,541.667,2.778,N
693,-0.175,0.775,0.195,180.556,86.111,244.444,550.000,8.333,N
694,-0.145,0.690,0.205,180.556,61.111,222.222,533.333,16.667,N
695,-0.190,0.660,0.215,188.889,77.778,238.889,563.889,30.556,N
696,-0.155,0.725,0.230,191.667,61.111,222.222,563.889,0.000,N
697,-0.140,0.720,0.245,166.667,47.222,191.667,541.667,22.222,N
698,-0.160,0.710,0.265,172.222,50.000,200.000,508.333,33.333,N
699,-0.155,0.720,0.230,161.111,77.778,225.000,502.778,5.556,N
700,-0.115,0.895,0.245,161.111,80.556,225.000,483.333,19.444,N
701,-0.110,0.805,0.220,125.000,66.667,205.556,491.667,8.333,N
702,-0.120,0.730,0.240,180.556,66.667,222.222,527.778,36.111,N
703,-0.110,0.875,0.245,169.444,50.000,202.778,525.000,2.778,N
704,-0.155,0.965,0.240,191.667,52.778,211.111,533.333,8.333,N
705,-0.165,0.920,0.185,180.556,58.333,213.889,541.667,8.333,N
706,-0.140,0.755,0.225,191.667,55.556,222.222,577.778,36.111,N
707,-0.130,0.680,0.200,172.222,75.000,225.000,563.889,13.889,N
708,-0.120,0.695,0.190,188.889,50.000,208.333,563.889,0.000,N
709,-0.135,0.725,0.190,169.444,50.000,186.111,516.667,47.222,N
710,-0.155,0.905,0.265,186.111,80.556,230.556,500.000,16.667,N
711,-0.180,0.810,0.130,161.111,80.556,230.556,505.556,5.556,N
712,-0.190,0.690,0.135,188.889,52.778,194.444,533.333,27.778,N
713,-0.160,0.660,0.115,177.778,77.778,244.444,533.333,0.000,N
714,-0.230,0.770,0.145,183.333,52.778,222.222,541.667,8.333,N
715,-0.210,0.810,0.165,186.111,58.333,222.222,536.111,5.556,N
716,-0.145,0.700,0.200,188.889,58.333,211.111,550.000,13.889,N
717,-0.145,0.615,0.175,194.444,52.778,219.444,536.111,13.889,N
718,-0.170,0.635,0.135,191.667,83.333,230.556,444.444,91.667,A
719,-0.225,0.635,0.110,180.556,58.333,219.444,644.444,200.000,N
720,-0.185,0.745,0.195,177.778,52.778,211.111,536.111,108.333,N
721,0.140,1.030,-0.325,58.333,111.111,288.889,486.111,50.000,V
722,-0.245,0.710,0.305,130.556,63.889,211.111,538.889,52.778,N
723,-0.220,0.820,0.180,177.778,63.889,222.222,488.889,50.000,N
724,-0.195,0.885,0.135,180.556,55.556,191.667,519.444,30.556,N
725,-0.225,0.715,0.135,166.667,75.000,227.778,500.000,19.444,N
726,-0.235,0.635,0.150,175.000,75.000,222.222,536.111,36.111,N
727,-0.255,0.625,0.110,191.667,63.889,241.667,572.222,36.111,N
728,-0.215,0.770,0.115,161.111,83.333,238.889,588.889,16.667,N
729,-0.115,0.765,0.215,169.444,72.222,225.000,552.778,36.111,N
730,-0.250,0.845,0.160,163.889,55.556,202.778,563.889,11.111,N
731,-0.250,0.710,0.195,180.556,50.000,194.444,508.333,55.556,N
732,-0.185,0.745,0.180,158.333,66.667,202.778,511.111,2.778,N
733,-0.160,0.700,0.180,169.444,80.556,241.667,513.889,2.778,N
734,-0.140,0.665,0.210,61.111,77.778,208.333,511.111,2.778,N
735,-0.180,0.815,0.270,188.889,77.778,216.667,516.667,5.556,N
736,-0.180,0.790,0.235,94.444,50.000,188.889,519.444,2.778,N
737,-0.150,0.890,0.285,44.444,55.556,205.556,555.556,36.111,N
738,-0.125,0.870,0.270,169.444,72.222,227.778,550.000,5.556,N
739,-0.115,0.780,0.210,188.889,55.556,227.778,566.667,16.667,N
740,-0.145,0.730,0.195,188.889,83.333,222.222,563.889,2.778,N
741,-0.160,0.770,0.215,183.333,63.889,222.222,547.222,16.667,N
742,-0.140,0.805,0.150,177.778,55.556,213.889,538.889,8.333,N
743,-0.210,0.840,0.200,172.222,52.778,205.556,533.333,5.556,N
744,-0.180,0.705,0.215,155.556,75.000,205.556,502.778,30.556,N
745,-0.140,0.695,0.195,163.889,75.000,225.000,513.889,11.111,N
746,-0.090,0.685,0.350,158.333,83.333,211.111,505.556,8.333,N
747,-0.070,0.745,0.315,183.333,72.222,225.000,522.222,16.667,N
748,-0.130,0.840,0.285,77.778,66.667,236.111,527.778,5.556,N
749,-0.030,0.860,0.240,180.556,66.667,213.889,569.444,41.667,N
750,-0.110,0.810,0.310,191.667,86.111,250.000,541.667,27.778,N
751,-0.145,0.745,0.185,194.444,55.556,202.778,588.889,47.222,N
752,-0.150,0.750,0.200,188.889,86.111,252.778,577.778,11.111,N
753,-0.135,0.785,0.235,186.111,75.000,222.222,558.333,19.444,N
754,-0.075,0.715,0.295,175.000,63.889,216.667,508.333,50.000,N
755,-0.090,0.730,0.250,163.889,47.222,175.000,505.556,2.778,N
756,-0.145,0.635,0.245,119.444,55.556,200.000,497.222,8.333,N
757,-0.105,0.685,0.185,169.444,72.222,238.889,516.667,19.444,N
758,-0.135,0.735,0.195,80.556,55.556,222.222,544.444,27.778,N
759,-0.165,0.790,0.200,175.000,69.444,213.889,558.333,13.889,N
760,-0.215,0.845,0.180,183.333,50.000,227.778,552.778,5.556,N
761,-0.200,0.790,0.155,180.556,72.222,238.889,577.778,25.000,N
762,-0.090,0.755,0.150,177.778,66.667,230.556,552.778,25.000,N
763,0.025,2.155,-0.235,197.222,116.667,308.333,430.556,122.222,V
764,-0.215,0.645,0.135,183.333,52.778,219.444,688.889,258.333,N
765,-0.165,0.715,0.230,163.889,47.222,186.111,508.333,180.556,N
766,-0.180,0.780,0.205,102.778,61.111,197.222,516.667,8.333,N
767,-0.105,0.790,0.280,172.222,77.778,211.111,500.000,16.667,N
768,-0.140,0.705,0.245,172.222,52.778,205.556,530.556,30.556,N
769,0.150,2.095,-0.125,197.222,108.333,294.444,388.889,141.667,V
770,-0.075,0.715,0.265,136.111,69.444,225.000,675.000,286.111,N
771,-0.120,1.060,0.335,169.444,52.778,225.000,533.333,141.667,N
772,-0.065,1.050,0.340,188.889,52.778,225.000,547.222,13.889,N
773,-0.120,0.890,0.280,197.222,55.556,241.667,566.667,19.444,N
774,-0.150,0.960,0.220,197.222,83.333,236.111,616.667,50.000,N
775,-0.150,0.970,0.270,180.556,52.778,211.111,550.000,66.667,N
776,-0.155,0.965,0.215,166.667,50.000,200.000,533.333,16.667,N
777,-0.170,1.015,0.205,163.889,47.222,197.222,475.000,58.333,N
778,-0.205,0.965,0.200,161.111,50.000,191.667,488.889,13.889,N
779,-0.210,0.995,0.160,166.667,55.556,219.444,500.000,11.111,N
780,-0.225,0.865,0.175,161.111,50.000,202.778,522.222,22.222,N
781,-0.190,0.730,0.185,186.111,52.778,222.222,533.333,11.111,N
782,-0.165,0.740,0.190,180.556,72.222,241.667,580.556,47.222,N
783,-0.145,0.925,0.240,197.222,69.444,286.111,594.444,13.889,N
784,-0.160,0.970,0.250,175.000,55.556,208.333,605.556,11.111,N
785,-0.120,0.825,0.250,191.667,75.000,230.556,569.444,36.111,N
786,-0.120,1.005,0.300,169.444,75.000,227.778,552.778,16.667,N
787,-0.090,1.025,0.375,172.222,50.000,194.444,502.778,50.000,N
788,-0.030,1.090,0.345,175.000,55.556,202.778,513.889,11.111,N
789,-0.040,0.955,0.410,172.222,52.778,197.222,527.778,13.889,N
790,-0.070,0.845,0.295,183.333,61.111,211.111,533.333,5.556,N
791,-0.050,0.820,0.350,169.444,52.778,205.556,550.000,16.667,N
792,-0.050,1.120,0.320,169.444,52.778,208.333,527.778,22.222,N
793,-0.060,1.085,0.285,191.667,58.333,219.444,544.444,16.667,N
794,-0.100,1.000,0.245,183.333,52.778,227.778,552.778,8.333,N
795,-0.130,0.745,0.195,172.222,47.222,202.778,575.000,22.222,N
796,-0.190,0.680,0.195,180.556,55.556,222.222,563.889,11.111,N
797,-0.135,0.705,0.180,161.111,77.778,225.000,575.000,11.111,N
798,-0.195,0.905,0.210,197.222,50.000,211.111,538.889,36.111,N
799,-0.175,0.815,0.235,163.889,75.000,230.556,505.556,33.333,N
800,-0.130,0.915,0.240,166.667,50.000,186.111,497.222,8.333,N
801,-0.130,0.815,0.195,169.444,55.556,227.778,500.000,2.778,N
802,-0.185,0.895,0.205,169.444,72.222,238.889,519.444,19.444,N
803,-0.070,0.920,0.295,169.444,52.778,227.778,547.222,27.778,N
804,0.295,1.610,1.160,183.333,116.667,405.556,383.333,163.889,V
805,0.025,1.855,-0.180,186.111,116.667,302.778,366.667,16.667,V
806,-0.325,0.805,0.010,83.333,80.556,272.222,533.333,166.667,N
807,-0.135,0.635,0.110,197.222,69.444,222.222,463.889,69.444,N
808,-0.130,0.920,0.180,180.556,63.889,222.222,563.889,100.000,N
809,-0.145,0.740,0.210,191.667,80.556,205.556,558.333,5.556,N
810,-0.070,0.960,0.245,175.000,55.556,194.444,513.889,44.444,N
811,-0.120,0.910,0.275,166.667,44.444,188.889,511.111,2.778,N
812,-0.130,0.805,0.105,116.667,94.444,275.000,452.778,58.333,V
813,-0.080,0.790,0.285,158.333,69.444,200.000,561.111,108.333,N
814,-0.100,0.760,0.225,186.111,86.111,238.889,541.667,19.444,N
815,0.025,1.585,-0.230,58.333,116.667,269.444,450.000,91.667,V
816,-0.155,0.865,0.245,191.667,69.444,238.889,644.444,194.444,N
817,-0.150,0.810,0.270,166.667,69.444,233.333,555.556,88.889,N
818,-0.140,0.740,0.255,138.889,58.333,222.222,552.778,2.778,N
819,-0.145,0.790,0.295,69.444,52.778,238.889,577.778,25.000,N
820,-0.100,0.875,0.255,197.222,58.333,216.667,577.778,0.000,N
821,-0.135,0.915,0.290,183.333,83.333,230.556,536.111,41.667,N
822,-0.120,0.725,0.270,191.667,72.222,233.333,511.111,25.000,N
823,-0.130,0.595,0.325,180.556,61.111,208.333,502.778,8.333,N
824,-0.100,0.730,0.260,172.222,50.000,200.000,508.333,5.556,N
825,-0.060,0.850,0.300,163.889,61.111,227.778,508.333,0.000,N
826,-0.060,1.000,0.345,180.556,50.000,183.333,533.333,25.000,N
827,-0.020,0.975,0.345,169.444,86.111,258.333,519.444,13.889,N
828,0.005,0.985,0.440,186.111,52.778,202.778,569.444,50.000,N
829,0.115,2.325,-0.055,58.333,113.889,308.333,430.556,138.889,V
830,0.000,0.955,0.290,194.444,58.333,219.444,744.444,313.889,N
831,0.020,0.955,0.330,188.889,55.556,205.556,541.667,202.778,N
832,-0.030,0.885,0.320,163.889,50.000,205.556,527.778,13.889,N
833,-0.040,0.740,0.300,169.444,69.444,225.000,505.556,22.222,N
834,-0.070,0.710,0.405,169.444,52.778,202.778,516.667,11.111,N
835,-0.035,0.765,0.345,169.444,58.333,225.000,516.667,0.000,N
836,-0.055,0.940,0.350,169.444,52.778,202.778,533.333,16.667,N
837,-0.030,0.900,0.270,177.778,77.778,225.000,522.222,11.111,N
838,-0.095,0.835,0.265,177.778,63.889,197.222,547.222,25.000,N
839,0.000,0.730,0.280,186.111,66.667,241.667,541.667,5.556,N
840,-0.045,0.770,0.220,188.889,72.222,225.000,555.556,13.889,N
841,-0.065,0.675,0.245,69.444,83.333,247.222,572.222,16.667,N
842,-0.100,0.815,0.285,197.222,72.222,222.222,533.333,38.889,N
843,-0.125,0.880,0.255,177.778,50.000,211.111,538.889,5.556,N
844,-0.075,0.815,0.285,161.111,80.556,225.000,511.111,27.778,N
845,0.075,0.665,0.300,163.889,69.444,211.111,519.444,8.333,N
846,-0.120,0.825,0.245,150.000,80.556,208.333,497.222,22.222,N
847,-0.090,0.730,0.250,177.778,61.111,208.333,516.667,19.444,N
848,0.005,1.505,-0.245,66.667,116.667,397.222,458.333,58.333,V
849,-0.115,0.825,0.300,188.889,77.778,255.556,572.222,113.889,N
850,-0.030,0.780,0.245,197.222,52.778,227.778,555.556,16.667,N
851,-0.105,0.755,0.230,194.444,69.444,247.222,600.000,44.444,N
852,-0.030,0.670,0.280,47.222,63.889,208.333,563.889,36.111,N
853,0.025,0.960,0.355,191.667,55.556,208.333,577.778,13.889,N
854,-0.080,0.950,0.310,172.222,50.000,205.556,511.111,66.667,N
855,-0.085,0.940,0.270,172.222,72.222,211.111,505.556,5.556,N
856,-0.135,0.805,0.175,175.000,77.778,208.333,502.778,2.778,N
857,-0.170,0.640,0.280,163.889,52.778,205.556,505.556,2.778,N
858,-0.140,0.625,0.230,177.778,83.333,227.778,516.667,11.111,N
859,-0.125,0.785,0.145,175.000,58.333,202.778,525.000,8.333,N
860,-0.225,0.785,0.170,183.333,52.778,200.000,552.778,27.778,N
861,-0.145,0.840,0.215,188.889,83.333,261.111,544.444,8.333,N
862,-0.185,0.700,0.170,191.667,86.111,238.889,566.667,22.222,N
863,-0.120,0.690,0.210,183.333,66.667,233.333,558.333,8.333,N
864,-0.095,0.755,0.285,183.333,66.667,222.222,550.000,8.333,N
865,-0.060,0.855,0.310,72.222,72.222,227.778,552.778,2.778,N
866,0.025,1.015,0.320,188.889,55.556,213.889,536.111,16.667,N
867,0.015,0.905,0.360,175.000,72.222,233.333,502.778,33.333,N
868,-0.005,0.795,0.345,163.889,83.333,244.444,508.333,5.556,N
869,-0.025,0.790,0.275,166.667,83.333,244.444,500.000,8.333,N
870,0.025,0.790,0.370,150.000,55.556,188.889,522.222,22.222,N
871,-0.050,0.940,0.255,125.000,75.000,238.889,505.556,16.667,N
872,-0.045,0.665,0.275,183.333,77.778,230.556,550.000,44.444,N
873,-0.030,0.630,0.240,88.889,55.556,191.667,527.778,22.222,N
874,-0.090,0.695,0.270,183.333,80.556,255.556,577.778,50.000,N
875,-0.115,0.645,0.205,175.000,88.889,261.111,580.556,2.778,N
876,-0.090,0.860,0.345,172.222,52.778,200.000,569.444,11.111,N
877,-0.070,0.865,0.365,58.333,77.778,227.778,505.556,63.889,N
878,-0.090,0.785,0.280,197.222,55.556,205.556,508.333,2.778,N
879,-0.055,0.745,0.315,163.889,77.778,225.000,497.222,11.111,N
880,-0.055,0.760,0.310,172.222,69.444,222.222,511.111,13.889,N
881,-0.020,0.845,0.310,186.111,75.000,208.333,536.111,25.000,N
882,-0.005,0.965,0.325,180.556,77.778,252.778,541.667,5.556,N
883,-0.015,0.980,0.320,191.667,83.333,258.333,547.222,5.556,N
884,-0.080,0.905,0.300,191.667,58.333,205.556,577.778,30.556,N
885,-0.090,0.795,0.245,183.333,80.556,255.556,552.778,25.000,N
886,-0.120,0.865,0.240,183.333,72.222,208.333,558.333,5.556,N
887,-0.130,0.910,0.180,188.889,55.556,208.333,552.778,5.556,N
888,-0.215,0.755,0.090,166.667,52.778,191.667,513.889,38.889,N
889,-0.260,0.670,0.085,169.444,50.000,202.778,516.667,2.778,N
890,-0.225,0.665,0.055,161.111,47.222,194.444,508.333,8.333,N
891,-0.275,0.475,-0.010,172.222,44.444,197.222,511.111,2.778,N
892,-0.335,0.340,-0.070,158.333,50.000,186.111,519.444,8.333,N
893,-0.300,0.295,-0.025,177.778,80.556,241.667,538.889,19.444,N
894,-0.295,0.445,-0.005,169.444,77.778,222.222,527.778,11.111,N
895,-0.275,0.730,0.125,188.889,69.444,241.667,530.556,2.778,N
896,-0.230,0.785,0.130,197.222,52.778,213.889,558.333,27.778,N
897,-0.200,0.675,0.170,197.222,52.778,225.000,588.889,30.556,N
898,-0.135,0.500,0.125,172.222,55.556,205.556,569.444,19.444,N
899,-0.105,0.535,0.195,183.333,52.778,211.111,558.333,11.111,N
900,-0.120,0.860,0.220,183.333,47.222,155.556,500.000,58.333,N
901,-0.065,0.920,0.260,169.444,75.000,222.222,494.444,5.556,N
902,-0.050,0.835,0.220,166.667,47.222,188.889,491.667,2.778,N
903,-0.090,0.645,0.280,166.667,66.667,211.111,513.889,22.222,N
904,-0.065,0.655,0.240,166.667,52.778,202.778,508.333,5.556,N
905,-0.060,0.850,0.995,175.000,52.778,375.000,550.000,41.667,N
906,0.290,2.350,-0.170,197.222,100.000,311.111,375.000,175.000,V
907,-0.105,0.905,0.155,186.111,55.556,225.000,736.111,361.111,N
908,-0.070,0.740,0.230,177.778,58.333,219.444,541.667,194.444,N
909,-0.145,0.660,0.175,186.111,55.556,208.333,561.111,19.444,N
910,-0.170,0.600,0.165,177.778,47.222,194.444,522.222,38.889,N
911,-0.210,0.690,0.210,175.000,50.000,197.222,516.667,5.556,N
912,-0.135,0.830,0.225,166.667,55.556,191.667,508.333,8.333,N
913,-0.130,0.815,0.265,169.444,77.778,211.111,505.556,2.778,N
914,-0.135,0.725,0.205,158.333,72.222,225.000,483.333,22.222,N
915,-0.180,0.655,0.215,169.444,55.556,205.556,527.778,44.444,N
916,-0.150,0.745,0.250,180.556,66.667,225.000,497.222,30.556,N
917,-0.145,0.890,0.245,175.000,52.778,194.444,530.556,33.333,N
918,-0.120,0.955,0.270,186.111,52.778,222.222,522.222,8.333,N
919,-0.110,0.930,0.290,175.000,61.111,225.000,541.667,19.444,N
920,-0.100,0.820,0.295,177.778,58.333,222.222,530.556,11.111,N
921,-0.085,0.795,0.260,177.778,58.333,219.444,552.778,22.222,N
922,-0.115,0.795,0.260,175.000,52.778,211.111,536.111,16.667,N
923,-0.140,0.840,0.260,158.333,80.556,227.778,511.111,25.000,N
924,-0.150,0.790,0.335,155.556,72.222,230.556,497.222,13.889,N
925,-0.110,0.780,0.290,175.000,75.000,222.222,502.778,5.556,N
926,-0.080,0.780,0.305,163.889,52.778,191.667,491.667,11.111,N
927,-0.080,0.855,0.285,175.000,77.778,227.778,508.333,16.667,N
928,-0.100,0.870,0.265,186.111,55.556,227.778,541.667,33.333,N
929,-0.090,0.760,0.285,188.889,58.333,211.111,572.222,30.556,N
930,-0.090,0.745,0.245,183.333,58.333,225.000,561.111,11.111,N
931,0.195,2.315,-0.220,194.444,94.444,380.556,408.333,152.778,V
932,-0.105,0.770,0.175,177.778,83.333,277.778,686.111,277.778,N
933,-0.010,0.855,0.330,177.778,50.000,191.667,533.333,152.778,N
934,-0.030,1.720,-0.135,55.556,102.778,336.111,477.778,55.556,V
935,-0.065,0.740,0.445,122.222,80.556,244.444,538.889,61.111,N
936,0.020,0.785,0.320,169.444,50.000,205.556,505.556,33.333,N
937,0.000,0.835,0.325,166.667,72.222,219.444,502.778,2.778,N
938,-0.095,0.920,0.335,152.778,52.778,208.333,530.556,27.778,N
939,0.155,1.840,1.665,188.889,108.333,344.444,405.556,125.000,V
940,-0.180,1.665,0.135,63.889,100.000,283.333,286.111,119.444,V
941,0.040,0.635,0.240,177.778,63.889,250.000,933.333,647.222,N
942,0.180,1.655,-0.070,58.333,105.556,344.444,455.556,477.778,V
943,-0.045,0.915,0.305,191.667,66.667,236.111,675.000,219.444,N
944,0.135,0.830,0.325,191.667,80.556,244.444,569.444,105.556,N
945,-0.025,0.950,0.350,175.000,44.444,186.111,530.556,38.889,N
946,0.035,0.835,0.370,175.000,52.778,188.889,511.111,19.444,N
947,-0.030,0.760,0.370,169.444,50.000,177.778,500.000,11.111,N
948,0.030,0.875,0.380,175.000,52.778,191.667,500.000,0.000,N
949,0.040,0.995,0.400,183.333,75.000,225.000,500.000,0.000,N
950,0.050,1.015,0.365,183.333,83.333,227.778,527.778,27.778,N
951,0.035,0.930,0.370,186.111,52.778,208.333,519.444,8.333,N
952,-0.030,0.815,0.280,186.111,86.111,233.333,566.667,47.222,N
953,-0.045,0.795,0.255,194.444,80.556,269.444,563.889,2.778,N
954,-0.085,0.710,0.260,183.333,80.556,238.889,583.333,19.444,N
955,-0.035,0.690,0.310,177.778,55.556,219.444,544.444,38.889,N
956,0.230,1.425,-0.185,58.333,116.667,291.667,491.667,52.778,V
957,-0.145,0.745,0.300,172.222,75.000,230.556,536.111,44.444,N
958,-0.045,0.765,0.285,166.667,69.444,222.222,500.000,36.111,N
959,-0.070,0.820,0.285,180.556,61.111,205.556,511.111,11.111,N
960,-0.055,0.695,0.250,183.333,50.000,180.556,536.111,25.000,N
961,-0.080,0.845,0.255,172.222,83.333,255.556,519.444,16.667,N
962,-0.140,0.810,0.220,194.444,86.111,244.444,541.667,22.222,N
963,-0.180,0.770,0.205,191.667,72.222,250.000,525.000,16.667,N
964,-0.195,0.640,0.260,197.222,61.111,197.222,552.778,27.778,N
965,-0.135,0.715,0.290,197.222,72.222,244.444,558.333,5.556,N
966,-0.105,0.645,0.285,152.778,66.667,219.444,555.556,2.778,N
967,-0.080,0.810,0.365,180.556,55.556,222.222,533.333,22.222,N
968,-0.075,0.810,0.225,169.444,77.778,219.444,511.111,22.222,N
969,-0.115,0.800,0.220,175.000,69.444,225.000,511.111,0.000,N
970,-0.150,0.670,0.210,161.111,55.556,205.556,497.222,13.889,N
971,-0.085,0.620,0.240,175.000,75.000,241.667,516.667,19.444,N
972,-0.035,0.660,0.210,80.556,83.333,233.333,522.222,5.556,N
973,-0.055,0.870,0.245,186.111,55.556,194.444,522.222,0.000,N
974,-0.155,0.890,0.215,122.222,63.889,252.778,544.444,22.222,N
975,-0.215,0.870,0.235,197.222,58.333,258.333,588.889,44.444,N
976,-0.105,0.775,0.255,194.444,58.333,219.444,588.889,0.000,N
977,-0.165,0.690,0.255,188.889,61.111,238.889,580.556,8.333,N
978,-0.100,0.660,0.245,169.444,72.222,211.111,547.222,33.333,N
979,-0.080,0.770,0.240,175.000,50.000,197.222,516.667,30.556,N
980,-0.140,0.820,0.215,180.556,77.778,227.778,494.444,22.222,N
981,-0.120,0.715,0.200,172.222,55.556,205.556,508.333,13.889,N
982,-0.150,0.725,0.270,158.333,52.778,202.778,494.444,13.889,N
983,-0.200,0.620,0.155,183.333,52.778,194.444,547.222,52.778,N
984,-0.125,0.650,0.145,188.889,83.333,261.111,552.778,5.556,N
985,-0.200,0.625,0.135,150.000,63.889,211.111,591.667,38.889,N
986,-0.215,0.760,0.160,180.556,55.556,236.111,555.556,36.111,N
987,-0.175,0.725,0.190,188.889,86.111,227.778,572.222,16.667,N
988,-0.190,0.685,0.210,183.333,50.000,205.556,544.444,27.778,N
989,-0.165,0.610,0.190,180.556,83.333,255.556,552.778,8.333,N
990,-0.120,0.610,1.555,180.556,83.333,405.556,550.000,2.778,N
991,0.180,1.630,-0.140,172.222,111.111,269.444,350.000,200.000,V
992,-0.150,0.570,0.050,163.889,52.778,197.222,675.000,325.000,N
993,-0.195,0.685,0.165,180.556,47.222,191.667,519.444,155.556,N
994,-0.205,0.770,0.125,186.111,80.556,238.889,513.889,5.556,N
995,-0.165,0.625,0.165,169.444,55.556,225.000,525.000,11.111,N
996,-0.155,0.575,0.170,188.889,58.333,225.000,569.444,44.444,N
997,-0.160,0.525,0.145,188.889,55.556,202.778,550.000,19.444,N
998,-0.165,0.805,0.170,197.222,58.333,213.889,575.000,25.000,N
999,-0.180,0.745,0.180,191.667,63.889,238.889,561.111,13.889,N
1000,-0.170,0.780,0.175,191.667,52.778,208.333,575.000,13.889,N
1001,-0.170,0.705,0.215,169.444,50.000,208.333,516.667,58.333,N
1002,-0.120,0.645,0.230,169.444,66.667,197.222,513.889,2.778,N
1003,-0.065,1.955,2.115,58.333,111.111,405.556,427.778,86.111,V
1004,-0.120,2.140,-0.230,58.333,94.444,397.222,350.000,77.778,V
1005,-0.090,0.805,0.205,186.111,66.667,225.000,758.333,408.333,N
1006,-0.060,0.805,0.250,183.333,52.778,211.111,563.889,194.444,N
1007,-0.085,0.855,0.245,188.889,55.556,225.000,555.556,8.333,N
1008,-0.125,0.710,0.225,191.667,58.333,211.111,583.333,27.778,N
1009,-0.110,0.645,0.245,188.889,52.778,227.778,550.000,33.333,N
1010,-0.100,0.640,0.290,177.778,55.556,205.556,566.667,16.667,N
1011,-0.085,0.855,0.280,194.444,63.889,211.111,555.556,11.111,N
1012,-0.065,0.870,0.280,163.889,63.889,211.111,511.111,44.444,N
1013,-0.080,0.805,0.290,175.000,80.556,236.111,505.556,5.556,N
1014,-0.090,0.745,0.265,161.111,61.111,211.111,497.222,8.333,N
1015,-0.115,0.740,0.240,172.222,61.111,205.556,513.889,16.667,N
1016,-0.060,0.735,0.250,163.889,50.000,194.444,508.333,5.556,N
1017,-0.085,0.890,0.230,172.222,58.333,211.111,522.222,13.889,N
1018,-0.075,0.855,0.250,177.778,61.111,188.889,508.333,13.889,N
1019,-0.135,0.835,0.255,180.556,55.556,225.000,522.222,13.889,N
1020,-0.115,0.715,0.285,100.000,80.556,255.556,561.111,38.889,N
1021,-0.055,0.755,0.265,155.556,75.000,244.444,591.667,30.556,N
1022,0.010,0.745,0.305,177.778,77.778,225.000,552.778,38.889,N
1023,-0.105,0.875,0.350,177.778,69.444,211.111,536.111,16.667,N
1024,-0.050,0.945,0.245,163.889,63.889,213.889,488.889,47.222,N
1025,-0.110,0.875,0.295,175.000,50.000,183.333,494.444,5.556,N
1026,-0.070,0.875,0.355,166.667,50.000,211.111,488.889,5.556,N
1027,-0.065,0.760,0.285,169.444,50.000,175.000,516.667,27.778,N
1028,-0.075,0.830,0.295,163.889,83.333,244.444,497.222,19.444,N
1029,-0.065,0.915,0.260,172.222,52.778,208.333,538.889,41.667,N
1030,-0.155,0.870,0.220,186.111,75.000,255.556,550.000,11.111,N
1031,-0.130,0.810,0.215,183.333,66.667,211.111,577.778,27.778,N
1032,-0.095,0.790,0.240,197.222,55.556,219.444,563.889,13.889,N
1033,-0.100,0.820,0.240,177.778,83.333,233.333,566.667,2.778,N
1034,-0.090,0.780,0.315,177.778,83.333,238.889,536.111,30.556,N
1035,-0.090,0.795,0.225,169.444,50.000,208.333,519.444,16.667,N
1036,-0.070,0.845,0.245,169.444,72.222,225.000,519.444,0.000,N
1037,-0.125,0.845,0.230,163.889,44.444,191.667,508.333,11.111,N
1038,-0.165,0.750,0.210,169.444,83.333,252.778,513.889,5.556,N
1039,-0.100,0.755,0.185,172.222,69.444,219.444,527.778,13.889,N
1040,-0.135,0.750,0.215,180.556,52.778,213.889,527.778,0.000,N
1041,-0.125,0.705,0.155,166.667,83.333,255.556,533.333,5.556,N
1042,-0.140,0.725,0.175,180.556,55.556,200.000,563.889,30.556,N
1043,-0.160,0.770,0.205,169.444,75.000,238.889,538.889,25.000,N
1044,0.425,1.645,-0.295,58.333,116.667,380.556,536.111,2.778,V
1045,-0.135,0.630,0.225,191.667,80.556,247.222,605.556,69.444,N
1046,-0.105,0.655,0.290,166.667,47.222,191.667,536.111,69.444,N
1047,-0.125,0.840,0.220,155.556,47.222,197.222,494.444,41.667,N
1048,-0.105,0.825,0.285,172.222,69.444,225.000,497.222,2.778,N
1049,-0.045,0.795,0.310,158.333,44.444,194.444,488.889,8.333,N
1050,-0.035,0.655,0.255,177.778,47.222,194.444,516.667,27.778,N
1051,-0.085,0.965,0.270,186.111,58.333,225.000,533.333,16.667,N
1052,-0.095,0.870,0.205,191.667,55.556,202.778,563.889,30.556,N
1053,-0.155,0.780,0.180,194.444,83.333,244.444,552.778,11.111,N
1054,-0.135,0.660,0.175,191.667,75.000,236.111,597.222,44.444,N
1055,-0.145,0.725,0.155,188.889,58.333,205.556,530.556,66.667,N
1056,-0.210,0.850,0.165,177.778,52.778,208.333,541.667,11.111,N
1057,-0.205,0.740,0.110,177.778,52.778,211.111,513.889,27.778,N
1058,0.060,1.920,-0.300,194.444,102.778,380.556,397.222,116.667,V
1059,-0.220,0.615,0.045,177.778,80.556,227.778,616.667,219.444,N
1060,-0.190,0.690,0.200,177.778,75.000,225.000,500.000,116.667,N
1061,-0.125,0.915,0.255,175.000,77.778,227.778,530.556,30.556,N
1062,-0.090,0.945,0.260,172.222,58.333,205.556,500.000,30.556,N
1063,-0.120,0.910,0.165,180.556,58.333,208.333,533.333,33.333,N
1064,-0.150,0.770,0.175,175.000,52.778,205.556,533.333,0.000,N
1065,-0.160,0.720,0.185,177.778,80.556,255.556,538.889,5.556,N
1066,-0.140,0.800,0.230,197.222,80.556,255.556,566.667,27.778,N
1067,-0.105,0.970,0.230,191.667,61.111,225.000,577.778,11.111,N
1068,-0.150,1.590,-0.205,111.111,111.111,275.000,452.778,125.000,V
1069,-0.160,0.875,0.195,175.000,55.556,205.556,580.556,127.778,N
1070,-0.170,0.650,0.180,163.889,63.889,208.333,488.889,91.667,N
1071,-0.165,0.720,0.160,169.444,52.778,191.667,505.556,16.667,N
1072,-0.120,0.905,0.215,163.889,50.000,194.444,494.444,11.111,N
1073,-0.130,0.915,0.175,169.444,52.778,191.667,522.222,27.778,N
1074,-0.190,0.755,0.120,175.000,69.444,211.111,511.111,11.111,N
1075,-0.235,0.775,0.145,180.556,50.000,208.333,563.889,52.778,N
1076,-0.225,0.885,0.175,180.556,86.111,258.333,572.222,8.333,N
1077,-0.125,1.980,1.120,66.667,108.333,386.111,450.000,122.222,V
1078,-0.215,1.070,-0.155,91.667,105.556,222.222,322.222,127.778,V
1079,-0.230,0.680,0.040,175.000,50.000,213.889,886.111,563.889,N
1080,-0.145,0.755,0.175,169.444,83.333,225.000,522.222,363.889,N
1081,-0.155,0.825,0.160,172.222,86.111,244.444,502.778,19.444,N
1082,-0.190,0.755,0.155,172.222,80.556,241.667,508.333,5.556,N
1083,-0.215,0.765,0.140,175.000,58.333,219.444,516.667,8.333,N
1084,-0.150,0.655,0.140,172.222,66.667,208.333,533.333,16.667,N
1085,-0.185,0.655,0.150,175.000,55.556,205.556,544.444,11.111,N
1086,-0.155,0.840,0.185,166.667,83.333,241.667,525.000,19.444,N
1087,-0.180,0.875,0.200,186.111,55.556,225.000,541.667,16.667,N
1088,-0.165,0.740,0.155,186.111,77.778,250.000,561.111,19.444,N
1089,-0.235,0.595,0.135,158.333,72.222,219.444,547.222,13.889,N
1090,-0.225,0.710,0.125,147.222,80.556,241.667,563.889,16.667,N
1091,-0.235,0.895,0.140,183.333,69.444,211.111,522.222,41.667,N
1092,-0.195,0.765,0.160,180.556,52.778,205.556,519.444,2.778,N
1093,-0.205,0.765,0.130,161.111,50.000,188.889,502.778,16.667,N
1094,-0.250,0.665,0.135,161.111,72.222,233.333,505.556,2.778,N
1095,-0.215,0.635,0.130,177.778,58.333,200.000,519.444,13.889,N
1096,-0.195,0.635,0.115,144.444,63.889,205.556,513.889,5.556,N
1097,-0.185,0.850,0.185,194.444,61.111,236.111,552.778,38.889,N
1098,-0.195,0.775,0.180,197.222,80.556,255.556,580.556,27.778,N
1099,-0.200,0.710,0.165,177.778,66.667,241.667,563.889,16.667,N
1100,-0.200,0.665,0.135,191.667,77.778,238.889,583.333,19.444,N
1101,-0.160,0.650,0.185,175.000,75.000,227.778,547.222,36.111,N
1102,-0.215,0.710,0.150,188.889,50.000,200.000,533.333,13.889,N
1103,-0.195,0.815,0.150,169.444,69.444,225.000,497.222,36.111,N
1104,-0.195,0.830,0.130,161.111,72.222,222.222,505.556,8.333,N
1105,-0.250,0.710,0.160,166.667,80.556,227.778,486.111,19.444,N
1106,-0.235,0.630,0.135,180.556,47.222,186.111,522.222,36.111,N
1107,-0.215,0.680,0.110,180.556,86.111,211.111,527.778,5.556,N
1108,-0.240,0.730,0.130,183.333,63.889,213.889,555.556,27.778,N
1109,-0.230,0.820,0.230,188.889,61.111,227.778,522.222,33.333,N
1110,-0.145,1.950,-0.305,58.333,105.556,297.222,436.111,86.111,V
1111,-0.185,0.700,0.090,177.778,61.111,230.556,641.667,205.556,N
1112,-0.225,0.680,0.225,177.778,52.778,213.889,547.222,94.444,N
1113,0.025,0.725,0.155,197.222,86.111,255.556,433.333,113.889,A
1114,-0.215,0.735,0.125,172.222,52.778,194.444,652.778,219.444,N
1115,-0.185,0.825,0.155,197.222,47.222,205.556,494.444,158.333,N
1116,-0.180,0.865,0.195,161.111,52.778,194.444,502.778,8.333,N
1117,-0.170,0.855,0.205,169.444,80.556,219.444,486.111,16.667,N
1118,-0.140,0.735,0.190,169.444,52.778,183.333,519.444,33.333,N
1119,-0.155,0.700,0.195,186.111,55.556,208.333,527.778,8.333,N
1120,-0.130,0.895,0.230,169.444,86.111,238.889,533.333,5.556,N
1121,-0.150,0.945,0.215,194.444,86.111,258.333,547.222,13.889,N
1122,-0.165,0.910,0.200,183.333,80.556,255.556,550.000,2.778,N
1123,-0.200,0.785,0.155,194.444,58.333,225.000,575.000,25.000,N
1124,-0.205,0.720,0.160,175.000,72.222,222.222,550.000,25.000,N
1125,-0.205,0.670,0.145,175.000,83.333,236.111,519.444,30.556,N
1126,-0.225,0.805,0.175,169.444,75.000,225.000,497.222,22.222,N
1127,-0.210,0.820,0.190,161.111,55.556,188.889,486.111,11.111,N
1128,-0.235,0.870,0.140,166.667,69.444,211.111,505.556,19.444,N
1129,-0.135,0.670,0.215,191.667,50.000,205.556,527.778,22.222,N
1130,-0.210,0.675,0.230,169.444,52.778,208.333,527.778,0.000,N
1131,-0.220,0.740,0.225,186.111,72.222,238.889,544.444,16.667,N
1132,-0.220,0.805,0.130,177.778,50.000,194.444,544.444,0.000,N
1133,-0.250,0.770,0.170,186.111,66.667,233.333,541.667,2.778,N
1134,-0.210,0.735,0.135,183.333,66.667,213.889,541.667,0.000,N
1135,-0.220,0.785,0.220,186.111,52.778,213.889,569.444,27.778,N
1136,-0.180,0.830,0.155,194.444,50.000,183.333,519.444,50.000,N
1137,-0.185,0.870,0.155,175.000,58.333,194.444,522.222,2.778,N
1138,-0.220,0.785,0.145,163.889,72.222,236.111,502.778,19.444,N
1139,-0.185,0.550,0.100,175.000,69.444,188.889,519.444,16.667,N
1140,-0.230,0.655,0.120,186.111,52.778,211.111,508.333,11.111,N
1141,-0.255,0.760,0.205,175.000,61.111,211.111,522.222,13.889,N
1142,-0.250,0.830,0.185,172.222,50.000,180.556,519.444,2.778,N
1143,-0.165,0.805,0.185,188.889,72.222,241.667,544.444,25.000,N
1144,0.280,1.700,-0.345,58.333,116.667,341.667,505.556,38.889,V
1145,-0.220,0.715,0.220,197.222,72.222,238.889,675.000,169.444,N
1146,-0.100,0.785,0.215,186.111,55.556,208.333,547.222,127.778,N
1147,-0.110,0.940,0.225,188.889,66.667,219.444,552.778,5.556,N
1148,-0.150,0.745,0.210,177.778,61.111,208.333,505.556,47.222,N
1149,-0.150,0.695,0.210,169.444,72.222,222.222,511.111,5.556,N
1150,-0.115,0.770,0.210,172.222,77.778,238.889,505.556,5.556,N
1151,-0.115,0.710,0.210,163.889,83.333,222.222,508.333,2.778,N
1152,-0.155,0.785,0.205,177.778,58.333,205.556,519.444,11.111,N
1153,-0.200,0.800,0.160,188.889,86.111,252.778,536.111,16.667,N
1154,-0.220,0.775,0.115,191.667,77.778,252.778,566.667,30.556,N
1155,-0.215,0.815,0.135,197.222,47.222,222.222,575.000,8.333,N
1156,-0.235,0.710,0.165,188.889,75.000,241.667,572.222,2.778,N
1157,-0.190,0.630,0.165,186.111,52.778,208.333,566.667,5.556,N
1158,-0.135,0.710,0.235,177.778,75.000,233.333,538.889,27.778,N
1159,0.085,2.220,-0.255,197.222,105.556,291.667,408.333,130.556,V
1160,-0.190,0.870,0.145,169.444,86.111,227.778,647.222,238.889,N
1161,-0.175,0.825,0.240,169.444,44.444,197.222,508.333,138.889,N
1162,-0.160,0.875,0.215,188.889,72.222,227.778,525.000,16.667,N
1163,-0.150,0.620,0.215,169.444,72.222,225.000,519.444,5.556,N
1164,-0.125,0.735,0.210,191.667,61.111,225.000,538.889,19.444,N
1165,-0.075,2.160,-0.255,58.333,108.333,316.667,450.000,88.889,V
1166,-0.155,0.920,0.260,194.444,63.889,227.778,666.667,216.667,N
1167,-0.095,0.875,0.285,186.111,58.333,225.000,530.556,136.111,N
1168,-0.115,0.960,0.245,186.111,55.556,208.333,577.778,47.222,N
1169,-0.170,0.810,0.250,186.111,52.778,211.111,547.222,30.556,N
1170,-0.135,0.625,0.170,175.000,86.111,227.778,533.333,13.889,N
1171,-0.205,0.655,0.170,163.889,52.778,202.778,508.333,25.000,N
1172,-0.180,0.735,0.200,163.889,47.222,191.667,505.556,2.778,N
1173,-0.195,0.775,0.235,163.889,72.222,225.000,488.889,16.667,N
1174,-0.170,0.825,0.200,175.000,52.778,211.111,502.778,13.889,N
1175,-0.185,0.810,0.250,191.667,80.556,238.889,536.111,33.333,N
1176,-0.215,0.785,0.160,191.667,80.556,227.778,566.667,30.556,N
1177,-0.205,0.755,0.195,188.889,61.111,208.333,552.778,13.889,N
1178,-0.175,0.695,0.285,188.889,77.778,255.556,577.778,25.000,N
1179,-0.180,0.835,0.210,175.000,52.778,213.889,538.889,38.889,N
1180,-0.170,0.800,0.225,175.000,52.778,211.111,533.333,5.556,N
1181,-0.165,0.860,0.190,169.444,58.333,211.111,525.000,8.333,N
1182,-0.210,0.865,0.220,161.111,83.333,227.778,505.556,19.444,N
1183,-0.125,0.805,0.230,175.000,52.778,211.111,511.111,5.556,N
1184,-0.115,0.815,0.270,180.556,80.556,236.111,511.111,0.000,N
1185,-0.125,0.810,0.245,186.111,77.778,247.222,541.667,30.556,N
1186,-0.125,0.930,0.235,169.444,83.333,241.667,525.000,16.667,N
1187,-0.080,0.865,0.210,180.556,58.333,200.000,547.222,22.222,N
1188,-0.145,0.905,0.225,183.333,50.000,211.111,552.778,5.556,N
1189,-0.120,0.830,0.280,191.667,86.111,247.222,558.333,5.556,N
1190,-0.050,0.810,0.280,197.222,80.556,236.111,575.000,16.667,N
1191,-0.105,0.950,0.260,186.111,55.556,208.333,586.111,11.111,N
1192,-0.115,0.945,0.235,172.222,58.333,216.667,533.333,52.778,N
1193,-0.140,0.830,0.215,177.778,77.778,225.000,525.000,8.333,N
1194,-0.175,0.790,0.190,172.222,77.778,202.778,502.778,22.222,N
1195,-0.145,0.700,0.200,172.222,77.778,225.000,513.889,11.111,N
1196,-0.140,0.720,0.200,186.111,55.556,211.111,527.778,13.889,N
1197,-0.155,0.780,0.200,177.778,80.556,222.222,544.444,16.667,N
1198,-0.185,0.875,0.190,191.667,75.000,261.111,538.889,5.556,N
1199,-0.190,0.835,0.165,194.444,63.889,222.222,575.000,36.111,N
1200,-0.275,0.830,0.145,191.667,58.333,225.000,591.667,16.667,N
1201,-0.200,0.695,0.150,188.889,55.556,236.111,586.111,5.556,N
1202,-0.195,0.710,0.155,197.222,52.778,222.222,580.556,5.556,N
1203,-0.180,0.605,0.160,175.000,47.222,194.444,538.889,41.667,N
1204,-0.185,0.735,0.180,172.222,72.222,222.222,513.889,25.000,N
1205,-0.210,0.820,0.180,172.222,50.000,202.778,513.889,0.000,N
1206,-0.205,0.795,0.080,180.556,52.778,211.111,525.000,11.111,N
1207,-0.350,0.710,0.100,175.000,72.222,222.222,544.444,19.444,N
1208,-0.245,0.685,0.155,188.889,77.778,225.000,550.000,5.556,N
1209,-0.210,0.540,0.090,172.222,55.556,222.222,547.222,2.778,N
1210,-0.280,0.625,0.150,183.333,83.333,241.667,561.111,13.889,N
1211,-0.260,0.635,0.100,188.889,58.333,208.333,555.556,5.556,N
1212,-0.245,0.760,0.115,186.111,55.556,200.000,566.667,11.111,N
1213,-0.250,0.680,0.095,175.000,58.333,236.111,536.111,30.556,N
1214,-0.050,2.250,-0.365,197.222,91.667,308.333,422.222,113.889,V
1215,-0.315,0.590,-0.025,191.667,77.778,222.222,647.222,225.000,N
1216,-0.080,0.685,0.220,183.333,47.222,197.222,505.556,141.667,N
1217,-0.220,0.915,0.185,150.000,66.667,211.111,488.889,16.667,N
1218,-0.200,0.835,0.155,188.889,52.778,191.667,497.222,8.333,N
1219,-0.175,0.775,0.205,163.889,63.889,225.000,508.333,11.111,N
1220,-0.180,0.735,0.205,186.111,77.778,247.222,547.222,38.889,N
1221,-0.165,0.770,0.215,197.222,55.556,222.222,594.444,47.222,N
1222,-0.145,0.890,0.240,191.667,50.000,219.444,586.111,8.333,N
1223,0.240,1.470,-0.130,194.444,116.667,280.556,388.889,197.222,V
1224,-0.220,0.840,0.065,183.333,61.111,233.333,755.556,366.667,N
1225,-0.170,0.685,0.185,186.111,52.778,208.333,533.333,222.222,N
1226,-0.175,0.810,0.200,169.444,69.444,222.222,519.444,13.889,N
1227,-0.150,0.685,0.210,177.778,47.222,177.778,522.222,2.778,N
1228,-0.155,0.855,0.210,177.778,75.000,222.222,500.000,22.222,N
1229,0.035,2.090,-0.305,197.222,102.778,294.444,405.556,94.444,V
1230,-0.200,0.860,0.100,186.111,83.333,238.889,652.778,247.222,N
1231,-0.200,0.730,0.180,188.889,55.556,202.778,555.556,97.222,N
1232,-0.200,0.795,0.175,191.667,61.111,238.889,552.778,2.778,N
1233,-0.135,0.660,0.210,191.667,58.333,205.556,563.889,11.111,N
1234,-0.040,1.575,-0.170,197.222,116.667,291.667,425.000,138.889,V
1235,-0.220,0.820,0.100,180.556,52.778,238.889,683.333,258.333,N
1236,-0.215,0.730,0.150,191.667,52.778,216.667,561.111,122.222,N
1237,-0.200,0.810,0.160,172.222,52.778,205.556,530.556,30.556,N
1238,-0.245,0.700,0.145,175.000,75.000,222.222,516.667,13.889,N
1239,-0.210,0.690,0.135,161.111,75.000,222.222,502.778,13.889,N
1240,-0.225,0.600,0.120,177.778,58.333,205.556,513.889,11.111,N
1241,-0.225,0.780,0.145,172.222,58.333,208.333,513.889,0.000,N
1242,-0.190,0.830,0.175,183.333,52.778,208.333,544.444,30.556,N
1243,-0.210,0.860,0.175,188.889,58.333,225.000,536.111,8.333,N
1244,-0.205,0.800,0.170,191.667,58.333,219.444,575.000,38.889,N
1245,-0.215,0.740,0.160,194.444,61.111,238.889,577.778,2.778,N
1246,-0.220,0.675,0.165,183.333,52.778,205.556,591.667,13.889,N
1247,-0.170,0.705,0.175,183.333,50.000,208.333,550.000,41.667,N
1248,-0.175,0.840,0.170,166.667,52.778,172.222,519.444,30.556,N
1249,-0.200,0.830,0.220,175.000,47.222,194.444,494.444,25.000,N
1250,-0.190,0.820,0.200,172.222,52.778,191.667,508.333,13.889,N
1251,-0.145,0.785,0.245,186.111,52.778,222.222,533.333,25.000,N
1252,-0.115,0.770,0.265,169.444,52.778,211.111,547.222,13.889,N
1253,-0.100,0.790,0.280,194.444,55.556,225.000,550.000,2.778,N
1254,-0.110,0.845,0.280,191.667,50.000,200.000,561.111,11.111,N
1255,-0.100,1.000,0.320,197.222,58.333,227.778,555.556,5.556,N
1256,-0.110,0.940,0.250,197.222,52.778,227.778,544.444,11.111,N
1257,-0.145,0.865,0.235,186.111,55.556,211.111,572.222,27.778,N
1258,-0.165,0.800,0.250,186.111,50.000,205.556,533.333,38.889,N
1259,-0.100,0.740,0.270,177.778,50.000,194.444,544.444,11.111,N
1260,-0.065,0.655,0.270,175.000,52.778,205.556,525.000,19.444,N
1261,-0.105,0.740,0.285,166.667,47.222,191.667,525.000,0.000,N
1262,-0.100,0.930,0.290,180.556,55.556,205.556,511.111,13.889,N
1263,-0.070,0.910,0.360,169.444,47.222,191.667,522.222,11.111,N
1264,0.340,1.940,-0.195,58.333,116.667,388.889,505.556,16.667,V
1265,-0.025,0.955,0.440,194.444,63.889,238.889,591.667,86.111,N
1266,-0.020,0.845,0.380,188.889,58.333,238.889,594.444,2.778,N
1267,-0.015,0.925,0.405,194.444,86.111,241.667,625.000,30.556,N
1268,0.075,0.900,0.415,197.222,63.889,238.889,583.333,41.667,N
1269,0.050,1.095,0.390,177.778,50.000,194.444,547.222,36.111,N
1270,-0.015,1.015,0.345,172.222,52.778,188.889,508.333,38.889,N
1271,-0.015,0.950,0.350,172.222,50.000,202.778,500.000,8.333,N
1272,-0.005,0.815,0.350,169.444,52.778,202.778,516.667,16.667,N
1273,-0.005,0.840,0.325,172.222,77.778,225.000,505.556,11.111,N
1274,0.005,0.820,0.330,177.778,63.889,205.556,536.111,30.556,N
1275,-0.035,1.040,0.340,186.111,55.556,227.778,538.889,2.778,N
1276,-0.010,0.920,0.335,194.444,50.000,205.556,566.667,27.778,N
1277,-0.040,0.995,0.310,197.222,66.667,241.667,563.889,2.778,N
1278,-0.015,0.700,0.320,83.333,69.444,241.667,566.667,2.778,N
1279,-0.055,0.800,0.315,180.556,66.667,213.889,547.222,19.444,N
1280,-0.035,0.755,0.330,186.111,61.111,211.111,544.444,2.778,N
1281,0.195,2.290,-0.125,197.222,108.333,272.222,408.333,136.111,V
1282,-0.095,0.860,0.275,166.667,83.333,244.444,633.333,225.000,N
1283,-0.060,0.800,0.280,166.667,69.444,222.222,486.111,147.222,N
1284,-0.095,0.790,0.260,172.222,75.000,225.000,508.333,22.222,N
1285,-0.115,0.730,0.260,175.000,52.778,200.000,500.000,8.333,N
1286,-0.105,0.875,0.310,172.222,58.333,219.444,516.667,16.667,N
1287,-0.030,0.965,0.315,188.889,52.778,222.222,544.444,27.778,N
1288,-0.065,0.955,0.280,166.667,83.333,225.000,525.000,19.444,N
1289,-0.080,0.890,0.275,191.667,50.000,219.444,563.889,38.889,N
1290,-0.030,0.875,0.290,194.444,61.111,225.000,566.667,2.778,N
1291,-0.070,0.860,0.300,186.111,52.778,219.444,575.000,8.333,N
1292,-0.015,1.055,0.360,169.444,52.778,191.667,516.667,58.333,N
1293,-0.055,1.010,0.370,175.000,63.889,213.889,505.556,11.111,N
1294,-0.030,1.010,0.370,166.667,47.222,191.667,491.667,13.889,N
1295,0.010,0.945,0.405,166.667,83.333,238.889,500.000,8.333,N
1296,0.020,0.945,0.350,177.778,80.556,227.778,527.778,27.778,N
1297,-0.010,0.860,0.330,186.111,50.000,208.333,555.556,27.778,N
1298,-0.050,0.965,0.285,177.778,61.111,222.222,541.667,13.889,N
1299,-0.085,0.920,0.265,197.222,75.000,241.667,577.778,36.111,N
1300,-0.110,0.860,0.235,183.333,55.556,225.000,550.000,27.778,N
1301,-0.100,0.765,0.270,186.111,52.778,222.222,566.667,16.667,N
1302,-0.070,0.820,0.265,191.667,80.556,255.556,558.333,8.333,N
1303,-0.035,0.730,0.210,169.444,50.000,186.111,544.444,13.889,N
1304,-0.105,0.680,0.185,175.000,47.222,211.111,519.444,25.000,N
1305,-0.170,0.780,0.170,172.222,55.556,208.333,513.889,5.556,N
1306,-0.145,0.725,0.155,175.000,47.222,213.889,516.667,2.778,N
1307,-0.150,0.750,0.165,169.444,50.000,208.333,527.778,11.111,N
1308,-0.145,0.700,0.180,183.333,50.000,208.333,530.556,2.778,N
1309,-0.090,0.660,0.230,175.000,52.778,202.778,541.667,11.111,N
1310,-0.095,0.710,0.230,183.333,52.778,208.333,541.667,0.000,N
1311,-0.095,0.930,0.240,194.444,52.778,219.444,561.111,19.444,N
1312,-0.125,0.880,0.225,191.667,58.333,222.222,580.556,19.444,N
1313,-0.115,0.765,0.190,177.778,52.778,222.222,566.667,13.889,N
1314,-0.130,0.740,0.200,177.778,77.778,238.889,552.778,13.889,N
1315,-0.110,0.560,0.185,158.333,58.333,194.444,513.889,38.889,N
1316,-0.125,0.605,0.175,169.444,50.000,188.889,511.111,2.778,N
1317,-0.150,0.710,0.210,163.889,47.222,194.444,494.444,16.667,N
1318,-0.130,0.850,0.210,175.000,50.000,197.222,513.889,19.444,N
1319,-0.160,0.860,0.190,169.444,50.000,205.556,494.444,19.444,N
1320,-0.185,0.805,0.170,183.333,50.000,222.222,544.444,50.000,N
1321,-0.160,0.690,0.190,188.889,55.556,238.889,555.556,11.111,N
1322,-0.150,0.655,0.160,194.444,50.000,197.222,588.889,33.333,N
1323,-0.175,0.650,0.195,186.111,52.778,211.111,552.778,36.111,N
1324,-0.190,0.805,0.180,186.111,50.000,197.222,558.333,5.556,N
1325,-0.170,0.810,0.170,172.222,52.778,208.333,516.667,41.667,N
1326,-0.195,0.775,0.160,175.000,50.000,208.333,522.222,5.556,N
1327,-0.180,0.710,0.230,172.222,52.778,205.556,527.778,5.556,N
1328,-0.125,0.725,0.230,166.667,50.000,208.333,525.000,2.778,N
1329,-0.090,0.665,0.245,180.556,52.778,188.889,519.444,5.556,N
1330,-0.110,0.885,0.280,172.222,47.222,194.444,527.778,8.333,N
1331,-0.105,0.910,0.270,183.333,52.778,219.444,508.333,19.444,N
1332,-0.120,0.925,0.255,177.778,52.778,202.778,536.111,27.778,N
1333,-0.130,0.915,0.260,186.111,55.556,222.222,561.111,25.000,N
1334,-0.075,0.855,0.280,183.333,50.000,208.333,547.222,13.889,N
1335,-0.065,0.690,0.260,191.667,58.333,222.222,575.000,27.778,N
1336,-0.085,0.800,0.300,188.889,52.778,205.556,547.222,27.778,N
1337,-0.085,0.900,0.225,180.556,50.000,205.556,527.778,19.444,N
1338,-0.155,0.845,0.180,163.889,47.222,194.444,497.222,30.556,N
1339,-0.215,0.805,0.175,169.444,47.222,202.778,508.333,11.111,N
1340,-0.220,0.600,0.140,158.333,50.000,202.778,500.000,8.333,N
1341,-0.195,0.585,0.145,169.444,50.000,205.556,513.889,13.889,N
1342,-0.185,0.695,0.185,183.333,55.556,213.889,544.444,30.556,N
1343,-0.200,0.850,0.155,197.222,55.556,213.889,566.667,22.222,N
1344,-0.225,0.840,0.145,183.333,52.778,227.778,550.000,16.667,N
1345,-0.215,0.740,0.120,191.667,55.556,205.556,575.000,25.000,N
1346,-0.220,0.595,0.110,186.111,55.556,211.111,547.222,27.778,N
1347,-0.270,0.560,0.110,183.333,55.556,205.556,552.778,5.556,N
1348,-0.240,0.610,0.130,172.222,52.778,205.556,516.667,36.111,N
1349,-0.200,0.665,0.125,166.667,50.000,194.444,511.111,5.556,N
1350,-0.230,0.720,0.145,175.000,75.000,222.222,491.667,19.444,N
1351,-0.285,0.655,0.070,161.111,50.000,194.444,500.000,8.333,N
1352,-0.300,0.630,0.050,180.556,52.778,222.222,511.111,11.111,N
1353,-0.305,0.585,0.075,180.556,66.667,208.333,527.778,16.667,N
1354,-0.305,0.675,0.120,175.000,75.000,238.889,525.000,2.778,N
1355,-0.205,0.880,0.130,180.556,50.000,211.111,555.556,30.556,N
1356,-0.255,0.815,0.170,172.222,55.556,205.556,525.000,30.556,N
1357,-0.230,0.870,0.200,183.333,55.556,211.111,544.444,19.444,N
1358,0.375,1.890,1.315,58.333,116.667,405.556,530.556,13.889,V
1359,-0.130,1.890,-0.300,58.333,116.667,269.444,358.333,172.222,V
1360,-0.150,0.695,0.135,161.111,77.778,222.222,738.889,380.556,N
1361,-0.085,0.750,0.270,163.889,47.222,191.667,516.667,222.222,N
1362,-0.095,0.975,0.250,166.667,50.000,191.667,488.889,27.778,N
1363,-0.115,0.870,0.265,163.889,50.000,205.556,502.778,13.889,N
1364,-0.080,0.905,0.285,177.778,63.889,225.000,525.000,22.222,N
1365,-0.090,0.845,0.295,166.667,83.333,241.667,536.111,11.111,N
1366,-0.060,0.795,0.300,194.444,55.556,238.889,558.333,22.222,N
1367,-0.050,0.880,0.305,191.667,58.333,222.222,572.222,13.889,N
1368,-0.090,1.015,0.300,197.222,55.556,227.778,588.889,16.667,N
1369,-0.095,0.960,0.280,180.556,47.222,208.333,561.111,27.778,N
1370,-0.105,0.850,0.270,180.556,52.778,208.333,552.778,8.333,N
1371,-0.100,0.755,0.250,166.667,47.222,202.778,519.444,33.333,N
1372,-0.110,0.815,0.245,169.444,50.000,194.444,516.667,2.778,N
1373,-0.115,0.885,0.245,169.444,50.000,208.333,516.667,0.000,N
1374,-0.110,0.930,0.255,186.111,52.778,205.556,536.111,19.444,N
1375,-0.145,0.855,0.220,177.778,50.000,208.333,525.000,11.111,N
1376,-0.125,0.825,0.255,188.889,55.556,222.222,558.333,33.333,N
1377,0.180,2.390,-0.230,197.222,102.778,297.222,411.111,147.222,V
1378,-0.130,0.780,0.180,186.111,86.111,255.556,702.778,291.667,N
1379,-0.055,0.775,0.290,194.444,55.556,227.778,552.778,150.000,N
1380,-0.085,0.950,0.250,183.333,52.778,194.444,561.111,8.333,N
1381,-0.125,0.915,0.230,177.778,52.778,213.889,527.778,33.333,N
1382,-0.160,0.805,0.205,172.222,77.778,222.222,533.333,5.556,N
1383,-0.155,0.765,0.215,177.778,47.222,191.667,519.444,13.889,N
1384,-0.145,0.565,0.200,158.333,47.222,183.333,511.111,8.333,N
1385,-0.140,0.640,0.225,175.000,52.778,202.778,516.667,5.556,N
1386,-0.145,0.730,0.245,158.333,72.222,219.444,516.667,0.000,N
1387,-0.150,0.860,0.235,186.111,55.556,213.889,511.111,5.556,N
1388,-0.140,0.780,0.190,186.111,55.556,222.222,533.333,22.222,N
1389,-0.185,0.660,0.195,197.222,83.333,272.222,577.778,44.444,N
1390,-0.175,0.715,0.200,177.778,61.111,222.222,580.556,2.778,N
1391,-0.145,0.740,0.220,191.667,58.333,225.000,563.889,16.667,N
1392,-0.180,0.815,0.210,180.556,80.556,222.222,538.889,25.000,N
1393,-0.195,0.885,0.210,177.778,50.000,211.111,500.000,38.889,N
1394,-0.175,0.800,0.235,161.111,58.333,208.333,494.444,5.556,N
1395,-0.135,0.775,0.255,163.889,50.000,194.444,505.556,11.111,N
1396,0.215,2.320,-0.215,197.222,111.111,272.222,388.889,116.667,V
1397,-0.125,0.785,0.185,183.333,86.111,241.667,630.556,241.667,N
1398,-0.125,0.910,0.245,180.556,55.556,222.222,519.444,111.111,N
1399,-0.140,1.010,0.245,194.444,86.111,244.444,563.889,44.444,N
1400,-0.125,0.905,0.250,180.556,80.556,241.667,544.444,19.444,N
1401,-0.135,0.895,0.260,191.667,52.778,208.333,572.222,27.778,N
1402,-0.110,0.850,0.280,183.333,50.000,208.333,550.000,22.222,N
1403,-0.075,0.875,0.285,183.333,55.556,211.111,550.000,0.000,N
1404,-0.090,0.950,0.280,175.000,55.556,219.444,541.667,8.333,N
1405,-0.130,1.010,0.275,175.000,52.778,205.556,527.778,13.889,N
1406,-0.135,0.885,0.225,169.444,50.000,202.778,500.000,27.778,N
1407,-0.155,0.880,0.240,172.222,52.778,205.556,516.667,16.667,N
1408,-0.105,0.875,0.260,169.444,52.778,208.333,516.667,0.000,N
1409,-0.100,0.915,0.250,183.333,50.000,208.333,527.778,11.111,N
1410,-0.105,0.895,0.240,186.111,55.556,222.222,538.889,11.111,N
1411,-0.135,0.855,0.210,180.556,52.778,211.111,558.333,19.444,N
1412,-0.150,0.800,0.215,191.667,58.333,222.222,561.111,2.778,N
1413,-0.135,0.750,0.185,188.889,55.556,238.889,583.333,22.222,N
1414,-0.150,0.690,0.165,197.222,55.556,213.889,588.889,5.556,N
1415,-0.165,0.780,0.175,175.000,55.556,202.778,547.222,41.667,N
1416,-0.165,0.825,0.155,177.778,50.000,197.222,516.667,30.556,N
1417,-0.210,0.735,0.130,166.667,47.222,191.667,502.778,13.889,N
1418,-0.250,0.645,0.095,166.667,50.000,205.556,502.778,0.000,N
1419,-0.280,0.650,0.075,183.333,50.000,208.333,533.333,30.556,N
1420,-0.225,0.570,0.095,191.667,58.333,205.556,558.333,25.000,N
1421,-0.235,0.660,0.120,188.889,58.333,225.000,563.889,5.556,N
1422,-0.255,0.800,0.110,197.222,50.000,222.222,580.556,16.667,N
1423,-0.235,0.775,0.100,175.000,55.556,219.444,555.556,25.000,N
1424,-0.270,0.675,0.085,188.889,52.778,222.222,561.111,5.556,N
1425,-0.265,0.610,0.055,194.444,83.333,244.444,558.333,2.778,N
1426,-0.255,0.615,0.085,169.444,50.000,188.889,558.333,0.000,N
1427,-0.245,0.705,0.115,180.556,52.778,211.111,527.778,30.556,N
1428,-0.260,0.790,0.115,169.444,47.222,197.222,513.889,13.889,N
1429,-0.245,0.800,0.115,180.556,50.000,205.556,522.222,8.333,N
1430,-0.225,0.690,0.130,163.889,50.000,205.556,530.556,8.333,N
1431,-0.230,0.650,0.135,177.778,58.333,222.222,541.667,11.111,N
1432,-0.200,0.595,0.165,180.556,52.778,205.556,544.444,2.778,N
1433,-0.175,0.740,0.195,186.111,52.778,205.556,552.778,8.333,N
1434,-0.170,0.810,0.195,194.444,61.111,238.889,572.222,19.444,N
1435,-0.255,0.815,0.150,188.889,61.111,244.444,611.111,38.889,N
1436,-0.185,0.690,0.165,183.333,52.778,208.333,577.778,33.333,N
1437,-0.185,0.590,0.160,177.778,75.000,222.222,561.111,16.667,N
1438,-0.180,0.590,0.185,166.667,52.778,208.333,508.333,52.778,N
1439,-0.155,0.755,0.225,166.667,47.222,188.889,513.889,5.556,N
1440,-0.135,0.840,0.200,172.222,50.000,202.778,502.778,11.111,N
1441,-0.175,0.735,0.185,169.444,44.444,200.000,519.444,16.667,N
1442,-0.165,0.715,0.170,183.333,52.778,225.000,527.778,8.333,N
1443,-0.185,0.635,0.175,177.778,52.778,213.889,561.111,33.333,N
1444,-0.170,0.630,0.190,197.222,55.556,211.111,594.444,33.333,N
1445,-0.140,0.805,0.225,188.889,77.778,227.778,569.444,25.000,N
1446,-0.150,0.865,0.240,194.444,55.556,222.222,566.667,2.778,N
1447,-0.125,0.885,0.225,180.556,50.000,211.111,538.889,27.778,N
1448,-0.115,0.810,0.250,180.556,52.778,211.111,533.333,5.556,N
1449,-0.105,0.695,0.230,169.444,50.000,205.556,538.889,5.556,N
1450,-0.085,0.650,0.250,172.222,50.000,205.556,533.333,5.556,N
1451,-0.090,0.665,0.270,175.000,47.222,197.222,505.556,27.778,N
1452,-0.120,0.910,0.240,186.111,50.000,200.000,530.556,25.000,N
1453,-0.130,0.830,0.230,166.667,47.222,211.111,505.556,25.000,N
1454,-0.130,0.745,0.230,180.556,52.778,211.111,552.778,47.222,N
1455,-0.110,0.595,0.280,188.889,80.556,258.333,561.111,8.333,N
1456,-0.075,0.615,0.205,163.889,50.000,211.111,569.444,8.333,N
1457,-0.080,2.260,-0.215,61.111,113.889,325.000,450.000,119.444,V
1458,-0.150,0.860,0.180,177.778,58.333,227.778,672.222,222.222,N
1459,-0.125,0.630,0.210,180.556,77.778,222.222,544.444,127.778,N
1460,-0.160,0.690,0.165,166.667,83.333,222.222,505.556,38.889,N
1461,-0.170,0.650,0.175,166.667,50.000,202.778,502.778,2.778,N
1462,-0.210,0.760,0.175,161.111,72.222,222.222,486.111,16.667,N
1463,-0.185,0.770,0.180,166.667,80.556,222.222,477.778,8.333,N
1464,-0.195,0.795,0.190,172.222,52.778,205.556,516.667,38.889,N
1465,-0.190,0.740,0.200,186.111,86.111,258.333,550.000,33.333,N
1466,-0.160,0.735,0.225,186.111,52.778,225.000,563.889,13.889,N
1467,-0.155,0.790,0.255,197.222,63.889,238.889,580.556,16.667,N
1468,-0.150,0.950,0.235,183.333,52.778,208.333,555.556,25.000,N
1469,-0.155,0.965,0.240,197.222,83.333,241.667,544.444,11.111,N
1470,-0.155,0.920,0.250,166.667,83.333,238.889,519.444,25.000,N
1471,-0.140,0.845,0.280,169.444,58.333,208.333,525.000,5.556,N
1472,-0.115,0.805,0.255,175.000,75.000,222.222,500.000,25.000,N
1473,-0.120,0.780,0.240,163.889,50.000,197.222,519.444,19.444,N
1474,-0.120,0.890,0.245,183.333,55.556,211.111,522.222,2.778,N
1475,-0.135,0.955,0.250,169.444,50.000,205.556,536.111,13.889,N
1476,-0.170,0.960,0.205,183.333,55.556,227.778,530.556,5.556,N
1477,-0.195,0.870,0.205,180.556,52.778,222.222,555.556,25.000,N
1478,-0.185,0.750,0.170,180.556,52.778,227.778,558.333,2.778,N
1479,-0.165,0.720,0.165,197.222,83.333,255.556,583.333,25.000,N
1480,-0.190,0.865,0.175,197.222,66.667,238.889,597.222,13.889,N
1481,-0.210,0.795,0.180,177.778,52.778,211.111,569.444,27.778,N
1482,-0.185,0.825,0.180,177.778,52.778,197.222,530.556,38.889,N
1483,-0.190,0.790,0.135,163.889,47.222,180.556,513.889,16.667,N
1484,-0.205,0.665,0.125,166.667,50.000,191.667,505.556,8.333,N
1485,-0.195,0.595,0.130,169.444,55.556,202.778,508.333,2.778,N
1486,-0.190,0.770,0.155,177.778,52.778,191.667,544.444,36.111,N
1487,-0.180,0.805,0.160,180.556,52.778,225.000,513.889,30.556,N
1488,-0.170,0.830,0.145,183.333,55.556,211.111,569.444,55.556,N
1489,-0.215,0.725,0.140,197.222,58.333,241.667,586.111,16.667,N
1490,-0.180,0.645,0.145,180.556,50.000,211.111,591.667,5.556,N
1491,-0.185,0.685,0.165,183.333,52.778,225.000,569.444,22.222,N
1492,-0.150,0.830,0.210,172.222,50.000,205.556,552.778,16.667,N
1493,-0.155,0.835,0.220,166.667,50.000,205.556,516.667,36.111,N
1494,-0.160,0.765,0.205,172.222,52.778,202.778,519.444,2.778,N
1495,-0.150,0.765,0.195,166.667,50.000,208.333,527.778,8.333,N
1496,-0.175,0.630,0.185,166.667,50.000,208.333,530.556,2.778,N
1497,-0.150,0.680,0.215,186.111,52.778,205.556,538.889,8.333,N
1498,-0.105,0.795,0.260,175.000,52.778,202.778,538.889,0.000,N
1499,-0.140,0.915,0.200,186.111,52.778,208.333,541.667,2.778,N
1500,-0.170,0.860,0.185,183.333,55.556,227.778,550.000,8.333,N
1501,-0.200,0.710,0.170,183.333,52.778,208.333,580.556,30.556,N
1502,-0.160,0.675,0.165,186.111,55.556,225.000,555.556,25.000,N
1503,-0.165,0.555,0.175,175.000,55.556,205.556,569.444,13.889,N
1504,-0.165,0.645,0.190,177.778,50.000,194.444,538.889,30.556,N
1505,-0.155,0.875,0.210,172.222,75.000,222.222,513.889,25.000,N
1506,-0.175,0.895,0.185,169.444,52.778,208.333,494.444,19.444,N
1507,-0.190,0.820,0.145,169.444,47.222,194.444,505.556,11.111,N
1508,-0.195,0.650,0.170,169.444,55.556,205.556,513.889,8.333,N
1509,-0.175,0.590,0.190,177.778,58.333,219.444,536.111,22.222,N
1510,-0.140,0.665,0.185,197.222,58.333,233.333,572.222,36.111,N
1511,-0.170,0.835,0.210,197.222,58.333,216.667,583.333,11.111,N
1512,-0.170,0.800,0.275,194.444,55.556,222.222,555.556,27.778,N
1513,-0.270,0.655,0.155,186.111,83.333,252.778,566.667,11.111,N
1514,-0.185,0.620,0.190,180.556,55.556,211.111,544.444,22.222,N
1515,-0.175,0.615,0.200,175.000,55.556,208.333,525.000,19.444,N
1516,-0.130,0.735,0.220,169.444,75.000,225.000,516.667,8.333,N
1517,-0.185,0.785,0.195,163.889,58.333,208.333,483.333,33.333,N
1518,-0.190,0.785,0.210,161.111,77.778,216.667,502.778,19.444,N
1519,-0.160,0.830,0.210,169.444,52.778,208.333,508.333,5.556,N
1520,-0.135,0.795,0.210,183.333,52.778,208.333,547.222,38.889,N
1521,-0.135,0.800,0.200,183.333,83.333,236.111,533.333,13.889,N
1522,-0.180,0.875,0.195,186.111,55.556,197.222,555.556,22.222,N
1523,-0.210,0.960,0.175,172.222,55.556,211.111,530.556,25.000,N
1524,-0.225,0.860,0.135,188.889,52.778,222.222,536.111,5.556,N
1525,0.040,1.770,-0.430,58.333,116.667,305.556,497.222,38.889,V
1526,-0.265,0.590,0.130,180.556,77.778,241.667,625.000,127.778,N
1527,-0.225,0.595,0.160,172.222,58.333,205.556,511.111,113.889,N
1528,-0.225,0.855,0.150,169.444,50.000,202.778,513.889,2.778,N
1529,-0.250,0.795,0.145,163.889,52.778,205.556,480.556,33.333,N
1530,-0.265,0.870,0.150,177.778,80.556,227.778,513.889,33.333,N
1531,-0.210,0.675,0.180,175.000,66.667,225.000,513.889,0.000,N
1532,-0.175,0.670,0.190,172.222,72.222,225.000,544.444,30.556,N
1533,-0.155,0.720,0.200,194.444,58.333,222.222,552.778,8.333,N
1534,-0.175,0.915,0.215,188.889,58.333,225.000,561.111,8.333,N
1535,-0.170,0.890,0.160,197.222,80.556,241.667,575.000,13.889,N
1536,-0.215,0.770,0.145,175.000,58.333,205.556,561.111,13.889,N
1537,-0.210,0.680,0.140,183.333,50.000,205.556,544.444,16.667,N
1538,-0.215,0.625,0.125,172.222,75.000,208.333,522.222,22.222,N
1539,-0.200,0.665,0.150,169.444,69.444,225.000,511.111,11.111,N
1540,-0.205,0.820,0.145,166.667,50.000,205.556,513.889,2.778,N
1541,-0.205,0.745,0.135,180.556,83.333,241.667,530.556,16.667,N
1542,-0.225,0.675,0.115,163.889,50.000,208.333,533.333,2.778,N
1543,-0.230,0.650,0.105,188.889,58.333,222.222,561.111,27.778,N
1544,-0.235,0.640,0.125,175.000,50.000,211.111,555.556,5.556,N
1545,-0.200,0.600,0.125,194.444,58.333,222.222,563.889,8.333,N
1546,-0.200,0.820,0.165,183.333,58.333,227.778,538.889,25.000,N
1547,-0.195,0.810,0.190,180.556,55.556,213.889,561.111,22.222,N
1548,-0.210,0.810,0.135,183.333,50.000,205.556,525.000,36.111,N
1549,-0.225,0.720,0.120,169.444,50.000,202.778,530.556,5.556,N
1550,-0.215,0.590,0.125,169.444,50.000,208.333,516.667,13.889,N
1551,-0.185,0.565,0.115,169.444,72.222,208.333,522.222,5.556,N
1552,-0.230,0.615,0.115,163.889,52.778,200.000,505.556,16.667,N
1553,-0.235,0.755,0.135,172.222,47.222,194.444,516.667,11.111,N
1554,-0.245,0.770,0.125,172.222,50.000,205.556,508.333,8.333,N
1555,-0.250,0.745,0.105,186.111,52.778,227.778,547.222,38.889,N
1556,-0.250,0.625,0.120,194.444,55.556,230.556,580.556,33.333,N
1557,-0.245,0.560,0.110,191.667,58.333,216.667,597.222,16.667,N
1558,-0.210,0.655,0.160,194.444,61.111,219.444,566.667,30.556,N
1559,-0.205,0.850,0.185,180.556,47.222,191.667,550.000,16.667,N
1560,-0.230,0.785,0.095,175.000,52.778,202.778,505.556,44.444,N
1561,-0.315,0.755,0.120,172.222,44.444,194.444,508.333,2.778,N
1562,-0.235,0.530,0.120,175.000,72.222,211.111,513.889,5.556,N
1563,-0.190,0.525,0.135,158.333,75.000,222.222,500.000,13.889,N
1564,-0.220,0.690,0.140,175.000,55.556,202.778,516.667,16.667,N
1565,-0.230,0.735,0.155,175.000,58.333,208.333,516.667,0.000,N
1566,-0.225,0.800,0.150,186.111,52.778,208.333,555.556,38.889,N
1567,-0.160,1.955,-0.300,83.333,116.667,291.667,452.778,102.778,V
1568,-0.200,0.760,0.155,188.889,86.111,252.778,655.556,202.778,N
1569,-0.175,0.760,0.245,183.333,52.778,211.111,544.444,111.111,N
1570,-0.160,1.035,0.230,180.556,58.333,216.667,530.556,13.889,N
1571,-0.175,0.895,0.195,175.000,66.667,227.778,513.889,16.667,N
1572,-0.205,0.955,0.230,194.444,50.000,208.333,519.444,5.556,N
1573,-0.115,0.795,0.265,161.111,50.000,191.667,500.000,19.444,N
1574,-0.135,0.830,0.270,175.000,77.778,241.667,513.889,13.889,N
1575,-0.110,0.745,0.295,172.222,58.333,202.778,513.889,0.000,N
1576,-0.080,1.025,0.320,177.778,52.778,202.778,516.667,2.778,N
1577,-0.085,1.020,0.295,175.000,52.778,216.667,513.889,2.778,N
1578,-0.080,0.910,0.285,177.778,66.667,225.000,555.556,41.667,N
1579,-0.095,0.890,0.265,183.333,83.333,238.889,538.889,16.667,N
1580,-0.155,0.825,0.235,188.889,55.556,219.444,575.000,36.111,N
1581,-0.140,0.850,0.230,188.889,58.333,241.667,563.889,11.111,N
1582,-0.140,1.000,0.275,183.333,52.778,208.333,563.889,0.000,N
1583,-0.150,0.930,0.195,172.222,77.778,227.778,505.556,58.333,N
1584,-0.180,0.755,0.155,172.222,58.333,205.556,513.889,8.333,N
1585,-0.210,0.725,0.160,169.444,69.444,208.333,497.222,16.667,N
1586,-0.185,0.755,0.185,172.222,55.556,208.333,516.667,19.444,N
1587,-0.175,0.820,0.205,183.333,50.000,225.000,547.222,30.556,N
1588,-0.140,0.945,0.180,194.444,52.778,213.889,577.778,30.556,N
1589,-0.185,0.870,0.150,191.667,61.111,227.778,558.333,19.444,N
1590,-0.200,0.790,0.145,194.444,66.667,225.000,588.889,30.556,N
1591,-0.210,0.725,0.135,177.778,55.556,225.000,547.222,41.667,N
1592,-0.195,0.625,0.145,172.222,50.000,202.778,563.889,16.667,N
1593,-0.165,0.745,0.155,183.333,52.778,205.556,547.222,16.667,N
1594,-0.175,0.830,0.165,163.889,50.000,205.556,516.667,30.556,N
1595,-0.190,0.760,0.175,172.222,52.778,202.778,519.444,2.778,N
1596,-0.155,0.755,0.180,166.667,52.778,208.333,513.889,5.556,N
1597,-0.140,0.710,0.195,180.556,47.222,213.889,541.667,27.778,N
1598,-0.110,0.690,0.185,169.444,55.556,202.778,527.778,13.889,N
1599,-0.125,0.835,0.250,186.111,52.778,211.111,558.333,30.556,N
1600,-0.085,0.870,0.250,183.333,50.000,208.333,536.111,22.222,N
1601,-0.080,0.785,0.235,188.889,58.333,222.222,555.556,19.444,N
1602,-0.120,0.830,0.210,191.667,58.333,238.889,583.333,27.778,N
1603,-0.100,0.745,0.205,188.889,58.333,219.444,600.000,16.667,N
1604,-0.080,0.595,0.200,175.000,77.778,241.667,552.778,47.222,N
1605,-0.140,0.590,0.170,166.667,50.000,197.222,538.889,13.889,N
1606,-0.155,0.690,0.195,169.444,50.000,202.778,505.556,33.333,N
1607,-0.180,0.800,0.185,169.444,47.222,197.222,502.778,2.778,N
1608,-0.195,0.810,0.160,177.778,50.000,205.556,508.333,5.556,N
1609,-0.210,0.690,0.165,161.111,44.444,194.444,527.778,19.444,N
1610,-0.190,0.645,0.135,188.889,55.556,225.000,547.222,19.444,N
1611,-0.190,0.565,0.130,188.889,72.222,238.889,566.667,19.444,N
1612,-0.190,0.630,0.190,197.222,55.556,227.778,591.667,25.000,N
1613,-0.165,0.845,0.185,180.556,50.000,211.111,563.889,27.778,N
1614,-0.185,0.870,0.170,188.889,55.556,225.000,561.111,2.778,N
1615,-0.240,0.730,0.130,172.222,52.778,200.000,536.111,25.000,N
1616,-0.230,0.600,0.155,166.667,50.000,205.556,522.222,13.889,N
1617,-0.185,0.575,0.195,169.444,47.222,202.778,522.222,0.000,N
1618,-0.135,0.725,0.235,177.778,50.000,191.667,527.778,5.556,N
1619,0.140,2.310,-0.260,197.222,108.333,294.444,397.222,130.556,V
1620,-0.155,0.925,0.180,186.111,55.556,205.556,658.333,261.111,N
1621,-0.170,0.760,0.205,172.222,50.000,202.778,516.667,141.667,N
1622,-0.165,0.815,0.230,191.667,58.333,225.000,552.778,36.111,N
1623,-0.125,0.630,0.265,191.667,52.778,227.778,555.556,2.778,N
1624,-0.090,0.750,0.290,183.333,50.000,213.889,572.222,16.667,N
1625,-0.050,0.715,0.305,177.778,50.000,225.000,541.667,30.556,N
1626,-0.065,0.865,0.290,177.778,50.000,180.556,547.222,5.556,N
1627,-0.120,0.825,0.315,177.778,50.000,191.667,519.444,27.778,N
1628,-0.110,0.840,0.260,161.111,75.000,222.222,500.000,19.444,N
1629,-0.105,0.770,0.215,166.667,66.667,225.000,488.889,11.111,N
1630,-0.170,0.705,0.220,155.556,55.556,205.556,488.889,0.000,N
1631,-0.170,0.785,0.185,163.889,50.000,188.889,494.444,5.556,N
1632,-0.210,0.905,0.190,172.222,58.333,222.222,505.556,11.111,N
1633,-0.240,0.930,0.200,188.889,55.556,241.667,547.222,41.667,N
1634,-0.160,0.870,0.240,188.889,58.333,222.222,569.444,22.222,N
1635,-0.095,0.895,0.285,183.333,55.556,227.778,558.333,11.111,N
1636,-0.085,0.875,0.290,194.444,83.333,227.778,580.556,22.222,N
1637,-0.080,0.925,0.305,180.556,58.333,205.556,530.556,50.000,N
1638,-0.080,1.065,0.315,177.778,77.778,225.000,516.667,13.889,N
1639,-0.110,1.100,0.270,172.222,50.000,191.667,505.556,11.111,N
1640,-0.120,0.950,0.275,166.667,63.889,205.556,494.444,11.111,N
1641,-0.100,0.880,0.275,175.000,77.778,225.000,513.889,19.444,N
1642,-0.095,0.875,0.275,180.556,83.333,241.667,522.222,8.333,N
1643,-0.090,0.900,0.265,186.111,52.778,208.333,555.556,33.333,N
1644,-0.095,2.065,-0.215,58.333,113.889,308.333,463.889,91.667,V
1645,-0.135,1.000,0.325,194.444,58.333,225.000,638.889,175.000,N
1646,-0.095,0.935,0.255,183.333,55.556,211.111,544.444,94.444,N
1647,-0.115,0.910,0.250,194.444,63.889,225.000,561.111,16.667,N
1648,-0.105,0.840,0.245,191.667,61.111,241.667,580.556,19.444,N
1649,-0.100,0.800,0.295,177.778,77.778,225.000,566.667,13.889,N
1650,-0.080,0.995,0.295,172.222,55.556,205.556,513.889,52.778,N
1651,-0.080,0.980,0.270,166.667,47.222,188.889,508.333,5.556,N
1652,-0.100,0.875,0.290,163.889,50.000,202.778,488.889,19.444,N
1653,-0.095,0.880,0.255,172.222,50.000,200.000,516.667,27.778,N
1654,-0.075,0.830,0.275,180.556,52.778,225.000,527.778,11.111,N
1655,-0.070,0.800,0.255,172.222,58.333,225.000,541.667,13.889,N
1656,-0.070,0.875,0.320,197.222,52.778,225.000,575.000,33.333,N
1657,-0.065,1.010,0.305,197.222,86.111,261.111,563.889,11.111,N
1658,-0.095,0.980,0.250,188.889,61.111,230.556,591.667,27.778,N
1659,-0.110,0.920,0.240,175.000,61.111,225.000,552.778,38.889,N
1660,-0.105,0.825,0.250,180.556,50.000,205.556,555.556,2.778,N
1661,-0.080,0.775,0.260,166.667,47.222,188.889,516.667,38.889,N
1662,0.035,2.185,-0.170,197.222,111.111,300.000,408.333,108.333,V
1663,-0.095,0.950,0.260,183.333,52.778,211.111,630.556,222.222,N
1664,-0.090,0.915,0.305,183.333,58.333,208.333,536.111,94.444,N
1665,-0.095,0.960,0.280,180.556,86.111,258.333,527.778,8.333,N
1666,-0.080,0.790,0.265,188.889,55.556,219.444,575.000,47.222,N
1667,-0.080,0.775,0.270,191.667,61.111,225.000,550.000,25.000,N
1668,-0.055,0.730,0.285,183.333,50.000,208.333,572.222,22.222,N
1669,-0.090,0.910,0.280,194.444,61.111,225.000,577.778,5.556,N
1670,-0.100,0.995,0.270,183.333,52.778,225.000,541.667,36.111,N
1671,-0.110,0.945,0.265,183.333,52.778,208.333,547.222,5.556,N
1672,-0.105,0.850,0.230,172.222,52.778,208.333,522.222,25.000,N
1673,-0.115,0.775,0.225,172.222,52.778,205.556,533.333,11.111,N
1674,-0.115,0.640,0.245,172.222,55.556,202.778,502.778,30.556,N
1675,-0.100,0.730,0.260,180.556,47.222,194.444,536.111,33.333,N
1676,-0.105,0.945,0.295,175.000,58.333,211.111,513.889,22.222,N
1677,-0.100,0.980,0.265,188.889,55.556,219.444,533.333,19.444,N
1678,-0.080,0.915,0.245,197.222,80.556,255.556,572.222,38.889,N
1679,-0.145,0.815,0.275,197.222,55.556,236.111,622.222,50.000,N
1680,-0.075,0.670,0.255,194.444,58.333,222.222,588.889,33.333,N
1681,-0.125,0.720,0.200,188.889,58.333,225.000,577.778,11.111,N
1682,-0.130,0.765,0.250,169.444,69.444,225.000,516.667,61.111,N
1683,-0.140,0.905,0.285,180.556,47.222,191.667,508.333,8.333,N
1684,-0.115,0.885,0.295,172.222,52.778,197.222,497.222,11.111,N
1685,-0.080,0.880,0.300,161.111,50.000,208.333,488.889,8.333,N
1686,-0.065,0.770,1.885,183.333,55.556,369.444,522.222,33.333,N
1687,0.290,1.815,0.050,155.556,113.889,261.111,338.889,183.333,V
1688,-0.090,0.895,0.220,188.889,61.111,227.778,761.111,422.222,N
1689,-0.070,0.995,0.285,183.333,52.778,225.000,544.444,216.667,N
1690,-0.115,1.050,0.265,197.222,55.556,225.000,569.444,25.000,N
1691,-0.125,0.910,0.255,188.889,52.778,219.444,552.778,16.667,N
1692,-0.130,0.785,0.205,186.111,55.556,216.667,552.778,0.000,N
1693,-0.145,0.675,0.195,183.333,52.778,205.556,558.333,5.556,N
1694,-0.115,0.685,0.255,175.000,47.222,197.222,541.667,16.667,N
1695,-0.110,0.925,0.270,166.667,50.000,191.667,505.556,36.111,N
1696,-0.110,0.980,0.260,172.222,50.000,202.778,508.333,2.778,N
1697,-0.140,0.915,0.235,163.889,52.778,205.556,497.222,11.111,N
1698,-0.140,0.880,0.225,169.444,47.222,191.667,530.556,33.333,N
1699,-0.140,0.735,0.210,188.889,63.889,238.889,541.667,11.111,N
1700,-0.130,0.755,0.235,172.222,50.000,219.444,561.111,19.444,N
1701,-0.115,0.950,0.265,194.444,61.111,219.444,572.222,11.111,N
1702,-0.105,0.960,0.240,191.667,61.111,238.889,566.667,5.556,N
1703,-0.180,0.880,0.195,197.222,55.556,219.444,600.000,33.333,N
1704,-0.165,0.755,0.180,180.556,83.333,241.667,555.556,44.444,N
1705,-0.165,0.695,0.150,169.444,50.000,191.667,536.111,19.444,N
1706,-0.170,0.665,0.155,163.889,44.444,194.444,511.111,25.000,N
1707,-0.205,0.850,0.165,172.222,50.000,205.556,505.556,5.556,N
1708,-0.215,0.785,0.165,188.889,50.000,213.889,522.222,16.667,N
1709,-0.205,0.845,0.155,183.333,52.778,208.333,558.333,36.111,N
1710,-0.070,2.270,-0.345,58.333,105.556,308.333,433.333,125.000,V
1711,-0.225,0.675,0.095,188.889,55.556,227.778,705.556,272.222,N
1712,-0.165,0.615,0.185,188.889,52.778,213.889,555.556,150.000,N
1713,-0.215,0.890,0.165,188.889,55.556,219.444,563.889,8.333,N
1714,-0.235,0.840,0.135,183.333,55.556,211.111,558.333,5.556,N
1715,-0.270,0.730,0.110,163.889,47.222,194.444,544.444,13.889,N
1716,-0.270,0.635,0.085,175.000,50.000,208.333,536.111,8.333,N
1717,-0.260,0.550,0.075,169.444,50.000,200.000,525.000,11.111,N
1718,-0.250,0.570,0.105,169.444,50.000,202.778,530.556,5.556,N
1719,-0.235,0.840,0.150,169.444,50.000,191.667,513.889,16.667,N
1720,-0.215,0.735,0.135,175.000,55.556,205.556,522.222,8.333,N
1721,-0.220,0.800,0.145,186.111,52.778,208.333,530.556,8.333,N
1722,-0.200,0.680,0.175,191.667,75.000,236.111,552.778,22.222,N
1723,-0.185,0.680,0.185,188.889,58.333,225.000,583.333,30.556,N
1724,-0.150,0.665,0.235,194.444,55.556,233.333,602.778,19.444,N
1725,-0.115,0.945,0.270,186.111,55.556,225.000,561.111,41.667,N
1726,-0.130,0.890,0.225,180.556,50.000,194.444,558.333,2.778,N
1727,-0.145,0.890,0.235,169.444,50.000,202.778,508.333,50.000,N
1728,-0.105,0.595,0.245,172.222,52.778,202.778,516.667,8.333,N
1729,-0.085,0.690,0.280,163.889,50.000,208.333,508.333,8.333,N
1730,-0.105,0.655,0.275,166.667,47.222,188.889,502.778,5.556,N
1731,-0.120,0.815,0.290,183.333,52.778,208.333,516.667,13.889,N
1732,-0.115,0.830,0.260,175.000,58.333,225.000,525.000,8.333,N
1733,-0.125,0.875,0.245,197.222,55.556,230.556,558.333,33.333,N
1734,-0.100,0.780,0.235,180.556,83.333,238.889,547.222,11.111,N
1735,-0.090,0.850,0.235,186.111,55.556,225.000,558.333,11.111,N
1736,-0.150,0.755,0.225,183.333,50.000,205.556,544.444,13.889,N
1737,-0.160,0.835,0.310,166.667,52.778,191.667,516.667,27.778,N
1738,-0.105,1.120,0.315,177.778,80.556,225.000,513.889,2.778,N
1739,-0.080,1.115,0.295,177.778,52.778,197.222,502.778,11.111,N
1740,-0.100,0.995,0.290,166.667,50.000,194.444,500.000,2.778,N
1741,-0.115,0.975,0.280,172.222,55.556,219.444,505.556,5.556,N
1742,-0.105,0.820,0.285,163.889,44.444,188.889,522.222,16.667,N
1743,-0.080,0.840,0.260,177.778,77.778,238.889,516.667,5.556,N
1744,-0.090,0.960,0.335,172.222,52.778,222.222,527.778,11.111,N
1745,-0.075,1.065,0.320,188.889,55.556,211.111,563.889,36.111,N
1746,-0.080,1.015,0.340,175.000,61.111,225.000,536.111,27.778,N
1747,-0.030,0.990,0.350,191.667,58.333,222.222,583.333,47.222,N
1748,0.010,0.945,0.370,194.444,61.111,219.444,569.444,13.889,N
1749,0.015,0.890,0.390,183.333,47.222,188.889,555.556,13.889,N
1750,0.005,1.045,0.365,166.667,52.778,194.444,516.667,38.889,N
1751,-0.030,0.990,0.365,172.222,44.444,180.556,505.556,11.111,N
1752,-0.040,0.945,0.330,169.444,52.778,202.778,500.000,5.556,N
1753,-0.045,0.885,0.310,175.000,50.000,213.889,519.444,19.444,N
1754,-0.050,0.855,0.260,183.333,52.778,225.000,555.556,36.111,N
1755,-0.085,0.840,0.285,186.111,55.556,211.111,586.111,30.556,N
1756,-0.070,1.010,0.310,197.222,58.333,227.778,569.444,16.667,N
1757,-0.055,0.940,0.295,191.667,83.333,227.778,575.000,5.556,N
1758,-0.065,0.915,0.260,191.667,55.556,222.222,558.333,16.667,N
1759,-0.080,0.800,0.245,177.778,47.222,208.333,558.333,0.000,N
1760,-0.085,0.695,0.220,180.556,50.000,197.222,550.000,8.333,N
1761,-0.100,0.700,0.250,163.889,47.222,191.667,516.667,33.333,N
1762,-0.065,0.895,0.260,172.222,50.000,202.778,525.000,8.333,N
1763,-0.105,0.875,0.235,177.778,50.000,191.667,508.333,16.667,N
1764,-0.145,0.875,0.210,172.222,52.778,208.333,541.667,33.333,N
1765,-0.120,0.755,0.200,172.222,75.000,225.000,519.444,22.222,N
1766,-0.125,0.660,0.210,186.111,50.000,208.333,561.111,41.667,N
1767,-0.110,0.670,0.215,183.333,50.000,225.000,547.222,13.889,N
1768,-0.100,0.865,0.240,183.333,52.778,211.111,563.889,16.667,N
1769,-0.135,0.930,0.225,197.222,52.778,225.000,569.444,5.556,N
1770,-0.135,0.880,0.235,197.222,52.778,211.111,583.333,13.889,N
1771,-0.130,0.780,0.215,172.222,52.778,222.222,536.111,47.222,N
1772,-0.090,0.640,0.220,169.444,47.222,200.000,533.333,2.778,N
1773,-0.095,0.675,0.270,172.222,44.444,194.444,505.556,27.778,N
1774,-0.090,0.750,0.280,169.444,47.222,186.111,511.111,5.556,N
1775,-0.055,1.010,0.310,183.333,50.000,205.556,513.889,2.778,N
1776,-0.110,0.875,0.265,169.444,75.000,241.667,505.556,8.333,N
1777,-0.110,0.810,0.220,183.333,52.778,225.000,541.667,36.111,N
1778,-0.140,0.610,0.210,180.556,52.778,230.556,561.111,19.444,N
1779,-0.135,0.610,0.190,191.667,63.889,244.444,586.111,25.000,N
1780,-0.135,0.725,0.185,186.111,75.000,227.778,558.333,27.778,N
1781,-0.185,0.820,0.195,186.111,52.778,208.333,547.222,11.111,N
1782,-0.190,0.795,0.200,166.667,50.000,205.556,516.667,30.556,N
1783,-0.165,0.740,0.170,158.333,52.778,191.667,500.000,16.667,N
1784,-0.200,0.735,0.210,163.889,80.556,222.222,511.111,11.111,N
1785,-0.045,0.725,0.255,166.667,52.778,211.111,519.444,8.333,N
1786,-0.080,0.795,0.300,169.444,47.222,191.667,519.444,0.000,N
1787,-0.065,0.905,0.235,180.556,55.556,200.000,527.778,8.333,N
1788,-0.145,0.830,0.205,169.444,50.000,200.000,525.000,2.778,N
1789,-0.120,0.870,0.260,188.889,58.333,225.000,533.333,8.333,N
1790,-0.070,0.840,0.275,183.333,69.444,241.667,544.444,11.111,N
1791,-0.065,0.850,0.290,180.556,63.889,222.222,563.889,19.444,N
1792,-0.075,0.895,0.270,177.778,75.000,222.222,530.556,33.333,N
1793,-0.100,0.885,0.260,175.000,55.556,205.556,544.444,13.889,N
1794,-0.135,0.920,0.235,172.222,66.667,222.222,511.111,33.333,N
1795,-0.155,0.900,0.180,166.667,52.778,194.444,516.667,5.556,N
1796,-0.250,0.745,0.100,155.556,83.333,238.889,488.889,27.778,N
1797,-0.260,0.910,0.170,169.444,66.667,211.111,505.556,16.667,N
1798,-0.150,0.795,0.360,152.778,47.222,205.556,491.667,13.889,N
1799,-0.220,0.920,0.175,177.778,80.556,222.222,511.111,19.444,N
1800,-0.205,0.905,0.135,188.889,77.778,225.000,544.444,33.333,N
1801,-0.235,0.680,0.095,197.222,72.222,241.667,591.667,47.222,N
1802,-0.240,0.740,0.080,194.444,80.556,244.444,577.778,13.889,N
1803,0.080,0.710,0.270,191.667,91.667,255.556,383.333,194.444,V
1804,-0.310,0.630,-0.085,97.222,86.111,258.333,719.444,336.111,N
1805,-0.320,0.560,-0.105,166.667,80.556,219.444,516.667,202.778,N
1806,-0.445,0.380,-0.140,166.667,55.556,205.556,505.556,11.111,N
1807,-0.400,0.480,0.005,163.889,47.222,191.667,511.111,5.556,N
1808,-0.350,0.850,0.095,169.444,55.556,194.444,488.889,22.222,N
1809,-0.250,0.875,0.175,169.444,52.778,200.000,505.556,16.667,N
1810,-0.185,0.895,0.175,180.556,52.778,225.000,508.333,2.778,N
1811,-0.220,0.895,0.195,194.444,63.889,202.778,547.222,38.889,N
1812,-0.145,0.965,0.225,183.333,61.111,225.000,525.000,22.222,N
1813,-0.145,0.860,0.210,194.444,58.333,213.889,558.333,33.333,N
1814,-0.140,0.695,0.165,175.000,63.889,222.222,530.556,27.778,N
1815,-0.180,0.635,0.235,183.333,52.778,219.444,552.778,22.222,N
1816,0.065,0.690,0.270,183.333,69.444,247.222,547.222,5.556,N
1817,-0.040,0.830,0.270,172.222,75.000,216.667,513.889,33.333,N
1818,-0.025,0.785,0.195,161.111,80.556,219.444,483.333,30.556,N
1819,-0.050,1.695,-0.315,58.333,116.667,363.889,413.889,69.444,V
1820,-0.190,0.625,0.190,152.778,69.444,213.889,558.333,144.444,N
1821,-0.130,0.840,0.295,172.222,55.556,205.556,505.556,52.778,N
1822,-0.045,1.005,0.315,186.111,52.778,227.778,508.333,2.778,N
1823,-0.035,0.860,0.315,47.222,63.889,213.889,513.889,5.556,N
1824,0.030,0.975,0.340,188.889,66.667,247.222,530.556,16.667,N
1825,-0.095,0.825,0.260,172.222,77.778,225.000,552.778,22.222,N
1826,-0.055,0.830,0.270,175.000,77.778,236.111,580.556,27.778,N
1827,0.090,0.900,0.340,177.778,66.667,219.444,552.778,27.778,N
1828,-0.005,1.050,0.310,180.556,52.778,205.556,511.111,41.667,N
1829,-0.025,1.045,0.390,163.889,66.667,216.667,494.444,16.667,N
1830,-0.030,0.850,0.275,163.889,86.111,225.000,486.111,8.333,N
1831,-0.150,0.740,0.170,175.000,55.556,186.111,505.556,19.444,N
1832,-0.200,0.900,0.170,183.333,69.444,225.000,525.000,19.444,N
1833,0.055,1.970,-0.220,197.222,102.778,350.000,408.333,116.667,V
1834,-0.240,0.835,0.120,166.667,83.333,258.333,655.556,247.222,N
1835,-0.080,0.685,0.245,180.556,66.667,219.444,552.778,102.778,N
1836,-0.130,0.805,0.180,180.556,83.333,241.667,547.222,5.556,N
1837,-0.180,0.840,0.190,183.333,63.889,225.000,538.889,8.333,N
1838,-0.160,0.790,0.190,188.889,61.111,208.333,555.556,16.667,N
1839,-0.165,0.680,0.185,180.556,72.222,202.778,519.444,36.111,N
1840,-0.225,0.670,0.125,152.778,55.556,216.667,525.000,5.556,N
1841,-0.205,0.690,0.235,169.444,55.556,222.222,502.778,22.222,N
1842,-0.170,0.710,0.245,169.444,66.667,211.111,505.556,2.778,N
1843,-0.145,0.840,0.235,163.889,50.000,208.333,488.889,16.667,N
1844,-0.155,0.725,0.190,175.000,72.222,225.000,522.222,33.333,N
1845,-0.195,0.660,0.135,172.222,72.222,225.000,516.667,5.556,N
1846,-0.225,0.730,0.090,172.222,55.556,219.444,533.333,16.667,N
1847,0.280,1.775,-0.315,58.333,116.667,405.556,550.000,16.667,V
1848,-0.025,1.840,-0.295,58.333,116.667,377.778,425.000,125.000,V
1849,-0.175,0.655,0.065,169.444,77.778,258.333,761.111,336.111,N
1850,-0.135,0.725,0.235,94.444,52.778,194.444,561.111,200.000,N
1851,-0.070,0.805,0.250,163.889,47.222,186.111,508.333,52.778,N
1852,-0.030,0.805,0.345,147.222,77.778,213.889,502.778,5.556,N
1853,-0.060,0.855,0.275,66.667,83.333,222.222,502.778,0.000,N
1854,-0.050,0.630,0.205,166.667,80.556,216.667,502.778,0.000,N
1855,-0.105,0.625,0.225,183.333,50.000,219.444,522.222,19.444,N
1856,-0.090,0.800,0.255,138.889,86.111,258.333,536.111,13.889,N
1857,-0.050,0.790,0.305,197.222,55.556,216.667,572.222,36.111,N
1858,-0.115,0.790,0.220,188.889,52.778,213.889,572.222,0.000,N
1859,-0.125,0.735,0.210,175.000,61.111,222.222,572.222,0.000,N
1860,-0.120,0.745,0.210,177.778,75.000,216.667,550.000,22.222,N
1861,-0.120,0.775,0.255,183.333,86.111,236.111,533.333,16.667,N
1862,0.180,1.380,-0.090,177.778,116.667,263.889,383.333,150.000,V
1863,-0.055,0.770,0.190,169.444,55.556,208.333,675.000,291.667,N
1864,-0.015,0.695,0.365,158.333,50.000,202.778,505.556,169.444,N
1865,-0.065,0.760,0.335,197.222,83.333,247.222,519.444,13.889,N
1866,-0.055,0.825,0.300,163.889,44.444,175.000,502.778,16.667,N
1867,-0.055,0.905,0.305,191.667,69.444,208.333,522.222,19.444,N
1868,-0.055,0.800,0.310,183.333,58.333,194.444,533.333,11.111,N
1869,-0.030,0.725,0.255,191.667,77.778,227.778,572.222,38.889,N
1870,-0.045,0.635,0.235,191.667,52.778,236.111,550.000,22.222,N
1871,-0.060,0.585,0.265,172.222,77.778,241.667,583.333,33.333,N
1872,-0.095,0.705,0.235,183.333,80.556,255.556,575.000,8.333,N
1873,-0.115,0.895,0.235,163.889,80.556,222.222,530.556,44.444,N
1874,-0.125,0.865,0.230,180.556,52.778,211.111,500.000,30.556,N
1875,-0.075,0.810,0.240,158.333,75.000,211.111,494.444,5.556,N
1876,-0.155,0.760,0.220,169.444,47.222,205.556,497.222,2.778,N
1877,-0.130,0.735,0.270,180.556,50.000,208.333,525.000,27.778,N
1878,-0.120,0.635,0.245,191.667,83.333,247.222,563.889,38.889,N
1879,-0.145,0.650,0.195,177.778,52.778,194.444,566.667,2.778,N
1880,-0.115,0.870,0.260,197.222,63.889,219.444,586.111,19.444,N
1881,-0.130,0.945,0.285,188.889,55.556,200.000,580.556,5.556,N
1882,-0.125,0.880,0.255,197.222,52.778,225.000,555.556,25.000,N
1883,-0.130,0.860,0.215,177.778,86.111,233.333,538.889,16.667,N
1884,-0.100,0.685,0.250,177.778,50.000,194.444,538.889,0.000,N
1885,-0.105,0.615,0.225,169.444,52.778,208.333,508.333,30.556,N
1886,-0.080,0.585,0.170,172.222,44.444,188.889,522.222,13.889,N
1887,-0.145,0.805,0.245,180.556,66.667,230.556,505.556,16.667,N
1888,-0.130,0.885,0.295,166.667,52.778,194.444,516.667,11.111,N
1889,-0.095,0.835,0.230,180.556,80.556,247.222,513.889,2.778,N
1890,-0.170,0.635,0.180,183.333,55.556,225.000,541.667,27.778,N
1891,-0.155,0.505,0.115,180.556,61.111,247.222,544.444,2.778,N
1892,-0.225,0.590,0.235,191.667,80.556,255.556,563.889,19.444,N
1893,-0.170,0.790,0.240,50.000,69.444,247.222,580.556,16.667,N
1894,-0.130,0.945,0.255,191.667,58.333,213.889,566.667,13.889,N
1895,0.055,0.610,0.365,197.222,97.222,105.556,419.444,147.222,V
1896,-0.110,1.700,-0.220,58.333,116.667,400.000,436.111,16.667,V
1897,-0.180,0.610,0.180,161.111,63.889,211.111,672.222,236.111,N
