id,Pamp,Ramp,Tamp,PR,QRS,QT,RRI,dRRI,label
1,-0.205,0.545,0.030,122.222,86.111,291.667,930.556,116.667,N
2,-0.285,0.445,0.085,86.111,77.778,294.444,847.222,83.333,N
3,-0.235,0.475,-0.015,91.667,77.778,275.000,791.667,55.556,N
4,-0.325,0.485,0.030,63.889,91.667,272.222,788.889,2.778,N
5,-0.295,0.385,0.110,75.000,83.333,241.667,800.000,11.111,N
6,-0.275,0.535,0.085,88.889,83.333,280.556,766.667,33.333,N
7,-0.330,0.380,0.025,69.444,86.111,241.667,816.667,50.000,N
8,-0.410,0.425,-0.050,86.111,86.111,283.333,836.111,19.444,N
9,-0.290,0.570,0.085,72.222,105.556,280.556,855.556,19.444,N
10,-0.350,0.420,0.075,86.111,83.333,258.333,811.111,44.444,N
11,-0.320,0.430,0.060,80.556,72.222,261.111,811.111,0.000,N
12,-0.275,0.545,0.080,83.333,83.333,266.667,802.778,8.333,N
13,-0.230,0.530,0.155,72.222,63.889,261.111,741.667,61.111,N
14,-0.270,0.490,0.055,77.778,69.444,277.778,772.222,30.556,N
15,-0.130,-0.130,0.385,61.111,105.556,316.667,516.667,255.556,|
16,-0.120,0.300,0.125,75.000,111.111,327.778,277.778,238.889,N
17,-0.020,0.640,0.150,91.667,108.333,347.222,933.333,655.556,N
18,0.150,0.295,-0.145,169.444,86.111,238.889,461.111,472.222,|
19,-0.220,0.460,0.240,102.778,105.556,283.333,486.111,25.000,N
20,0.015,0.050,0.550,175.000,105.556,155.556,736.111,250.000,|
21,0.210,0.435,0.280,94.444,75.000,269.444,102.778,633.333,N
22,0.090,2.415,-0.140,58.333,113.889,377.778,594.444,491.667,V
23,-0.110,0.630,0.260,63.889,63.889,258.333,933.333,338.889,N
24,-0.045,2.290,-0.420,188.889,116.667,405.556,522.222,411.111,V
25,-0.170,0.550,0.240,63.889,77.778,305.556,1038.889,516.667,N
26,0.155,2.315,-0.460,58.333,116.667,405.556,605.556,433.333,V
27,-0.305,0.370,-0.010,105.556,86.111,263.889,1138.889,533.333,N
28,-0.240,2.215,-0.415,58.333,116.667,402.778,558.333,580.556,V
29,-0.270,0.480,0.130,58.333,63.889,269.444,1022.222,463.889,N
30,-0.130,2.495,-0.325,188.889,113.889,400.000,522.222,500.000,V
31,-0.265,0.440,0.130,77.778,72.222,294.444,969.444,447.222,N
32,-0.075,2.535,-0.165,197.222,105.556,405.556,552.778,416.667,V
33,0.065,0.770,0.265,69.444,100.000,244.444,1038.889,486.111,N
34,0.000,2.465,-0.425,58.333,116.667,402.778,572.222,466.667,V
35,0.170,0.990,0.485,63.889,83.333,258.333,1077.778,505.556,N
36,0.080,2.480,-0.340,197.222,116.667,402.778,577.778,500.000,V
37,-0.230,0.570,0.290,66.667,72.222,288.889,972.222,394.444,N
38,0.240,2.655,-0.225,58.333,111.111,402.778,522.222,450.000,V
39,-0.185,0.640,0.320,75.000,69.444,255.556,986.111,463.889,N
40,0.135,2.505,-0.260,175.000,116.667,400.000,536.111,450.000,V
41,-0.055,0.635,0.260,58.333,77.778,305.556,1066.667,530.556,N
42,0.375,2.570,-0.280,58.333,111.111,397.222,600.000,466.667,V
43,-0.125,0.505,0.285,102.778,86.111,333.333,1144.444,544.444,N
44,-0.170,0.470,0.150,77.778,91.667,263.889,858.333,286.111,N
45,-0.190,0.515,0.200,63.889,77.778,283.333,830.556,27.778,N
46,-0.245,0.425,0.090,58.333,77.778,275.000,763.889,66.667,N
47,-0.105,0.685,0.190,80.556,83.333,316.667,797.222,33.333,N
48,-0.170,0.640,0.320,80.556,88.889,333.333,894.444,97.222,N
49,-0.065,0.735,0.185,77.778,100.000,333.333,947.222,52.778,N
50,-0.130,0.630,0.280,83.333,91.667,322.222,919.444,27.778,N
51,-0.130,0.685,0.205,75.000,83.333,277.778,913.889,5.556,N
52,-0.075,0.765,0.300,69.444,97.222,286.111,813.889,100.000,N
53,-0.170,0.560,0.220,69.444,77.778,269.444,763.889,50.000,N
54,-0.105,0.685,0.405,133.333,80.556,297.222,805.556,41.667,N
55,0.735,-0.260,0.405,133.333,2.778,116.667,136.111,669.444,|
56,0.405,0.055,0.035,16.667,50.000,58.333,130.556,5.556,|
57,-0.050,0.800,0.425,75.000,88.889,188.889,700.000,569.444,N
58,0.820,0.120,0.355,144.444,91.667,236.111,150.000,550.000,|
59,0.175,-0.265,0.065,197.222,2.778,177.778,422.222,272.222,|
60,0.065,-0.430,0.645,88.889,0.000,202.778,263.889,158.333,|
61,-0.005,0.600,0.310,86.111,100.000,313.889,205.556,58.333,N
62,0.040,0.860,0.335,86.111,80.556,283.333,958.333,752.778,N
63,0.240,0.560,0.565,197.222,86.111,369.444,483.333,475.000,|
64,0.035,-0.370,0.565,197.222,100.000,144.444,219.444,263.889,|
65,0.120,0.565,0.075,116.667,72.222,280.556,102.778,116.667,N
66,-0.250,0.495,0.000,61.111,72.222,266.667,780.556,677.778,N
67,-0.390,0.385,-0.020,72.222,80.556,291.667,794.444,13.889,N
68,-0.335,0.465,-0.005,83.333,108.333,302.778,877.778,83.333,N
69,-0.295,0.450,0.070,97.222,116.667,397.222,1016.667,138.889,N
70,0.015,-1.570,0.240,63.889,0.000,336.111,911.111,105.556,V
71,-0.300,0.445,0.015,86.111,86.111,308.333,1208.333,297.222,N
72,-0.235,0.590,0.170,77.778,100.000,269.444,786.111,422.222,N
73,-0.205,0.545,0.180,66.667,72.222,305.556,794.444,8.333,N
74,-0.095,0.310,0.470,197.222,97.222,394.444,580.556,213.889,V
75,0.430,2.575,-0.515,58.333,116.667,161.111,705.556,125.000,V
76,-0.100,0.630,0.295,125.000,86.111,361.111,1644.444,938.889,N
77,-0.135,0.495,0.130,91.667,86.111,325.000,1036.111,608.333,N
78,-0.260,0.425,0.085,69.444,91.667,291.667,877.778,158.333,N
79,-0.180,0.625,0.195,111.111,75.000,286.111,752.778,125.000,N
80,-0.215,0.605,0.245,58.333,69.444,225.000,802.778,50.000,N
81,-0.250,0.400,0.120,69.444,94.444,283.333,858.333,55.556,N
82,-0.195,0.540,0.230,136.111,83.333,308.333,888.889,30.556,N
83,-0.230,0.165,0.480,58.333,100.000,369.444,647.222,241.667,V
84,-0.140,0.615,0.150,133.333,91.667,308.333,1177.778,530.556,N
85,-0.225,0.545,0.205,83.333,83.333,283.333,883.333,294.444,N
86,-0.160,0.595,0.085,75.000,94.444,269.444,805.556,77.778,N
87,-0.110,2.360,-0.200,58.333,116.667,405.556,511.111,294.444,V
88,-0.310,0.465,0.155,80.556,63.889,291.667,1100.000,588.889,N
89,-0.135,0.130,0.330,197.222,97.222,325.000,572.222,527.778,V
90,-0.325,0.425,0.015,69.444,100.000,275.000,1200.000,627.778,N
91,-0.255,0.550,0.195,83.333,83.333,322.222,863.889,336.111,N
92,-0.285,0.525,0.035,69.444,80.556,269.444,869.444,5.556,N
93,-0.295,0.415,0.025,100.000,69.444,258.333,797.222,72.222,N
94,-0.310,0.440,0.110,66.667,72.222,263.889,783.333,13.889,N
95,-0.320,0.405,0.065,66.667,72.222,261.111,783.333,0.000,N
96,-0.230,0.480,0.125,83.333,88.889,325.000,838.889,55.556,N
97,-0.300,0.410,0.080,91.667,100.000,325.000,936.111,97.222,N
98,-0.265,0.435,0.025,77.778,83.333,275.000,922.222,13.889,N
99,-0.375,0.355,-0.005,72.222,80.556,275.000,927.778,5.556,N
100,-0.310,0.425,0.005,63.889,72.222,247.222,775.000,152.778,N
101,-0.395,0.350,-0.030,69.444,69.444,294.444,783.333,8.333,N
102,-0.385,0.310,-0.090,58.333,75.000,269.444,791.667,8.333,N
103,-0.425,0.390,-0.010,86.111,83.333,302.778,830.556,38.889,N
104,-0.385,0.285,-0.065,69.444,83.333,258.333,883.333,52.778,N
105,-0.390,0.360,0.065,69.444,72.222,291.667,847.222,36.111,N
106,-0.225,0.195,0.380,191.667,88.889,325.000,591.667,255.556,V
107,-0.090,0.735,0.450,63.889,63.889,238.889,1041.667,450.000,N
108,-0.045,0.670,0.260,197.222,75.000,302.778,797.222,244.444,N
109,0.100,0.750,0.295,69.444,80.556,172.222,819.444,22.222,N
110,-0.345,0.450,0.085,108.333,75.000,280.556,830.556,11.111,N
111,-0.195,0.590,0.070,94.444,97.222,322.222,847.222,16.667,N
112,-0.310,0.560,0.115,55.556,80.556,311.111,841.667,5.556,N
113,-0.140,2.430,-0.315,188.889,116.667,405.556,569.444,272.222,V
114,-0.290,0.475,0.170,61.111,66.667,275.000,1077.778,508.333,N
115,-0.125,0.135,0.295,197.222,83.333,291.667,508.333,569.444,V
116,-0.330,0.470,0.095,72.222,66.667,250.000,1052.778,544.444,N
117,-0.300,0.460,-0.030,80.556,69.444,261.111,808.333,244.444,N
118,-0.400,0.400,0.055,63.889,75.000,297.222,830.556,22.222,N
119,0.175,2.215,-0.510,58.333,116.667,405.556,555.556,275.000,V
120,-0.165,-0.590,-0.235,13.889,0.000,125.000,744.444,188.889,|
121,-0.335,0.270,0.050,77.778,94.444,305.556,469.444,275.000,N
122,0.235,2.245,-0.425,58.333,108.333,405.556,602.778,133.333,V
123,-0.185,-0.240,0.360,191.667,97.222,283.333,847.222,244.444,|
124,-0.345,0.360,0.030,72.222,69.444,252.778,227.778,619.444,N
125,-0.190,2.070,-0.235,191.667,108.333,400.000,519.444,291.667,V
126,-0.215,0.445,0.000,75.000,77.778,300.000,1063.889,544.444,N
127,0.115,2.075,-0.590,58.333,116.667,402.778,580.556,483.333,V
128,-0.325,0.345,-0.005,100.000,94.444,338.889,1213.889,633.333,N
129,0.105,2.045,-0.590,58.333,113.889,402.778,686.111,527.778,V
130,-0.325,0.170,0.160,83.333,86.111,333.333,1150.000,463.889,N
131,0.160,-0.275,2.105,25.000,22.222,269.444,308.333,841.667,|
132,-0.170,2.075,-0.390,122.222,116.667,397.222,266.667,41.667,V
133,-0.350,0.345,0.020,94.444,86.111,305.556,1050.000,783.333,N
134,0.265,2.160,-0.650,58.333,116.667,402.778,647.222,402.778,V
135,-0.195,0.495,0.080,80.556,113.889,338.889,1291.667,644.444,N
136,0.770,0.765,-0.400,50.000,91.667,369.444,730.556,561.111,V
137,-0.170,0.510,0.130,86.111,97.222,291.667,1238.889,508.333,N
138,0.200,2.285,-0.360,58.333,116.667,405.556,586.111,652.778,V
139,-0.220,0.470,0.155,80.556,97.222,277.778,1025.000,438.889,N
140,-0.120,1.160,0.570,172.222,105.556,105.556,558.333,466.667,V
141,-0.270,0.365,0.115,102.778,105.556,391.667,1297.222,738.889,N
142,0.890,2.160,-0.595,58.333,113.889,386.111,752.778,544.444,V
143,-0.275,-0.025,-0.005,63.889,94.444,161.111,541.667,211.111,|
144,0.025,-0.095,-0.145,141.667,88.889,161.111,136.111,405.556,|
145,-0.255,0.380,0.165,75.000,72.222,300.000,597.222,461.111,N
146,0.495,0.680,-0.385,63.889,91.667,175.000,663.889,66.667,V
147,-0.130,0.690,0.165,122.222,88.889,313.889,1141.667,477.778,N
148,-0.185,0.390,0.155,91.667,86.111,358.333,961.111,180.556,N
149,-0.155,0.560,0.145,130.556,116.667,397.222,1205.556,244.444,N
150,-0.205,0.445,0.055,172.222,77.778,361.111,1141.667,63.889,N
151,-0.275,0.420,0.055,119.444,108.333,330.556,980.556,161.111,N
152,-0.290,0.450,-0.025,83.333,100.000,275.000,894.444,86.111,N
153,-0.285,0.420,0.025,83.333,97.222,316.667,847.222,47.222,N
154,-0.255,0.370,0.095,100.000,83.333,366.667,872.222,25.000,N
155,-0.240,0.485,0.055,100.000,111.111,372.222,1036.111,163.889,N
156,-0.220,0.520,0.070,94.444,108.333,330.556,1088.889,52.778,N
157,-0.295,0.490,0.040,80.556,66.667,272.222,941.667,147.222,N
158,-0.335,0.365,-0.025,83.333,100.000,308.333,850.000,91.667,N
159,-0.325,0.375,-0.035,72.222,100.000,316.667,841.667,8.333,N
160,-0.380,0.310,-0.020,91.667,88.889,308.333,883.333,41.667,N
161,-0.355,0.430,0.030,80.556,105.556,283.333,891.667,8.333,N
162,-0.100,0.650,0.305,105.556,100.000,352.778,955.556,63.889,N
163,0.015,1.695,0.545,194.444,111.111,111.111,675.000,280.556,V
164,-0.220,0.570,0.175,94.444,94.444,333.333,1183.333,508.333,N
165,-0.015,2.340,-0.285,58.333,111.111,405.556,577.778,605.556,V
166,-0.020,0.740,0.275,69.444,72.222,272.222,1033.333,455.556,N
167,0.245,-1.245,0.515,58.333,2.778,241.667,641.667,391.667,V
168,-0.040,0.720,0.005,108.333,88.889,277.778,1047.222,405.556,N
169,0.425,0.470,-0.045,125.000,94.444,319.444,866.667,180.556,N
170,-0.355,0.220,-0.080,80.556,86.111,288.889,919.444,52.778,N
171,-0.375,0.355,0.015,72.222,69.444,288.889,891.667,27.778,N
172,-0.290,0.560,0.070,63.889,72.222,261.111,830.556,61.111,N
173,-0.270,0.675,0.135,52.778,80.556,247.222,752.778,77.778,N
174,-0.195,0.615,0.115,66.667,97.222,286.111,791.667,38.889,N
175,-0.175,0.590,0.200,63.889,77.778,263.889,830.556,38.889,N
176,-0.035,0.730,0.355,63.889,86.111,325.000,825.000,5.556,N
177,0.065,0.815,0.520,141.667,88.889,319.444,900.000,75.000,N
178,0.390,1.205,0.610,83.333,80.556,244.444,886.111,13.889,N
179,0.150,0.915,0.765,72.222,80.556,300.000,836.111,50.000,N
180,0.010,0.590,0.135,188.889,77.778,233.333,752.778,83.333,N
181,0.105,1.985,-0.335,58.333,113.889,400.000,550.000,202.778,V
182,-0.230,0.425,0.090,77.778,83.333,294.444,1100.000,550.000,N
183,-0.045,2.135,-0.400,58.333,113.889,405.556,580.556,519.444,V
184,-0.050,0.585,0.385,72.222,88.889,297.222,1180.556,600.000,N
185,0.415,2.460,-0.210,58.333,116.667,405.556,569.444,611.111,V
186,-0.090,0.545,0.245,97.222,80.556,288.889,1125.000,555.556,N
187,-0.225,0.430,0.290,69.444,94.444,230.556,791.667,333.333,N
188,-0.185,0.470,0.115,63.889,72.222,280.556,794.444,2.778,N
189,0.400,2.005,-0.455,58.333,116.667,405.556,625.000,169.444,V
190,-0.200,0.545,0.215,66.667,88.889,286.111,1155.556,530.556,N
191,-0.220,0.435,0.070,94.444,94.444,283.333,900.000,255.556,N
192,-0.165,0.470,0.040,72.222,80.556,288.889,844.444,55.556,N
193,-0.290,0.405,0.030,63.889,86.111,302.778,866.667,22.222,N
194,-0.270,0.335,0.065,102.778,80.556,261.111,847.222,19.444,N
195,0.150,1.985,-0.395,58.333,116.667,405.556,572.222,275.000,V
196,-0.305,0.355,0.075,58.333,77.778,300.000,994.444,422.222,N
197,-0.190,0.375,-0.025,66.667,91.667,236.111,783.333,211.111,N
198,-0.210,0.465,0.035,75.000,80.556,275.000,802.778,19.444,N
199,-0.130,0.540,0.360,77.778,83.333,305.556,805.556,2.778,N
200,0.340,2.445,0.070,58.333,108.333,397.222,619.444,186.111,V
201,0.975,1.655,2.655,61.111,-161591.667,-131469.444,1000.000,380.556,N
202,0.585,1.345,1.405,72.222,77.778,286.111,744.444,255.556,N
203,0.825,0.760,0.010,197.222,97.222,97.222,741.667,2.778,N
204,-0.410,1.340,-0.155,58.333,116.667,-163627.778,563.889,177.778,V
205,-0.725,-0.010,-0.305,94.444,111.111,311.111,1116.667,552.778,N
206,-0.420,0.410,0.315,66.667,108.333,300.000,922.222,194.444,N
207,-0.010,0.725,0.415,77.778,102.778,288.889,911.111,11.111,N
208,0.030,0.715,0.355,69.444,75.000,233.333,808.333,102.778,N
209,-0.215,0.410,-0.025,83.333,66.667,255.556,766.667,41.667,N
210,-0.190,2.050,0.920,97.222,116.667,397.222,530.556,236.111,V
211,-0.135,0.395,-0.075,191.667,100.000,294.444,1025.000,494.444,N
212,-0.060,1.645,-0.125,58.333,116.667,405.556,613.889,411.111,V
213,-0.520,0.010,-0.375,119.444,88.889,283.333,1250.000,636.111,N
214,-0.490,0.260,0.210,94.444,83.333,294.444,941.667,308.333,N
215,-0.060,0.565,0.875,83.333,72.222,388.889,836.111,105.556,N
216,-0.155,1.505,2.655,174180.556,0.000,30122.222,772.222,63.889,N
217,0.885,1.235,0.955,66.667,100.000,102.778,797.222,25.000,N
218,-0.485,-0.105,-0.335,186.111,94.444,363.889,855.556,58.333,N
219,-0.155,-0.495,-0.155,176872.222,108.333,-176819.444,1038.889,183.333,N
220,-0.155,-1.025,-0.380,177788.889,77.778,388.889,916.667,122.222,N
221,-0.260,-0.110,-0.890,194.444,100.000,105.556,897.222,19.444,N
222,-0.155,-0.540,-0.420,179541.667,69.444,316.667,855.556,41.667,N
223,-0.420,-0.830,-0.355,25.000,5.556,305.556,302.778,552.778,|
224,-0.465,0.485,-0.055,197.222,83.333,258.333,502.778,200.000,N
225,-0.595,0.060,-0.290,77.778,102.778,341.667,827.778,325.000,N
226,-0.245,0.540,0.005,80.556,100.000,341.667,969.444,141.667,N
227,0.580,2.005,-0.495,58.333,116.667,116.667,816.667,152.778,V
228,0.015,0.685,0.125,86.111,97.222,277.778,1111.111,294.444,N
229,-0.075,0.580,0.355,97.222,80.556,322.222,927.778,183.333,N
230,-0.045,0.700,0.285,83.333,83.333,277.778,886.111,41.667,N
231,-0.230,0.390,0.085,105.556,97.222,280.556,819.444,66.667,N
232,0.520,1.265,0.510,80.556,105.556,111.111,877.778,58.333,N
233,-0.240,0.480,0.080,100.000,97.222,336.111,947.222,69.444,N
234,0.055,0.780,0.215,80.556,113.889,341.667,1000.000,52.778,N
235,-0.280,0.385,0.125,75.000,83.333,336.111,872.222,127.778,N
236,-0.115,0.815,0.355,55.556,72.222,122.222,883.333,11.111,N
237,0.060,0.565,0.460,122.222,72.222,172.222,825.000,58.333,N
238,-0.015,0.705,0.235,72.222,97.222,286.111,791.667,33.333,N
239,-0.100,0.120,0.420,63.889,97.222,358.333,583.333,208.333,V
240,-0.160,0.520,0.130,116.667,86.111,316.667,1130.556,547.222,N
241,-0.200,0.565,0.110,83.333,113.889,327.778,969.444,161.111,N
242,-0.215,0.380,0.145,75.000,88.889,308.333,941.667,27.778,N
243,-0.060,0.595,0.235,66.667,80.556,288.889,858.333,83.333,N
244,-0.295,0.380,0.010,66.667,100.000,241.667,766.667,91.667,N
245,-0.250,0.405,0.115,77.778,94.444,227.778,769.444,2.778,N
246,-0.160,0.505,0.370,69.444,86.111,258.333,838.889,69.444,N
247,0.395,0.915,0.345,108.333,83.333,255.556,822.222,16.667,N
248,0.380,1.890,-0.155,58.333,113.889,405.556,738.889,83.333,V
249,-0.410,0.245,-0.165,91.667,83.333,327.778,1108.333,369.444,N
250,-0.490,0.265,-0.200,86.111,88.889,261.111,841.667,266.667,N
251,-0.505,0.190,-0.160,61.111,91.667,247.222,775.000,66.667,N
252,-0.480,0.255,-0.190,63.889,94.444,258.333,755.556,19.444,N
253,-0.495,0.175,-0.220,83.333,94.444,338.889,836.111,80.556,N
254,-0.260,0.500,0.135,72.222,86.111,313.889,888.889,52.778,N
255,-0.115,0.595,0.340,86.111,94.444,369.444,983.333,94.444,N
256,0.340,-0.950,0.410,61.111,16.667,255.556,727.778,255.556,V
257,-0.290,0.375,-0.085,88.889,91.667,269.444,1061.111,333.333,N
258,-0.420,0.250,-0.195,63.889,77.778,236.111,786.111,275.000,N
259,-0.530,0.190,-0.125,83.333,75.000,272.222,777.778,8.333,N
260,-0.380,0.375,0.125,80.556,83.333,297.222,816.667,38.889,N
261,-0.220,0.500,0.150,122.222,88.889,313.889,933.333,116.667,N
262,0.015,0.715,0.455,77.778,102.778,308.333,952.778,19.444,N
263,0.335,1.015,0.730,86.111,108.333,286.111,908.333,44.444,N
264,0.010,0.750,0.505,75.000,91.667,244.444,844.444,63.889,N
265,0.110,0.420,0.465,194.444,69.444,255.556,830.556,13.889,N
266,0.475,2.420,0.095,58.333,113.889,402.778,547.222,283.333,V
267,-0.060,0.490,0.125,188.889,80.556,291.667,1050.000,502.778,N
268,0.310,2.230,-0.065,58.333,116.667,405.556,558.333,491.667,V
269,-0.170,0.390,-0.035,108.333,91.667,288.889,1141.667,583.333,N
270,-0.350,0.295,0.115,94.444,83.333,325.000,858.333,283.333,N
271,-0.100,0.645,0.395,72.222,80.556,288.889,841.667,16.667,N
272,0.045,1.415,-0.040,191.667,108.333,108.333,536.111,305.556,V
273,-0.175,-1.085,0.480,197.222,5.556,213.889,958.333,422.222,N
274,-0.485,0.405,0.300,66.667,86.111,238.889,802.778,155.556,N
275,-0.270,0.410,0.015,83.333,80.556,266.667,788.889,13.889,N
276,-0.205,0.480,0.355,94.444,86.111,297.222,886.111,97.222,N
277,-0.325,0.305,-0.005,86.111,86.111,313.889,963.889,77.778,N
278,-0.070,0.495,0.330,75.000,100.000,275.000,936.111,27.778,N
279,-0.295,0.360,0.005,72.222,80.556,272.222,780.556,155.556,N
280,-0.120,0.485,0.250,72.222,91.667,233.333,733.333,47.222,N
281,0.075,1.905,-0.440,58.333,116.667,397.222,541.667,191.667,V
282,-0.310,0.235,0.185,86.111,94.444,322.222,1083.333,541.667,N
283,0.090,1.910,-0.605,58.333,116.667,116.667,613.889,469.444,V
284,-0.190,0.455,0.160,86.111,100.000,338.889,1241.667,627.778,N
285,-0.290,0.180,-0.120,102.778,100.000,311.111,952.778,288.889,N
286,-0.265,0.230,0.020,72.222,97.222,236.111,802.778,150.000,N
287,0.110,0.650,0.065,91.667,72.222,83.333,750.000,52.778,N
288,-0.360,0.205,0.040,88.889,91.667,272.222,863.889,113.889,N
289,0.245,-1.235,0.285,61.111,0.000,258.333,638.889,225.000,V
290,-0.165,0.570,0.455,75.000,88.889,283.333,1208.333,569.444,N
291,0.180,0.600,0.270,61.111,86.111,227.778,866.667,341.667,N
292,-0.440,0.210,0.160,97.222,91.667,308.333,897.222,30.556,N
293,-0.150,0.325,0.035,100.000,94.444,275.000,772.222,125.000,N
294,-0.115,0.310,0.490,91.667,72.222,266.667,752.778,19.444,N
295,0.900,1.295,0.935,94.444,105.556,252.778,816.667,63.889,N
296,0.120,0.500,0.405,80.556,66.667,247.222,852.778,36.111,N
297,-0.225,0.270,-0.115,88.889,113.889,313.889,950.000,97.222,N
298,-0.735,-0.245,-0.425,147.222,97.222,294.444,925.000,25.000,N
299,-0.625,-0.170,-0.220,86.111,113.889,405.556,1002.778,77.778,N
300,-0.440,-0.070,-0.075,91.667,100.000,261.111,988.889,13.889,N
301,-0.305,0.120,0.005,69.444,86.111,277.778,844.444,144.444,N
302,-0.315,0.085,-0.110,72.222,80.556,338.889,852.778,8.333,N
303,-0.265,0.160,0.055,86.111,116.667,311.111,927.778,75.000,N
304,-0.240,0.300,0.010,102.778,97.222,294.444,983.333,55.556,N
305,-0.200,0.350,0.145,86.111,111.111,313.889,952.778,30.556,N
306,0.070,-1.140,0.410,63.889,5.556,288.889,777.778,175.000,V
307,-0.095,0.485,0.185,125.000,83.333,302.778,1180.556,402.778,N
308,-0.100,0.570,0.280,58.333,75.000,261.111,850.000,330.556,N
309,-0.045,0.540,0.180,69.444,88.889,294.444,861.111,11.111,N
310,-0.090,0.595,0.215,130.556,94.444,311.111,927.778,66.667,N
311,-0.115,0.440,0.195,86.111,105.556,327.778,991.667,63.889,N
312,-0.060,0.590,0.190,102.778,97.222,347.222,930.556,61.111,N
313,-0.125,0.510,0.085,69.444,97.222,297.222,911.111,19.444,N
314,-0.225,0.530,0.055,61.111,100.000,247.222,816.667,94.444,N
315,-0.160,0.620,0.200,77.778,100.000,272.222,819.444,2.778,N
316,-0.185,0.580,0.170,94.444,102.778,280.556,811.111,8.333,N
317,-0.055,0.695,0.215,75.000,77.778,269.444,858.333,47.222,N
318,-0.165,0.545,0.390,116.667,75.000,288.889,886.111,27.778,N
319,-0.065,0.575,0.215,58.333,97.222,294.444,833.333,52.778,N
320,-0.130,0.615,0.215,77.778,77.778,252.778,802.778,30.556,N
321,-0.185,0.680,0.165,66.667,100.000,300.000,791.667,11.111,N
322,-0.155,0.600,0.150,119.444,105.556,291.667,825.000,33.333,N
323,-0.120,0.170,0.605,63.889,91.667,347.222,608.333,216.667,V
324,-0.110,0.675,0.170,86.111,88.889,308.333,1150.000,541.667,N
325,-0.095,0.650,0.180,102.778,83.333,294.444,852.778,297.222,N
326,-0.220,0.640,0.205,77.778,83.333,291.667,808.333,44.444,N
327,-0.225,0.595,0.120,180.556,69.444,277.778,794.444,13.889,N
328,-0.385,0.350,-0.015,105.556,77.778,272.222,811.111,16.667,N
329,-0.235,0.455,0.110,72.222,86.111,313.889,808.333,2.778,N
330,-0.285,0.790,0.280,69.444,108.333,300.000,830.556,22.222,N
331,-0.135,0.715,0.150,100.000,100.000,313.889,894.444,63.889,N
332,-0.130,0.675,0.135,77.778,75.000,300.000,830.556,63.889,N
333,-0.190,0.660,0.175,94.444,69.444,294.444,836.111,5.556,N
334,-0.190,0.620,0.135,80.556,66.667,277.778,836.111,0.000,N
335,-0.125,0.735,0.180,91.667,91.667,305.556,811.111,25.000,N
336,0.035,-1.850,0.280,47.222,5.556,233.333,575.000,236.111,V
337,-0.290,0.255,0.035,63.889,91.667,327.778,1016.667,441.667,N
338,0.090,1.760,-0.325,58.333,108.333,375.000,672.222,344.444,V
339,-0.040,0.585,0.235,130.556,83.333,211.111,1100.000,427.778,N
340,0.000,0.530,0.165,86.111,75.000,225.000,877.778,222.222,N
341,0.100,0.460,0.280,97.222,86.111,250.000,861.111,16.667,N
342,-0.300,0.400,0.110,69.444,69.444,333.333,775.000,86.111,N
343,-0.045,0.550,0.230,58.333,69.444,258.333,769.444,5.556,N
344,-0.080,0.735,0.320,94.444,100.000,247.222,775.000,5.556,N
345,0.145,0.925,0.510,86.111,80.556,302.778,852.778,77.778,N
346,0.085,0.840,0.390,66.667,105.556,336.111,858.333,5.556,N
347,0.005,0.850,0.350,108.333,91.667,258.333,880.556,22.222,N
348,-0.040,0.755,0.250,75.000,86.111,275.000,805.556,75.000,N
349,-0.115,0.700,0.230,75.000,97.222,283.333,769.444,36.111,N
350,-0.020,0.675,0.275,77.778,75.000,300.000,761.111,8.333,N
351,-0.165,0.670,0.160,122.222,77.778,311.111,794.444,33.333,N
352,-0.065,0.600,0.205,86.111,113.889,283.333,880.556,86.111,N
353,-0.025,0.470,0.435,58.333,111.111,297.222,647.222,233.333,|
354,-0.020,0.405,-0.275,197.222,88.889,191.667,241.667,405.556,N
355,-0.360,0.440,0.065,75.000,75.000,283.333,838.889,597.222,N
356,0.015,0.860,0.455,80.556,97.222,280.556,802.778,36.111,N
357,0.180,2.345,-0.015,58.333,113.889,400.000,563.889,238.889,V
358,0.320,1.110,0.890,83.333,102.778,277.778,1091.667,527.778,N
359,0.640,0.905,0.200,197.222,72.222,91.667,852.778,238.889,N
360,-0.510,0.180,-0.060,77.778,100.000,302.778,827.778,25.000,N
361,-0.080,0.380,-0.220,186.111,102.778,211.111,905.556,77.778,N
362,-0.660,-0.050,-0.065,69.444,69.444,241.667,866.667,38.889,N
363,0.330,-0.720,1.175,61.111,2.778,222.222,541.667,325.000,V
364,-0.520,0.155,0.365,75.000,83.333,325.000,1122.222,580.556,N
365,0.275,0.750,0.110,172.222,75.000,86.111,805.556,316.667,N
366,-0.495,0.190,-0.330,119.444,88.889,277.778,838.889,33.333,N
367,-0.465,0.115,-0.060,83.333,80.556,308.333,805.556,33.333,N
368,-0.280,0.385,0.105,105.556,91.667,305.556,886.111,80.556,N
369,-0.160,0.505,0.595,72.222,83.333,308.333,891.667,5.556,N
370,0.310,2.255,0.040,58.333,116.667,402.778,602.778,288.889,V
371,-0.010,0.600,0.290,197.222,75.000,252.778,1038.889,436.111,N
372,-0.020,2.200,-0.065,175.000,111.111,402.778,516.667,522.222,V
373,-0.145,0.520,0.100,77.778,97.222,225.000,1055.556,538.889,N
374,-0.430,0.195,0.175,105.556,75.000,269.444,830.556,225.000,N
375,0.105,-0.190,-0.160,197.222,66.667,361.111,202.778,627.778,|
376,0.120,0.960,0.610,83.333,80.556,261.111,677.778,475.000,N
377,0.495,0.285,0.120,194.444,63.889,177.778,491.667,186.111,|
378,0.325,-0.140,0.570,175.000,52.778,277.778,177.778,313.889,|
379,-0.125,0.570,0.335,147.222,97.222,308.333,277.778,100.000,N
380,-0.110,0.560,0.095,133.333,100.000,261.111,869.444,591.667,N
381,-0.395,0.270,0.075,75.000,77.778,252.778,819.444,50.000,N
382,-0.065,0.715,0.355,66.667,80.556,269.444,725.000,94.444,N
383,-0.085,0.505,0.275,102.778,69.444,327.778,788.889,63.889,N
384,0.035,0.770,0.690,77.778,83.333,297.222,905.556,116.667,N
385,0.285,0.970,1.500,66.667,94.444,341.667,855.556,50.000,N
386,1.250,1.455,0.810,191.667,97.222,138.889,858.333,2.778,N
387,0.435,1.125,1.250,83.333,88.889,300.000,830.556,27.778,N
388,0.960,1.210,0.920,197.222,105.556,163.889,813.889,16.667,N
389,0.425,0.795,0.435,91.667,83.333,130.556,730.556,83.333,N
390,-0.480,-0.075,-0.675,197.222,97.222,133.333,758.333,27.778,N
391,-0.155,-0.735,-0.155,319619.444,83.333,-319569.444,872.222,113.889,N
392,-0.155,-0.645,-0.975,320516.667,77.778,288.889,897.222,25.000,N
393,-0.945,-0.045,-0.350,61.111,72.222,258.333,875.000,22.222,N
394,-0.585,-0.205,-0.255,100.000,86.111,272.222,825.000,50.000,N
395,-0.195,0.245,0.315,58.333,116.667,369.444,525.000,300.000,|
396,-0.605,0.305,0.370,80.556,91.667,250.000,313.889,211.111,N
397,-0.030,0.040,0.030,58.333,69.444,122.222,216.667,97.222,|
398,-0.265,0.535,-0.045,75.000,66.667,280.556,600.000,383.333,N
399,-0.005,0.815,0.240,69.444,86.111,294.444,772.222,172.222,N
400,-0.080,0.660,0.275,72.222,72.222,277.778,772.222,0.000,N
401,0.120,0.750,0.345,91.667,77.778,300.000,852.778,80.556,N
402,-0.170,0.525,0.205,194.444,105.556,255.556,850.000,2.778,N
403,0.015,0.845,0.310,197.222,86.111,277.778,805.556,44.444,N
404,0.055,-1.065,0.315,52.778,0.000,261.111,538.889,266.667,V
405,-0.090,0.640,0.120,58.333,83.333,261.111,1125.000,586.111,N
406,-0.040,0.680,0.335,69.444,66.667,252.778,741.667,383.333,N
407,0.135,0.765,0.325,97.222,97.222,272.222,730.556,11.111,N
408,0.150,0.785,0.335,77.778,108.333,280.556,775.000,44.444,N
409,0.130,0.865,0.455,163.889,91.667,311.111,902.778,127.778,N
410,-0.060,0.600,0.500,194.444,94.444,333.333,577.778,325.000,|
411,-0.065,0.500,0.205,197.222,72.222,311.111,275.000,302.778,N
412,-0.215,0.410,0.070,83.333,72.222,291.667,852.778,577.778,N
413,-0.090,0.795,0.175,66.667,61.111,283.333,769.444,83.333,N
414,-0.090,0.665,0.240,83.333,80.556,269.444,733.333,36.111,N
415,0.020,0.850,0.305,50.000,80.556,263.889,747.222,13.889,N
416,0.035,0.715,0.300,80.556,77.778,247.222,758.333,11.111,N
417,-0.020,0.685,0.260,61.111,97.222,383.333,836.111,77.778,N
418,-0.080,0.540,0.195,100.000,77.778,275.000,944.444,108.333,N
419,-0.120,0.560,0.180,88.889,105.556,300.000,880.556,63.889,N
420,-0.165,0.575,0.325,66.667,88.889,283.333,819.444,61.111,N
421,-0.100,0.555,0.245,52.778,75.000,269.444,783.333,36.111,N
422,0.040,0.750,0.260,75.000,75.000,258.333,775.000,8.333,N
423,0.060,1.980,-0.320,58.333,108.333,380.556,566.667,208.333,V
424,-0.015,0.630,0.215,80.556,75.000,277.778,1052.778,486.111,N
425,0.375,2.240,-0.185,58.333,111.111,400.000,613.889,438.889,V
426,-0.040,0.595,0.290,72.222,86.111,302.778,1091.667,477.778,N
427,0.010,2.040,-0.125,100.000,108.333,400.000,594.444,497.222,V
428,-0.035,0.550,0.120,94.444,63.889,252.778,1027.778,433.333,N
429,-0.160,1.935,-0.365,194.444,111.111,397.222,530.556,497.222,V
430,-0.245,0.200,-0.090,88.889,80.556,272.222,1000.000,469.444,N
431,-0.330,1.750,-0.455,58.333,116.667,375.000,552.778,447.222,V
432,-0.365,0.310,-0.120,80.556,97.222,308.333,1072.222,519.444,N
433,-0.170,1.830,-0.545,58.333,108.333,405.556,600.000,472.222,V
434,-0.235,0.340,0.290,88.889,91.667,341.667,1163.889,563.889,N
435,0.160,2.270,0.045,58.333,113.889,388.889,594.444,569.444,V
436,0.305,1.005,0.640,83.333,72.222,280.556,1013.889,419.444,N
437,0.395,2.555,0.295,197.222,111.111,386.111,525.000,488.889,V
438,0.380,1.035,0.580,100.000,97.222,272.222,1063.889,538.889,N
439,0.545,2.380,-0.200,58.333,116.667,383.333,594.444,469.444,V
440,0.085,0.730,0.320,83.333,111.111,372.222,1472.222,877.778,N
441,0.300,2.125,-0.210,58.333,108.333,380.556,700.000,772.222,V
442,0.010,0.670,0.280,105.556,80.556,291.667,1152.778,452.778,N
443,-0.040,1.995,-0.235,175.000,105.556,394.444,552.778,600.000,V
444,-0.230,0.330,0.165,63.889,88.889,277.778,1038.889,486.111,N
445,0.705,1.940,-0.660,58.333,116.667,125.000,716.667,322.222,V
446,-0.230,0.450,0.110,119.444,97.222,358.333,1622.222,905.556,N
447,0.155,1.960,-0.400,58.333,111.111,397.222,813.889,808.333,V
448,-0.165,0.420,0.035,100.000,72.222,286.111,1188.889,375.000,N
449,-0.150,2.015,-0.330,158.333,102.778,388.889,530.556,658.333,V
450,-0.215,0.370,0.045,69.444,100.000,308.333,1013.889,483.333,N
451,0.040,2.025,-0.500,58.333,116.667,405.556,569.444,444.444,V
452,-0.170,0.430,0.195,72.222,75.000,297.222,1255.556,686.111,N
453,0.505,2.010,-0.490,58.333,116.667,116.667,691.667,563.889,V
454,-0.120,0.495,0.155,77.778,80.556,308.333,1361.111,669.444,N
455,0.040,2.030,-0.315,58.333,116.667,405.556,622.222,738.889,V
456,-0.155,0.435,0.085,102.778,97.222,238.889,1152.778,530.556,N
457,0.165,2.035,-0.300,58.333,116.667,402.778,575.000,577.778,V
458,-0.170,0.480,0.185,63.889,86.111,255.556,1152.778,577.778,N
459,0.240,1.985,-0.465,58.333,116.667,388.889,652.778,500.000,V
460,-0.110,0.430,0.145,102.778,116.667,361.111,1375.000,722.222,N
461,0.235,1.950,-0.475,58.333,116.667,405.556,672.222,702.778,V
462,-0.135,0.535,0.140,111.111,69.444,308.333,1130.556,458.333,N
463,-0.135,1.975,-0.225,183.333,102.778,405.556,550.000,580.556,V
464,-0.085,0.465,0.195,72.222,75.000,302.778,1077.778,527.778,N
465,0.070,1.970,-0.230,58.333,102.778,391.667,605.556,472.222,V
466,-0.050,0.590,0.210,105.556,102.778,366.667,1144.444,538.889,N
467,0.685,1.900,-0.355,58.333,116.667,116.667,716.667,427.778,V
468,0.005,0.445,0.285,77.778,105.556,263.889,1316.667,600.000,N
469,0.060,1.960,-0.100,191.667,105.556,402.778,572.222,744.444,V
470,-0.045,0.505,0.310,75.000,86.111,263.889,1030.556,458.333,N
471,0.075,1.835,-0.145,58.333,116.667,394.444,555.556,475.000,V
472,-0.070,0.595,0.175,83.333,77.778,288.889,1108.333,552.778,N
473,-0.060,2.010,-0.310,58.333,116.667,405.556,591.667,516.667,V
474,-0.075,0.560,0.190,72.222,100.000,308.333,1258.333,666.667,N
475,-0.030,1.995,-0.225,58.333,113.889,405.556,602.778,655.556,V
476,-0.050,0.480,0.200,58.333,80.556,255.556,1036.111,433.333,N
477,-0.025,1.830,-0.250,58.333,116.667,405.556,538.889,497.222,V
478,-0.060,0.645,0.275,61.111,97.222,272.222,1111.111,572.222,N
479,0.155,2.105,-0.335,58.333,116.667,405.556,594.444,516.667,V
480,-0.065,0.685,0.240,66.667,88.889,297.222,1163.889,569.444,N
481,0.080,1.950,-0.310,58.333,116.667,400.000,611.111,552.778,V
482,-0.170,0.530,0.100,80.556,72.222,258.333,1155.556,544.444,N
483,-0.105,2.055,-0.220,58.333,116.667,394.444,550.000,605.556,V
484,-0.215,0.450,0.110,100.000,83.333,288.889,1033.333,483.333,N
485,0.255,2.155,-0.270,58.333,116.667,394.444,597.222,436.111,V
486,-0.195,0.460,0.110,83.333,69.444,291.667,1155.556,558.333,N
487,-0.080,2.120,-0.150,58.333,108.333,402.778,588.889,566.667,V
488,-0.290,0.355,0.025,69.444,86.111,333.333,1111.111,522.222,N
489,0.200,1.970,-0.355,58.333,116.667,394.444,661.111,450.000,V
490,-0.285,0.350,-0.025,69.444,88.889,288.889,1105.556,444.444,N
491,-0.265,2.020,-0.185,197.222,116.667,380.556,550.000,555.556,V
492,-0.245,0.395,-0.005,80.556,86.111,325.000,1047.222,497.222,N
493,0.030,2.030,-0.240,58.333,113.889,405.556,616.667,430.556,V
494,-0.190,0.480,0.000,75.000,100.000,311.111,1113.889,497.222,N
495,-0.120,1.900,-0.370,58.333,116.667,405.556,588.889,525.000,V
496,-0.015,0.610,0.105,105.556,100.000,263.889,1188.889,600.000,N
497,-0.170,1.925,-0.320,150.000,116.667,405.556,561.111,627.778,V
498,-0.020,0.675,0.140,58.333,77.778,233.333,1011.111,450.000,N
499,-0.175,1.790,-0.430,191.667,116.667,402.778,552.778,458.333,V
500,-0.100,0.395,0.125,75.000,94.444,302.778,1130.556,577.778,N
501,0.100,1.540,-0.410,58.333,116.667,405.556,647.222,483.333,V
502,-0.215,0.505,0.190,72.222,100.000,308.333,1063.889,416.667,N
503,-0.120,1.985,-0.400,197.222,116.667,400.000,605.556,458.333,V
504,-0.275,0.425,0.135,66.667,66.667,258.333,1077.778,472.222,N
505,-0.135,2.020,-0.340,58.333,116.667,391.667,544.444,533.333,V
506,-0.280,0.395,0.105,61.111,77.778,316.667,1027.778,483.333,N
507,0.065,2.035,-0.210,58.333,113.889,405.556,611.111,416.667,V
508,-0.260,0.475,0.090,69.444,83.333,311.111,1100.000,488.889,N
509,-0.095,2.090,-0.325,58.333,113.889,405.556,583.333,516.667,V
510,-0.290,0.425,0.050,83.333,94.444,319.444,1144.444,561.111,N
511,0.195,2.115,-0.265,58.333,116.667,405.556,655.556,488.889,V
512,-0.155,0.475,0.085,77.778,80.556,286.111,1105.556,450.000,N
513,-0.175,2.195,-0.225,186.111,116.667,405.556,575.000,530.556,V
514,0.015,0.720,0.140,66.667,105.556,313.889,1097.222,522.222,N
515,0.205,2.170,-0.390,58.333,116.667,405.556,619.444,477.778,V
516,-0.215,0.485,0.190,77.778,100.000,333.333,1158.333,538.889,N
517,0.390,2.140,-0.360,58.333,116.667,400.000,700.000,458.333,V
518,-0.195,0.475,0.120,66.667,97.222,269.444,1152.778,452.778,N
519,-0.060,1.880,-0.035,58.333,111.111,400.000,563.889,588.889,V
520,-0.055,0.440,0.160,105.556,91.667,300.000,1016.667,452.778,N
521,0.175,1.785,-0.320,58.333,116.667,400.000,602.778,413.889,V
522,-0.010,0.625,0.185,69.444,97.222,311.111,1227.778,625.000,N
523,0.295,2.080,-0.160,58.333,116.667,405.556,647.222,580.556,V
524,-0.110,0.530,0.115,77.778,86.111,294.444,1147.222,500.000,N
525,-0.180,0.465,0.095,63.889,94.444,275.000,852.778,294.444,N
526,-0.010,0.640,0.175,61.111,83.333,175.000,844.444,8.333,N
527,-0.185,0.400,0.125,72.222,108.333,344.444,825.000,19.444,N
528,-0.185,0.570,0.130,83.333,97.222,330.556,947.222,122.222,N
529,-0.130,0.530,0.180,83.333,86.111,258.333,986.111,38.889,N
530,0.035,-0.015,0.395,166.667,75.000,338.889,491.667,494.444,V
531,-0.080,0.490,0.090,55.556,77.778,294.444,1227.778,736.111,N
532,-0.035,0.575,0.220,66.667,80.556,250.000,858.333,369.444,N
533,-0.190,0.635,0.115,72.222,94.444,313.889,880.556,22.222,N
534,-0.140,0.605,0.225,77.778,75.000,311.111,841.667,38.889,N
535,-0.095,0.675,0.055,63.889,83.333,286.111,891.667,50.000,N
536,0.050,2.040,-0.275,58.333,116.667,405.556,591.667,300.000,V
537,-0.150,0.455,0.240,80.556,69.444,275.000,1161.111,569.444,N
538,0.010,1.905,-0.245,194.444,116.667,397.222,516.667,644.444,V
539,-0.040,0.575,0.200,91.667,91.667,302.778,1113.889,597.222,N
540,-0.195,0.445,-0.030,111.111,80.556,244.444,863.889,250.000,N
541,-0.240,0.510,0.045,66.667,100.000,311.111,844.444,19.444,N
542,-0.330,0.405,0.070,86.111,83.333,275.000,866.667,22.222,N
543,-0.245,0.515,0.090,66.667,86.111,305.556,847.222,19.444,N
544,-0.090,2.270,-0.325,58.333,116.667,405.556,605.556,241.667,V
545,-0.070,0.725,0.205,197.222,88.889,280.556,1158.333,552.778,N
546,-0.115,0.665,0.215,83.333,75.000,275.000,855.556,302.778,N
547,-0.085,0.505,0.265,55.556,72.222,263.889,819.444,36.111,N
548,0.120,0.785,0.325,75.000,102.778,241.667,833.333,13.889,N
549,-0.025,0.585,0.175,75.000,69.444,316.667,836.111,2.778,N
550,-0.015,2.040,-0.235,58.333,116.667,405.556,594.444,241.667,V
551,-0.125,0.495,0.160,100.000,100.000,313.889,1183.333,588.889,N
552,-0.140,0.570,0.165,83.333,66.667,272.222,830.556,352.778,N
553,-0.090,0.730,0.180,111.111,83.333,252.778,791.667,38.889,N
554,-0.085,0.685,0.155,80.556,69.444,261.111,811.111,19.444,N
555,-0.075,0.650,0.175,80.556,100.000,305.556,858.333,47.222,N
556,-0.165,0.430,0.110,72.222,77.778,305.556,883.333,25.000,N
557,0.075,-1.155,0.410,50.000,0.000,250.000,572.222,311.111,V
558,-0.050,0.705,0.085,58.333,83.333,280.556,1191.667,619.444,N
559,-0.090,0.695,0.140,75.000,86.111,269.444,819.444,372.222,N
560,-0.100,0.705,0.310,69.444,86.111,297.222,780.556,38.889,N
561,-0.200,0.515,0.135,77.778,69.444,283.333,822.222,41.667,N
562,-0.130,0.525,0.105,77.778,69.444,280.556,852.778,30.556,N
563,-0.020,2.020,-0.305,58.333,113.889,405.556,572.222,280.556,V
564,-0.110,0.600,0.105,69.444,75.000,286.111,1152.778,580.556,N
565,-0.205,0.475,0.165,86.111,72.222,286.111,863.889,288.889,N
566,-0.035,0.560,0.115,69.444,97.222,322.222,886.111,22.222,N
567,0.110,0.540,0.085,155.556,83.333,308.333,800.000,86.111,N
568,-0.045,0.795,0.310,55.556,72.222,250.000,816.667,16.667,N
569,-0.210,0.595,-0.005,86.111,94.444,286.111,816.667,0.000,N
570,-0.025,2.040,-0.300,58.333,116.667,391.667,575.000,241.667,V
571,-0.025,0.605,0.140,58.333,83.333,238.889,1108.333,533.333,N
572,-0.070,0.745,0.250,100.000,80.556,255.556,883.333,225.000,N
573,-0.115,0.610,0.245,183.333,97.222,252.778,894.444,11.111,N
574,0.105,0.715,0.290,91.667,77.778,266.667,794.444,100.000,N
575,0.045,0.755,0.375,72.222,72.222,272.222,794.444,0.000,N
576,0.020,0.745,0.225,100.000,102.778,291.667,830.556,36.111,N
577,-0.045,0.630,0.215,80.556,86.111,311.111,913.889,83.333,N
578,-0.095,0.560,0.090,77.778,105.556,319.444,897.222,16.667,N
579,-0.160,0.595,0.165,94.444,72.222,275.000,883.333,13.889,N
580,-0.135,0.585,0.075,61.111,88.889,250.000,847.222,36.111,N
581,-0.150,0.605,0.160,63.889,66.667,255.556,838.889,8.333,N
582,-0.145,0.550,0.030,102.778,80.556,302.778,825.000,13.889,N
583,-0.195,0.555,0.105,91.667,94.444,333.333,888.889,63.889,N
584,-0.170,0.605,0.020,86.111,80.556,302.778,925.000,36.111,N
585,-0.245,0.460,-0.005,100.000,86.111,308.333,933.333,8.333,N
586,-0.235,0.375,-0.085,63.889,102.778,291.667,897.222,36.111,N
587,-0.390,0.310,-0.095,63.889,88.889,311.111,900.000,2.778,N
588,-0.115,1.805,-0.355,58.333,113.889,402.778,608.333,291.667,V
589,-0.240,0.435,0.030,88.889,100.000,358.333,1263.889,655.556,N
590,-0.205,1.840,-0.320,194.444,116.667,405.556,591.667,672.222,V
591,-0.210,0.435,0.060,75.000,97.222,344.444,1250.000,658.333,N
592,-0.070,1.970,-0.270,58.333,111.111,405.556,613.889,636.111,V
593,-0.180,0.495,0.085,91.667,77.778,302.778,1230.556,616.667,N
594,-0.025,2.080,-0.200,58.333,116.667,397.222,588.889,641.667,V
595,-0.110,0.475,0.135,130.556,83.333,336.111,1150.000,561.111,N
596,0.310,2.125,-0.415,58.333,116.667,405.556,663.889,486.111,V
597,-0.205,0.475,0.060,102.778,91.667,383.333,1327.778,663.889,N
598,0.355,2.025,-0.545,58.333,116.667,116.667,755.556,572.222,V
599,-0.075,0.565,0.110,116.667,80.556,325.000,1408.333,652.778,N
600,-0.030,2.050,-0.175,58.333,116.667,405.556,630.556,777.778,V
601,0.195,0.900,0.365,86.111,94.444,294.444,1072.222,441.667,N
602,0.250,2.215,-0.275,58.333,116.667,405.556,580.556,491.667,V
603,0.105,0.810,0.460,91.667,91.667,366.667,1355.556,775.000,N
604,0.140,2.145,-0.295,58.333,116.667,405.556,675.000,680.556,V
605,-0.025,0.735,0.385,83.333,91.667,344.444,1286.111,611.111,N
606,0.215,2.225,-0.205,58.333,116.667,400.000,611.111,675.000,V
607,-0.065,0.600,0.285,63.889,69.444,294.444,1086.111,475.000,N
608,0.095,2.190,-0.235,58.333,116.667,394.444,550.000,536.111,V
609,-0.020,0.650,0.280,100.000,113.889,372.222,1302.778,752.778,N
610,0.650,2.125,-0.505,58.333,116.667,116.667,747.222,555.556,V
611,0.085,0.820,0.550,72.222,83.333,341.667,1277.778,530.556,N
612,0.190,2.145,-0.240,58.333,116.667,405.556,636.111,641.667,V
613,-0.120,0.485,-0.045,88.889,77.778,269.444,1094.444,458.333,N
614,-0.360,1.760,-0.565,147.222,116.667,405.556,527.778,566.667,V
615,-0.325,0.250,-0.070,100.000,80.556,311.111,1119.444,591.667,N
616,0.025,1.990,-0.540,58.333,116.667,405.556,661.111,458.333,V
617,0.165,0.830,0.375,66.667,88.889,311.111,1338.889,677.778,N
618,0.060,2.250,-0.285,58.333,116.667,405.556,597.222,741.667,V
619,0.105,0.775,0.285,55.556,91.667,286.111,1191.667,594.444,N
620,-0.065,1.970,-0.360,186.111,116.667,402.778,600.000,591.667,V
621,-0.195,0.410,0.080,61.111,72.222,283.333,1091.667,491.667,N
622,-0.195,1.995,-0.470,188.889,116.667,405.556,558.333,533.333,V
623,-0.285,0.410,0.145,94.444,97.222,391.667,1194.444,636.111,N
624,-0.065,2.080,-0.460,58.333,113.889,405.556,688.889,505.556,V
625,-0.230,0.520,0.130,66.667,94.444,305.556,1177.778,488.889,N
626,-0.050,2.135,-0.410,58.333,116.667,405.556,608.333,569.444,V
627,-0.225,0.415,0.250,77.778,66.667,311.111,1091.667,483.333,N
628,-0.030,2.270,-0.155,197.222,116.667,405.556,536.111,555.556,V
629,-0.095,0.630,0.265,111.111,88.889,333.333,1061.111,525.000,N
630,-0.160,0.440,0.070,97.222,102.778,344.444,969.444,91.667,N
631,-0.280,0.290,0.055,83.333,97.222,344.444,1052.778,83.333,N
632,-0.155,0.485,0.170,72.222,80.556,252.778,927.778,125.000,N
633,-0.235,0.445,0.115,94.444,69.444,275.000,836.111,91.667,N
634,-0.160,0.455,0.100,72.222,80.556,280.556,797.222,38.889,N
635,-0.105,0.590,0.160,66.667,86.111,297.222,791.667,5.556,N
636,-0.125,0.435,0.040,116.667,94.444,319.444,841.667,50.000,N
637,-0.225,0.465,0.065,72.222,80.556,358.333,966.667,125.000,N
638,-0.225,0.550,0.075,91.667,94.444,302.778,969.444,2.778,N
639,-0.235,0.550,0.035,66.667,75.000,283.333,858.333,111.111,N
640,-0.265,0.460,0.040,80.556,66.667,258.333,844.444,13.889,N
641,-0.150,1.920,-0.240,58.333,105.556,394.444,533.333,311.111,V
642,-0.165,0.505,0.040,66.667,77.778,316.667,1075.000,541.667,N
643,-0.005,-1.410,0.330,50.000,2.778,241.667,555.556,519.444,V
644,-0.200,0.450,0.050,100.000,72.222,300.000,1105.556,550.000,N
645,-0.255,0.375,0.085,75.000,80.556,255.556,927.778,177.778,N
646,-0.160,0.520,0.120,80.556,91.667,294.444,869.444,58.333,N
647,-0.155,0.480,0.120,111.111,86.111,294.444,833.333,36.111,N
648,-0.145,0.505,0.180,75.000,88.889,255.556,777.778,55.556,N
649,-0.105,0.580,0.105,91.667,94.444,283.333,802.778,25.000,N
650,-0.160,-0.065,0.210,194.444,88.889,319.444,500.000,302.778,V
651,-0.225,0.440,0.060,75.000,83.333,355.556,1200.000,700.000,N
652,-0.145,0.575,0.115,97.222,100.000,305.556,1072.222,127.778,N
653,-0.015,0.620,0.295,75.000,83.333,330.556,944.444,127.778,N
654,0.120,2.080,-0.010,197.222,102.778,405.556,522.222,422.222,V
655,0.010,0.645,0.260,77.778,75.000,283.333,1094.444,572.222,N
656,-0.125,2.165,-0.350,172.222,113.889,405.556,600.000,494.444,V
657,-0.240,0.355,0.000,100.000,75.000,316.667,1055.556,455.556,N
658,-0.290,0.310,0.060,127.778,111.111,347.222,963.889,91.667,N
659,-0.040,0.670,0.300,130.556,102.778,258.333,1069.444,105.556,N
660,0.150,0.755,0.340,105.556,97.222,244.444,900.000,169.444,N
661,0.120,0.775,0.245,75.000,86.111,277.778,811.111,88.889,N
662,-0.010,0.700,0.195,91.667,75.000,325.000,808.333,2.778,N
663,0.010,0.850,0.240,127.778,80.556,230.556,847.222,38.889,N
664,0.125,0.930,0.275,116.667,80.556,308.333,894.444,47.222,N
665,0.025,2.320,-0.105,58.333,111.111,405.556,638.889,255.556,V
666,0.000,0.655,0.220,69.444,91.667,311.111,1205.556,566.667,N
667,-0.045,0.765,0.200,69.444,100.000,227.778,902.778,302.778,N
668,-0.120,0.580,0.115,58.333,86.111,275.000,833.333,69.444,N
669,-0.130,0.590,0.145,97.222,75.000,277.778,808.333,25.000,N
670,-0.095,2.135,-0.230,58.333,111.111,405.556,619.444,188.889,V
671,-0.090,0.550,0.210,80.556,66.667,277.778,1033.333,413.889,N
672,-0.110,0.595,0.135,83.333,88.889,327.778,869.444,163.889,N
673,-0.095,0.615,0.125,80.556,100.000,358.333,997.222,127.778,N
674,-0.100,0.645,0.125,91.667,88.889,255.556,975.000,22.222,N
675,-0.145,2.110,-0.215,58.333,113.889,391.667,594.444,380.556,V
676,-0.120,0.510,0.160,102.778,77.778,322.222,991.667,397.222,N
677,-0.115,0.575,0.180,86.111,86.111,261.111,813.889,177.778,N
678,-0.075,0.680,0.165,91.667,86.111,250.000,858.333,44.444,N
679,-0.130,0.445,0.115,88.889,77.778,272.222,858.333,0.000,N
680,-0.110,0.600,0.175,122.222,105.556,336.111,952.778,94.444,N
681,-0.080,0.670,0.150,72.222,88.889,269.444,950.000,2.778,N
682,-0.085,0.675,0.160,66.667,77.778,269.444,811.111,138.889,N
683,-0.135,0.680,0.160,72.222,69.444,280.556,755.556,55.556,N
684,-0.125,2.075,-0.190,58.333,113.889,405.556,550.000,205.556,V
685,-0.110,0.545,0.195,69.444,91.667,305.556,1130.556,580.556,N
686,-0.005,2.065,-0.320,58.333,116.667,405.556,566.667,563.889,V
687,-0.075,0.565,0.165,94.444,77.778,316.667,1155.556,588.889,N
688,-0.080,0.625,0.100,111.111,100.000,269.444,877.778,277.778,N
689,-0.200,0.515,0.085,83.333,63.889,250.000,800.000,77.778,N
690,-0.150,0.465,0.165,88.889,75.000,280.556,758.333,41.667,N
691,-0.065,2.045,-0.150,58.333,111.111,400.000,561.111,197.222,V
692,0.035,0.730,0.215,58.333,75.000,205.556,1069.444,508.333,N
693,-0.140,0.570,0.005,72.222,100.000,297.222,894.444,175.000,N
694,-0.230,0.625,-0.015,75.000,83.333,325.000,852.778,41.667,N
695,-0.225,0.700,0.045,66.667,97.222,305.556,911.111,58.333,N
696,-0.225,0.570,0.005,72.222,63.889,313.889,858.333,52.778,N
697,-0.130,0.770,0.105,80.556,69.444,302.778,777.778,80.556,N
698,-0.235,0.575,0.035,77.778,63.889,236.111,791.667,13.889,N
699,-0.170,0.670,0.040,58.333,69.444,311.111,833.333,41.667,N
700,-0.190,0.535,0.025,66.667,102.778,277.778,872.222,38.889,N
701,-0.170,0.605,0.015,80.556,80.556,327.778,841.667,30.556,N
702,0.005,2.025,-0.475,58.333,113.889,402.778,566.667,275.000,V
703,-0.140,0.680,0.140,100.000,86.111,283.333,1225.000,658.333,N
704,-0.155,2.050,-0.260,186.111,111.111,405.556,541.667,683.333,V
705,-0.255,0.440,0.035,77.778,86.111,297.222,1038.889,497.222,N
706,-0.005,0.750,0.085,66.667,83.333,236.111,838.889,200.000,N
707,-0.185,0.520,0.095,111.111,86.111,297.222,913.889,75.000,N
708,0.005,0.810,0.190,80.556,75.000,258.333,883.333,30.556,N
709,-0.155,0.700,0.100,69.444,100.000,288.889,872.222,11.111,N
710,-0.090,0.670,0.220,91.667,91.667,269.444,822.222,50.000,N
711,-0.145,0.700,0.005,66.667,83.333,238.889,791.667,30.556,N
712,-0.170,0.520,0.090,63.889,100.000,286.111,769.444,22.222,N
713,-0.015,0.740,0.130,55.556,94.444,286.111,822.222,52.778,N
714,-0.165,0.630,0.080,80.556,72.222,308.333,888.889,66.667,N
715,-0.195,0.515,0.125,91.667,100.000,291.667,861.111,27.778,N
716,-0.100,0.560,0.070,75.000,88.889,300.000,819.444,41.667,N
717,-0.205,0.490,0.095,119.444,83.333,313.889,883.333,63.889,N
718,-0.045,0.630,0.300,66.667,72.222,286.111,827.778,55.556,N
719,0.025,0.785,0.265,80.556,86.111,291.667,788.889,38.889,N
720,-0.115,0.715,0.095,75.000,83.333,286.111,802.778,13.889,N
721,-0.140,0.700,0.095,116.667,77.778,294.444,855.556,52.778,N
722,-0.115,0.735,0.170,91.667,75.000,288.889,875.000,19.444,N
723,-0.010,0.690,0.225,72.222,80.556,338.889,855.556,19.444,N
724,-0.055,0.595,0.165,119.444,80.556,297.222,905.556,50.000,N
725,-0.125,0.595,0.165,63.889,88.889,225.000,850.000,55.556,N
726,-0.045,0.585,0.255,102.778,69.444,275.000,797.222,52.778,N
727,0.045,2.050,-0.075,119.444,116.667,405.556,522.222,275.000,V
728,0.000,0.755,0.215,83.333,102.778,352.778,1147.222,625.000,N
729,-0.040,0.765,0.235,77.778,100.000,311.111,969.444,177.778,N
730,-0.135,0.580,0.070,94.444,97.222,322.222,938.889,30.556,N
731,-0.085,1.915,-0.255,58.333,116.667,405.556,594.444,344.444,V
732,-0.095,0.585,0.200,72.222,72.222,300.000,1086.111,491.667,N
733,-0.075,1.985,-0.195,177.778,116.667,397.222,536.111,550.000,V
734,-0.130,0.520,0.180,72.222,97.222,288.889,1080.556,544.444,N
735,0.015,2.155,-0.280,58.333,116.667,405.556,580.556,500.000,V
736,-0.060,-0.290,0.715,155.556,22.222,275.000,963.889,383.333,|
737,0.110,0.715,0.275,197.222,97.222,277.778,269.444,694.444,N
738,0.380,2.050,-0.450,58.333,116.667,405.556,663.889,394.444,V
739,-0.165,0.420,0.050,97.222,83.333,308.333,1213.889,550.000,N
740,-0.235,0.470,0.050,86.111,91.667,272.222,855.556,358.333,N
741,-0.210,0.435,0.020,105.556,83.333,272.222,902.778,47.222,N
742,-0.300,0.390,0.000,94.444,77.778,333.333,927.778,25.000,N
743,-0.250,0.390,0.155,75.000,83.333,325.000,905.556,22.222,N
744,-0.085,0.580,0.165,77.778,91.667,300.000,888.889,16.667,N
745,-0.070,0.050,0.420,172.222,94.444,366.667,577.778,311.111,V
746,-0.165,0.615,0.110,72.222,80.556,311.111,1219.444,641.667,N
747,-0.135,0.640,0.120,69.444,88.889,294.444,811.111,408.333,N
748,-0.180,0.505,0.080,83.333,80.556,305.556,836.111,25.000,N
749,-0.220,0.540,0.060,72.222,100.000,322.222,886.111,50.000,N
750,-0.175,0.515,0.080,80.556,88.889,280.556,858.333,27.778,N
751,-0.215,0.525,0.055,75.000,83.333,322.222,888.889,30.556,N
752,-0.235,0.495,0.005,91.667,86.111,322.222,969.444,80.556,N
753,-0.265,0.455,0.060,69.444,75.000,302.778,911.111,58.333,N
754,-0.040,0.360,0.110,58.333,100.000,291.667,777.778,133.333,N
755,-0.175,0.645,0.130,91.667,83.333,261.111,802.778,25.000,N
756,-0.075,0.190,0.525,175.000,94.444,372.222,533.333,269.444,V
757,0.015,0.680,0.195,94.444,97.222,319.444,1197.222,663.889,N
758,-0.035,0.645,0.160,86.111,80.556,319.444,877.778,319.444,N
759,-0.140,0.580,0.135,69.444,75.000,288.889,880.556,2.778,N
760,-0.180,0.620,0.105,61.111,86.111,280.556,841.667,38.889,N
761,-0.140,0.585,0.145,66.667,94.444,269.444,791.667,50.000,N
762,-0.070,0.660,0.190,66.667,80.556,277.778,833.333,41.667,N
763,-0.080,0.685,0.160,66.667,80.556,311.111,913.889,80.556,N
764,-0.110,0.550,0.090,97.222,91.667,283.333,913.889,0.000,N
765,-0.235,0.395,0.020,77.778,77.778,313.889,850.000,63.889,N
766,-0.235,0.470,0.020,97.222,75.000,294.444,850.000,0.000,N
767,-0.240,0.475,-0.025,58.333,77.778,286.111,841.667,8.333,N
768,-0.340,0.425,-0.070,83.333,83.333,258.333,830.556,11.111,N
769,-0.310,0.385,-0.075,80.556,97.222,319.444,844.444,13.889,N
770,-0.300,0.405,-0.005,105.556,97.222,302.778,891.667,47.222,N
771,-0.175,0.540,0.085,66.667,97.222,277.778,897.222,5.556,N
772,-0.185,0.565,0.005,75.000,88.889,294.444,844.444,52.778,N
773,-0.250,0.510,0.000,108.333,88.889,297.222,886.111,41.667,N
774,-0.250,0.460,0.015,94.444,72.222,297.222,880.556,5.556,N
775,-0.230,0.500,0.065,58.333,72.222,300.000,861.111,19.444,N
776,0.020,2.055,-0.300,58.333,116.667,405.556,575.000,286.111,V
777,-0.125,0.525,0.145,113.889,102.778,308.333,1147.222,572.222,N
778,-0.095,1.845,-0.300,197.222,116.667,397.222,566.667,580.556,V
779,-0.110,0.490,0.160,86.111,83.333,325.000,1191.667,625.000,N
780,-0.150,0.520,0.120,100.000,77.778,277.778,930.556,261.111,N
781,-0.185,0.540,0.080,72.222,77.778,286.111,825.000,105.556,N
782,-0.210,0.465,0.050,66.667,77.778,269.444,827.778,2.778,N
783,-0.215,0.535,0.050,86.111,83.333,305.556,836.111,8.333,N
784,-0.235,0.530,0.005,108.333,83.333,308.333,933.333,97.222,N
785,-0.270,0.430,0.000,83.333,102.778,311.111,911.111,22.222,N
786,-0.200,0.625,0.070,83.333,83.333,294.444,883.333,27.778,N
787,-0.210,0.555,0.035,66.667,91.667,266.667,841.667,41.667,N
788,-0.180,0.605,0.060,61.111,72.222,275.000,838.889,2.778,N
789,-0.205,0.515,-0.005,75.000,94.444,286.111,844.444,5.556,N
790,-0.215,0.610,0.095,77.778,94.444,300.000,833.333,11.111,N
791,-0.135,0.645,0.110,75.000,77.778,336.111,883.333,50.000,N
792,-0.100,0.735,0.165,77.778,77.778,300.000,919.444,36.111,N
793,-0.145,0.640,0.115,75.000,83.333,319.444,880.556,38.889,N
794,-0.200,0.555,-0.030,72.222,80.556,277.778,900.000,19.444,N
795,-0.310,0.460,0.000,77.778,88.889,297.222,869.444,30.556,N
796,0.010,1.865,-0.345,58.333,116.667,405.556,597.222,272.222,V
797,-0.260,0.500,0.045,88.889,77.778,300.000,1136.111,538.889,N
798,-0.255,0.560,0.000,77.778,83.333,305.556,930.556,205.556,N
799,-0.255,0.605,-0.030,66.667,91.667,333.333,875.000,55.556,N
800,-0.225,0.595,0.065,72.222,80.556,319.444,911.111,36.111,N
801,-0.155,0.665,0.140,61.111,94.444,300.000,916.667,5.556,N
802,-0.230,0.630,0.035,77.778,80.556,272.222,827.778,88.889,N
803,-0.065,2.120,-0.350,58.333,116.667,405.556,580.556,247.222,V
804,-0.180,0.640,0.100,75.000,77.778,350.000,1127.778,547.222,N
805,-0.265,0.600,-0.005,83.333,100.000,322.222,975.000,152.778,N
806,-0.220,0.625,0.090,69.444,88.889,319.444,916.667,58.333,N
807,-0.125,2.235,-0.215,58.333,116.667,397.222,591.667,325.000,V
808,-0.165,0.700,0.135,63.889,80.556,297.222,1138.889,547.222,N
809,0.005,2.170,-0.305,58.333,116.667,402.778,625.000,513.889,V
810,-0.180,0.655,0.070,69.444,102.778,341.667,1127.778,502.778,N
811,0.260,2.075,-0.465,58.333,116.667,405.556,638.889,488.889,V
812,0.015,0.845,0.230,61.111,80.556,283.333,1283.333,644.444,N
813,0.255,2.350,-0.260,58.333,116.667,405.556,622.222,661.111,V
814,0.030,0.835,0.325,66.667,83.333,280.556,1152.778,530.556,N
815,-0.050,0.840,0.240,72.222,80.556,291.667,836.111,316.667,N
816,-0.030,0.800,0.215,77.778,86.111,311.111,880.556,44.444,N
817,-0.080,0.775,0.135,69.444,97.222,308.333,922.222,41.667,N
818,-0.160,0.735,0.125,102.778,80.556,311.111,880.556,41.667,N
819,-0.160,0.700,0.140,69.444,80.556,308.333,900.000,19.444,N
820,-0.215,0.670,0.080,66.667,83.333,288.889,880.556,19.444,N
821,-0.205,0.600,0.135,55.556,77.778,283.333,855.556,25.000,N
822,-0.125,0.750,0.070,69.444,83.333,288.889,852.778,2.778,N
823,-0.220,0.670,0.045,86.111,100.000,325.000,861.111,8.333,N
824,-0.265,0.590,0.030,72.222,77.778,288.889,888.889,27.778,N
825,-0.285,0.580,-0.005,66.667,75.000,308.333,855.556,33.333,N
826,-0.265,0.570,0.040,91.667,100.000,338.889,961.111,105.556,N
827,-0.225,0.570,0.060,63.889,86.111,294.444,925.000,36.111,N
828,-0.060,2.115,-0.240,58.333,116.667,400.000,594.444,330.556,V
829,-0.170,0.690,0.190,58.333,77.778,272.222,1080.556,486.111,N
830,-0.120,2.300,-0.330,58.333,116.667,405.556,541.667,538.889,V
831,-0.120,0.720,0.200,83.333,94.444,327.778,1136.111,594.444,N
832,0.140,2.255,-0.265,58.333,116.667,400.000,594.444,541.667,V
833,-0.090,0.685,0.185,77.778,77.778,300.000,1200.000,605.556,N
834,0.110,2.105,-0.220,58.333,116.667,400.000,580.556,619.444,V
835,-0.020,0.825,0.230,72.222,69.444,291.667,1083.333,502.778,N
836,-0.050,2.310,-0.170,58.333,116.667,402.778,530.556,552.778,V
837,-0.095,0.730,0.245,72.222,94.444,319.444,1133.333,602.778,N
838,-0.005,2.300,-0.295,58.333,116.667,405.556,594.444,538.889,V
839,-0.145,0.615,0.195,86.111,77.778,286.111,1158.333,563.889,N
840,0.190,2.270,-0.310,58.333,111.111,402.778,600.000,558.333,V
841,-0.135,0.655,0.195,63.889,75.000,280.556,1155.556,555.556,N
842,-0.095,2.300,-0.245,197.222,111.111,402.778,527.778,627.778,V
843,-0.075,0.775,0.195,63.889,97.222,302.778,1061.111,533.333,N
844,-0.020,2.280,-0.275,58.333,116.667,405.556,569.444,491.667,V
845,-0.150,0.595,0.200,80.556,108.333,316.667,1177.778,608.333,N
846,0.035,2.130,-0.275,58.333,116.667,405.556,672.222,505.556,V
847,-0.135,0.675,0.175,91.667,97.222,322.222,1119.444,447.222,N
848,0.160,2.195,-0.415,58.333,116.667,394.444,608.333,511.111,V
849,-0.110,0.675,0.190,61.111,86.111,294.444,1147.222,538.889,N
850,-0.080,2.185,-0.225,194.444,116.667,391.667,547.222,600.000,V
851,-0.125,0.645,0.230,77.778,86.111,280.556,1052.778,505.556,N
852,0.210,2.170,-0.370,58.333,116.667,405.556,563.889,488.889,V
853,-0.125,0.685,0.195,72.222,77.778,319.444,1133.333,569.444,N
854,-0.165,0.620,0.110,77.778,83.333,291.667,883.333,250.000,N
855,-0.200,0.620,0.105,66.667,100.000,283.333,911.111,27.778,N
856,-0.200,0.670,0.120,55.556,97.222,252.778,816.667,94.444,N
857,-0.180,0.690,0.130,58.333,77.778,269.444,769.444,47.222,N
858,-0.160,0.695,0.115,80.556,88.889,297.222,791.667,22.222,N
859,-0.170,0.635,0.110,88.889,105.556,325.000,894.444,102.778,N
860,-0.200,0.650,0.095,91.667,80.556,319.444,919.444,25.000,N
861,-0.205,0.665,0.100,75.000,94.444,291.667,897.222,22.222,N
862,-0.170,0.700,0.120,66.667,66.667,275.000,858.333,38.889,N
863,-0.185,0.630,0.095,66.667,100.000,258.333,833.333,25.000,N
864,-0.180,0.630,0.115,69.444,83.333,291.667,769.444,63.889,N
865,-0.175,2.160,-0.270,58.333,111.111,400.000,572.222,197.222,V
866,-0.105,0.705,0.170,100.000,91.667,336.111,1161.111,588.889,N
867,-0.165,0.635,0.045,83.333,105.556,330.556,950.000,211.111,N
868,-0.220,0.585,0.035,63.889,80.556,294.444,919.444,30.556,N
869,-0.250,0.570,0.030,72.222,97.222,288.889,869.444,50.000,N
870,-0.265,0.575,-0.010,72.222,77.778,300.000,902.778,33.333,N
871,-0.260,0.580,0.000,80.556,77.778,288.889,827.778,75.000,N
872,-0.120,-0.140,0.215,197.222,86.111,322.222,488.889,338.889,V
873,-0.200,0.535,0.015,91.667,94.444,300.000,1200.000,711.111,N
874,-0.285,0.470,0.010,122.222,102.778,325.000,947.222,252.778,N
875,-0.285,0.525,-0.045,91.667,75.000,300.000,875.000,72.222,N
876,-0.320,0.565,-0.080,83.333,97.222,288.889,872.222,2.778,N
877,-0.285,0.555,0.050,77.778,86.111,280.556,858.333,13.889,N
878,-0.240,0.510,0.080,75.000,91.667,280.556,786.111,72.222,N
879,-0.175,0.635,0.085,83.333,97.222,288.889,822.222,36.111,N
880,-0.220,0.565,0.030,94.444,105.556,366.667,861.111,38.889,N
881,-0.135,0.600,0.100,91.667,88.889,350.000,1127.778,266.667,N
882,-0.140,0.015,0.350,197.222,97.222,358.333,594.444,533.333,V
883,-0.185,0.650,0.115,88.889,80.556,286.111,1272.222,677.778,N
884,-0.150,0.660,0.085,69.444,80.556,252.778,811.111,461.111,N
885,-0.200,0.590,0.060,75.000,77.778,269.444,805.556,5.556,N
886,-0.145,0.635,0.115,80.556,72.222,297.222,825.000,19.444,N
887,-0.115,0.665,0.150,77.778,77.778,336.111,883.333,58.333,N
888,-0.150,0.660,0.060,111.111,91.667,333.333,1080.556,197.222,N
889,-0.160,0.665,0.130,69.444,105.556,313.889,955.556,125.000,N
890,-0.125,0.730,0.075,58.333,66.667,261.111,844.444,111.111,N
891,-0.160,0.665,0.135,91.667,91.667,286.111,813.889,30.556,N
892,-0.105,0.700,0.185,77.778,83.333,319.444,900.000,86.111,N
893,-0.040,0.725,0.135,83.333,80.556,322.222,927.778,27.778,N
894,-0.140,0.680,0.095,86.111,94.444,352.778,938.889,11.111,N
895,-0.225,0.610,0.075,66.667,97.222,327.778,977.778,38.889,N
896,-0.160,0.720,0.120,61.111,72.222,280.556,927.778,50.000,N
897,0.090,0.015,0.400,197.222,94.444,341.667,450.000,477.778,V
898,-0.080,0.660,0.170,63.889,77.778,294.444,1205.556,755.556,N
899,-0.160,0.710,0.055,58.333,72.222,294.444,872.222,333.333,N
900,-0.195,0.625,0.085,69.444,94.444,286.111,863.889,8.333,N
901,-0.140,0.670,0.065,94.444,94.444,302.778,905.556,41.667,N
902,-0.165,0.690,0.070,75.000,94.444,352.778,1000.000,94.444,N
903,-0.220,0.620,0.095,97.222,88.889,277.778,952.778,47.222,N
904,-0.145,0.715,0.070,83.333,83.333,272.222,852.778,100.000,N
905,-0.195,0.525,0.095,61.111,66.667,294.444,813.889,38.889,N
906,0.015,0.035,0.410,177.778,94.444,341.667,466.667,347.222,V
907,-0.085,0.750,0.220,61.111,91.667,347.222,1266.667,800.000,N
908,0.185,2.235,-0.275,58.333,116.667,405.556,575.000,691.667,V
909,-0.005,0.795,0.230,91.667,83.333,319.444,1419.444,844.444,N
910,0.025,2.180,-0.205,58.333,116.667,405.556,591.667,827.778,V
911,-0.055,0.675,0.160,75.000,69.444,261.111,1100.000,508.333,N
912,-0.125,2.005,-0.300,147.222,116.667,405.556,530.556,569.444,V
913,-0.110,0.670,0.115,88.889,100.000,325.000,1211.111,680.556,N
914,0.065,2.115,-0.460,58.333,116.667,405.556,611.111,600.000,V
915,-0.035,0.650,0.265,83.333,113.889,372.222,1319.444,708.333,N
916,0.085,2.190,-0.200,58.333,113.889,405.556,650.000,669.444,V
917,-0.130,0.635,0.185,77.778,66.667,261.111,1172.222,522.222,N
918,-0.120,2.130,-0.200,191.667,116.667,402.778,530.556,641.667,V
919,-0.060,0.620,0.115,69.444,83.333,347.222,1130.556,600.000,N
920,-0.010,2.145,-0.415,58.333,116.667,391.667,597.222,533.333,V
921,-0.125,0.605,0.090,66.667,83.333,291.667,1183.333,586.111,N
922,0.130,2.130,-0.485,58.333,116.667,405.556,602.778,580.556,V
923,-0.010,0.750,0.215,72.222,86.111,294.444,1266.667,663.889,N
924,-0.100,2.145,-0.260,197.222,116.667,388.889,583.333,683.333,V
925,-0.095,0.705,0.160,55.556,86.111,247.222,1061.111,477.778,N
926,-0.135,2.170,-0.405,58.333,113.889,397.222,544.444,516.667,V
927,-0.075,0.695,0.245,66.667,102.778,322.222,1127.778,583.333,N
928,-0.070,2.165,-0.315,191.667,113.889,405.556,572.222,555.556,V
929,-0.120,0.600,0.255,77.778,94.444,344.444,1236.111,663.889,N
930,0.280,2.240,-0.340,58.333,116.667,405.556,688.889,547.222,V
931,-0.170,0.650,0.175,77.778,86.111,277.778,1111.111,422.222,N
932,-0.140,2.220,-0.260,183.333,116.667,400.000,530.556,580.556,V
933,-0.170,0.565,0.140,72.222,94.444,336.111,1102.778,572.222,N
934,0.255,2.175,-0.255,58.333,116.667,216.667,652.778,450.000,V
935,-0.195,0.585,0.115,105.556,94.444,383.333,1325.000,672.222,N
936,0.185,2.150,-0.510,58.333,116.667,405.556,716.667,608.333,V
937,-0.200,0.595,0.115,72.222,94.444,300.000,1219.444,502.778,N
938,-0.170,2.215,-0.305,188.889,116.667,391.667,550.000,669.444,V
939,-0.165,0.625,0.115,72.222,77.778,333.333,1069.444,519.444,N
940,0.005,2.205,-0.490,58.333,116.667,405.556,591.667,477.778,V
941,-0.100,0.705,0.230,77.778,88.889,338.889,1277.778,686.111,N
942,0.260,2.305,-0.245,58.333,113.889,405.556,627.778,650.000,V
943,-0.035,0.765,0.245,77.778,91.667,330.556,1191.667,563.889,N
944,0.060,2.260,-0.265,58.333,116.667,405.556,619.444,572.222,V
945,-0.130,0.645,0.155,66.667,72.222,263.889,1094.444,475.000,N
946,-0.210,0.615,0.150,88.889,75.000,286.111,830.556,263.889,N
947,-0.195,0.605,0.020,83.333,97.222,308.333,844.444,13.889,N
948,-0.255,0.545,0.105,83.333,83.333,344.444,919.444,75.000,N
949,-0.160,0.670,0.115,91.667,72.222,297.222,891.667,27.778,N
950,-0.210,0.575,0.115,108.333,100.000,361.111,997.222,105.556,N
951,-0.185,0.075,0.420,197.222,97.222,355.556,638.889,358.333,V
952,-0.195,0.600,0.050,86.111,72.222,280.556,1094.444,455.556,N
953,-0.240,0.600,0.040,80.556,83.333,305.556,825.000,269.444,N
954,-0.210,0.575,0.060,77.778,100.000,325.000,866.667,41.667,N
955,-0.230,0.550,0.040,88.889,100.000,311.111,922.222,55.556,N
956,-0.225,0.560,0.060,69.444,86.111,330.556,894.444,27.778,N
957,-0.230,0.570,0.075,91.667,100.000,308.333,927.778,33.333,N
958,-0.095,-0.010,0.370,197.222,86.111,327.778,522.222,405.556,V
959,-0.115,0.680,0.150,77.778,91.667,302.778,1094.444,572.222,N
960,-0.190,0.600,0.115,72.222,86.111,313.889,800.000,294.444,N
961,-0.135,0.650,0.170,94.444,69.444,297.222,866.667,66.667,N
962,-0.170,0.645,0.125,97.222,88.889,313.889,936.111,69.444,N
963,-0.130,0.705,0.120,83.333,91.667,322.222,894.444,41.667,N
964,-0.225,0.600,0.080,77.778,72.222,277.778,888.889,5.556,N
965,-0.140,0.630,0.105,72.222,94.444,269.444,838.889,50.000,N
966,-0.200,0.605,0.085,88.889,80.556,294.444,819.444,19.444,N
967,-0.120,0.760,0.150,75.000,83.333,308.333,841.667,22.222,N
968,-0.175,0.670,0.085,83.333,86.111,297.222,902.778,61.111,N
969,-0.140,0.615,0.130,80.556,69.444,297.222,866.667,36.111,N
970,-0.100,0.695,0.165,83.333,80.556,272.222,852.778,13.889,N
971,-0.110,0.670,0.155,66.667,102.778,311.111,850.000,2.778,N
972,-0.125,0.650,0.120,83.333,83.333,291.667,866.667,16.667,N
973,-0.150,0.695,0.140,77.778,75.000,275.000,813.889,52.778,N
974,-0.115,0.710,0.180,75.000,97.222,283.333,797.222,16.667,N
975,-0.110,0.705,0.150,66.667,72.222,308.333,836.111,38.889,N
976,-0.185,0.550,0.085,80.556,100.000,294.444,866.667,30.556,N
977,-0.145,0.650,0.155,77.778,80.556,319.444,916.667,50.000,N
978,-0.160,0.660,0.145,75.000,75.000,305.556,880.556,36.111,N
979,-0.120,0.715,0.145,61.111,88.889,261.111,861.111,19.444,N
980,-0.135,0.680,0.170,58.333,69.444,261.111,775.000,86.111,N
981,-0.135,0.670,0.105,94.444,72.222,283.333,813.889,38.889,N
982,-0.190,0.640,0.080,88.889,83.333,288.889,827.778,13.889,N
983,-0.125,0.765,0.155,77.778,88.889,283.333,872.222,44.444,N
984,-0.155,0.680,0.095,80.556,86.111,277.778,905.556,33.333,N
985,-0.205,0.725,0.130,86.111,97.222,308.333,869.444,36.111,N
986,0.150,-1.390,0.435,47.222,0.000,250.000,500.000,369.444,V
987,-0.185,0.650,0.120,55.556,72.222,277.778,1141.667,641.667,N
988,-0.155,0.700,0.180,69.444,75.000,272.222,858.333,283.333,N
989,-0.050,0.725,0.145,100.000,97.222,308.333,863.889,5.556,N
990,-0.195,0.555,0.045,80.556,100.000,291.667,866.667,2.778,N
991,-0.180,0.660,0.180,77.778,91.667,300.000,861.111,5.556,N
992,-0.120,0.740,0.075,83.333,100.000,277.778,872.222,11.111,N
993,-0.205,0.630,0.055,75.000,77.778,269.444,844.444,27.778,N
994,-0.120,0.740,0.190,86.111,77.778,288.889,811.111,33.333,N
995,-0.135,0.685,0.090,88.889,75.000,286.111,816.667,5.556,N
996,-0.185,0.685,0.100,94.444,86.111,300.000,875.000,58.333,N
997,-0.085,0.795,0.095,69.444,80.556,286.111,858.333,16.667,N
998,-0.180,0.675,0.075,86.111,100.000,308.333,900.000,41.667,N
999,-0.045,0.815,0.175,72.222,77.778,297.222,922.222,22.222,N
1000,-0.135,0.755,0.110,97.222,80.556,283.333,886.111,36.111,N
1001,-0.110,0.730,0.185,66.667,94.444,272.222,791.667,94.444,N
1002,-0.045,0.770,0.105,91.667,77.778,316.667,836.111,44.444,N
1003,-0.180,0.640,0.085,77.778,86.111,294.444,894.444,58.333,N
1004,-0.095,0.750,0.140,58.333,75.000,300.000,925.000,30.556,N
1005,-0.150,0.735,0.080,83.333,83.333,338.889,963.889,38.889,N
1006,-0.175,0.660,0.140,91.667,75.000,308.333,922.222,41.667,N
1007,-0.135,0.730,0.090,58.333,75.000,280.556,900.000,22.222,N
1008,-0.195,0.660,0.065,80.556,80.556,297.222,822.222,77.778,N
1009,-0.075,0.790,0.160,75.000,97.222,322.222,925.000,102.778,N
1010,-0.195,0.690,0.040,91.667,108.333,355.556,1019.444,94.444,N
1011,-0.195,0.620,0.130,69.444,100.000,294.444,991.667,27.778,N
1012,-0.195,0.685,0.055,66.667,88.889,308.333,897.222,94.444,N
1013,-0.190,0.645,0.170,72.222,97.222,308.333,872.222,25.000,N
1014,0.225,-1.270,0.510,50.000,2.778,250.000,480.556,391.667,V
1015,-0.120,0.660,0.165,75.000,100.000,319.444,1208.333,727.778,N
1016,-0.085,0.765,0.245,69.444,83.333,311.111,925.000,283.333,N
1017,-0.225,0.605,-0.020,86.111,105.556,361.111,1000.000,75.000,N
1018,-0.275,0.585,0.095,86.111,83.333,311.111,936.111,63.889,N
1019,-0.110,0.750,0.095,80.556,86.111,330.556,927.778,8.333,N
1020,-0.210,0.675,0.085,75.000,94.444,325.000,1008.333,80.556,N
1021,-0.030,0.870,0.350,63.889,72.222,308.333,875.000,133.333,N
1022,-0.035,0.855,0.115,72.222,97.222,302.778,838.889,36.111,N
1023,-0.110,-0.015,0.330,197.222,113.889,377.778,547.222,291.667,V
1024,0.000,0.860,0.150,61.111,94.444,294.444,1375.000,827.778,N
1025,-0.200,0.630,0.115,75.000,88.889,302.778,916.667,458.333,N
1026,-0.055,0.790,0.210,77.778,72.222,297.222,872.222,44.444,N
1027,-0.200,0.655,0.080,69.444,83.333,305.556,888.889,16.667,N
1028,-0.170,0.680,0.230,80.556,69.444,288.889,858.333,30.556,N
1029,-0.125,0.745,0.100,77.778,83.333,325.000,852.778,5.556,N
1030,-0.195,0.670,0.140,97.222,97.222,350.000,947.222,94.444,N
1031,-0.105,0.770,0.210,77.778,80.556,319.444,997.222,50.000,N
1032,-0.195,0.680,0.110,83.333,88.889,294.444,958.333,38.889,N
1033,-0.190,0.705,0.190,58.333,72.222,272.222,830.556,127.778,N
1034,-0.180,0.645,0.045,83.333,86.111,311.111,869.444,38.889,N
1035,-0.280,0.565,0.055,72.222,75.000,305.556,852.778,16.667,N
1036,-0.150,0.715,0.090,80.556,86.111,327.778,913.889,61.111,N
1037,-0.205,0.680,0.050,111.111,97.222,338.889,977.778,63.889,N
1038,-0.130,0.730,0.140,69.444,80.556,305.556,927.778,50.000,N
1039,-0.185,0.615,0.030,69.444,77.778,272.222,847.222,80.556,N
1040,-0.195,0.570,0.110,61.111,72.222,297.222,808.333,38.889,N
1041,-0.150,0.705,0.055,80.556,88.889,302.778,919.444,111.111,N
1042,-0.290,0.570,-0.025,80.556,102.778,311.111,886.111,33.333,N
1043,-0.275,0.560,0.030,63.889,72.222,288.889,900.000,13.889,N
1044,-0.130,0.695,0.065,72.222,77.778,300.000,877.778,22.222,N
1045,-0.255,-0.050,0.250,186.111,100.000,369.444,594.444,283.333,V
1046,-0.305,0.495,0.025,94.444,83.333,288.889,1136.111,541.667,N
1047,-0.275,0.555,-0.030,94.444,75.000,311.111,838.889,297.222,N
1048,-0.270,0.570,0.070,91.667,83.333,302.778,911.111,72.222,N
1049,-0.140,0.675,0.070,86.111,77.778,286.111,863.889,47.222,N
1050,-0.250,0.615,0.030,91.667,83.333,308.333,850.000,13.889,N
1051,-0.205,0.605,0.170,88.889,88.889,333.333,905.556,55.556,N
1052,-0.165,0.655,0.060,77.778,97.222,316.667,950.000,44.444,N
1053,-0.240,0.605,0.070,77.778,83.333,300.000,900.000,50.000,N
1054,-0.245,0.545,0.080,100.000,97.222,305.556,791.667,108.333,N
1055,-0.185,0.520,0.105,111.111,102.778,336.111,877.778,86.111,N
1056,-0.170,0.610,0.095,66.667,80.556,277.778,886.111,8.333,N
1057,-0.190,0.645,0.155,69.444,80.556,302.778,908.333,22.222,N
1058,-0.115,0.670,0.080,108.333,94.444,338.889,938.889,30.556,N
1059,-0.250,0.560,0.030,83.333,86.111,297.222,905.556,33.333,N
1060,-0.255,0.605,0.085,77.778,66.667,241.667,816.667,88.889,N
1061,-0.240,0.590,0.005,72.222,91.667,300.000,775.000,41.667,N
1062,-0.280,0.560,0.015,83.333,88.889,344.444,891.667,116.667,N
1063,-0.205,0.595,0.050,83.333,102.778,294.444,900.000,8.333,N
1064,-0.235,0.615,0.070,66.667,69.444,308.333,916.667,16.667,N
1065,-0.155,0.690,0.090,80.556,75.000,294.444,897.222,19.444,N
1066,-0.185,0.640,0.120,69.444,97.222,305.556,875.000,22.222,N
1067,-0.260,0.655,0.025,66.667,66.667,280.556,808.333,66.667,N
1068,-0.285,0.545,0.035,75.000,88.889,277.778,827.778,19.444,N
1069,-0.295,0.585,-0.020,97.222,88.889,316.667,941.667,113.889,N
1070,-0.285,0.545,0.025,86.111,83.333,325.000,905.556,36.111,N
1071,-0.200,0.635,0.040,75.000,80.556,319.444,919.444,13.889,N
1072,-0.190,0.600,0.065,113.889,100.000,338.889,972.222,52.778,N
1073,-0.140,0.660,0.160,75.000,75.000,316.667,980.556,8.333,N
1074,-0.085,0.735,0.075,80.556,102.778,283.333,869.444,111.111,N
1075,-0.200,0.645,0.020,91.667,83.333,333.333,847.222,22.222,N
1076,-0.225,0.660,0.100,102.778,91.667,333.333,991.667,144.444,N
1077,-0.110,0.730,0.080,72.222,83.333,319.444,955.556,36.111,N
1078,-0.150,0.705,0.140,77.778,97.222,352.778,1005.556,50.000,N
1079,-0.165,0.675,0.130,113.889,113.889,355.556,1052.778,47.222,N
1080,0.130,-1.360,0.505,50.000,0.000,247.222,536.111,516.667,V
1081,-0.150,0.685,0.095,86.111,83.333,302.778,1219.444,683.333,N
1082,-0.170,0.655,0.140,83.333,111.111,352.778,911.111,308.333,N
1083,-0.120,0.765,0.095,91.667,102.778,358.333,1075.000,163.889,N
1084,-0.145,0.685,0.085,91.667,83.333,338.889,1019.444,55.556,N
1085,-0.095,0.765,0.160,94.444,80.556,322.222,1033.333,13.889,N
1086,-0.200,0.680,0.040,91.667,83.333,280.556,952.778,80.556,N
1087,-0.250,0.675,0.100,69.444,66.667,275.000,850.000,102.778,N
1088,-0.130,0.765,0.035,80.556,94.444,372.222,883.333,33.333,N
1089,-0.300,0.565,-0.035,86.111,113.889,383.333,1205.556,322.222,N
1090,-0.255,0.570,0.085,69.444,105.556,311.111,983.333,222.222,N
1091,-0.280,0.585,-0.030,80.556,100.000,344.444,1016.667,33.333,N
1092,-0.250,0.665,0.090,83.333,94.444,308.333,950.000,66.667,N
1093,-0.100,0.770,0.070,69.444,94.444,316.667,872.222,77.778,N
1094,-0.275,0.615,0.040,72.222,77.778,302.778,900.000,27.778,N
1095,-0.180,0.735,0.170,86.111,94.444,383.333,1000.000,100.000,N
1096,-0.170,0.790,0.080,88.889,94.444,305.556,1066.667,66.667,N
1097,-0.235,0.660,0.125,94.444,86.111,311.111,922.222,144.444,N
1098,-0.055,0.910,0.155,94.444,91.667,297.222,900.000,22.222,N
1099,-0.220,0.685,0.085,75.000,77.778,300.000,877.778,22.222,N
1100,-0.045,0.880,0.130,63.889,100.000,277.778,891.667,13.889,N
1101,-0.250,0.690,0.050,63.889,83.333,308.333,900.000,8.333,N
1102,-0.080,0.875,0.270,86.111,105.556,330.556,986.111,86.111,N
1103,-0.220,0.725,0.040,94.444,86.111,319.444,944.444,41.667,N
1104,-0.195,0.755,0.060,86.111,100.000,319.444,958.333,13.889,N
1105,-0.180,0.685,0.205,69.444,83.333,288.889,919.444,38.889,N
1106,0.005,0.855,0.105,72.222,91.667,297.222,816.667,102.778,N
1107,-0.165,0.740,0.130,69.444,75.000,313.889,847.222,30.556,N
1108,0.015,0.935,0.270,52.778,77.778,275.000,866.667,19.444,N
1109,-0.190,0.785,0.105,63.889,94.444,325.000,994.444,127.778,N
1110,-0.110,0.880,0.115,83.333,83.333,305.556,972.222,22.222,N
1111,-0.240,0.715,0.010,63.889,75.000,291.667,894.444,77.778,N
1112,-0.175,0.720,0.210,75.000,63.889,275.000,847.222,47.222,N
1113,0.160,0.095,0.345,197.222,83.333,311.111,441.667,405.556,V
1114,-0.145,0.735,0.190,66.667,86.111,311.111,1244.444,802.778,N
1115,-0.150,0.725,0.015,94.444,102.778,325.000,902.778,341.667,N
1116,-0.200,0.690,0.110,80.556,94.444,283.333,1077.778,175.000,N
1117,-0.020,0.905,0.125,63.889,69.444,244.444,883.333,194.444,N
1118,-0.210,0.755,0.080,55.556,88.889,269.444,861.111,22.222,N
1119,-0.120,0.770,0.275,58.333,63.889,297.222,800.000,61.111,N
1120,-0.100,0.745,0.095,86.111,80.556,300.000,830.556,30.556,N
1121,-0.205,0.700,0.075,66.667,69.444,275.000,877.778,47.222,N
1122,-0.070,0.875,0.175,83.333,83.333,308.333,902.778,25.000,N
1123,-0.320,0.630,0.010,69.444,75.000,300.000,938.889,36.111,N
1124,-0.170,0.820,0.235,80.556,77.778,319.444,911.111,27.778,N
1125,-0.210,0.705,0.035,72.222,88.889,263.889,905.556,5.556,N
1126,-0.230,0.635,0.125,72.222,91.667,286.111,850.000,55.556,N
1127,0.050,1.015,0.335,55.556,77.778,272.222,797.222,52.778,N
1128,-0.160,0.715,0.130,72.222,100.000,305.556,833.333,36.111,N
1129,-0.145,0.765,0.275,86.111,83.333,313.889,883.333,50.000,N
1130,0.055,0.315,0.550,58.333,102.778,372.222,700.000,183.333,V
1131,-0.165,0.705,0.145,75.000,75.000,313.889,1122.222,422.222,N
1132,0.060,1.005,0.240,83.333,80.556,286.111,841.667,280.556,N
1133,-0.135,0.760,0.175,61.111,66.667,255.556,808.333,33.333,N
1134,-0.020,0.900,0.375,72.222,72.222,294.444,800.000,8.333,N
1135,-0.015,0.890,0.210,80.556,86.111,325.000,872.222,72.222,N
1136,-0.120,0.750,0.195,69.444,83.333,325.000,905.556,33.333,N
1137,-0.020,0.850,0.310,75.000,75.000,288.889,986.111,80.556,N
1138,-0.130,0.640,0.140,80.556,83.333,280.556,841.667,144.444,N
1139,-0.190,0.690,0.135,94.444,80.556,297.222,841.667,0.000,N
1140,-0.085,0.750,0.225,63.889,86.111,263.889,805.556,36.111,N
1141,-0.150,0.715,0.195,69.444,75.000,300.000,825.000,19.444,N
1142,-0.130,0.710,0.220,91.667,97.222,319.444,905.556,80.556,N
1143,-0.010,0.800,0.190,69.444,86.111,308.333,913.889,8.333,N
1144,-0.185,0.655,0.095,69.444,72.222,294.444,991.667,77.778,N
1145,-0.215,0.570,0.050,75.000,80.556,305.556,875.000,116.667,N
1146,-0.195,0.695,0.050,66.667,88.889,311.111,927.778,52.778,N
1147,-0.290,0.620,0.005,69.444,77.778,305.556,869.444,58.333,N
1148,-0.270,0.620,0.080,77.778,66.667,291.667,877.778,8.333,N
1149,-0.190,0.715,0.075,91.667,80.556,308.333,880.556,2.778,N
1150,-0.210,0.670,0.060,77.778,86.111,316.667,933.333,52.778,N
1151,-0.165,0.735,0.155,86.111,80.556,288.889,958.333,25.000,N
1152,-0.195,0.655,0.090,75.000,77.778,300.000,888.889,69.444,N
1153,-0.180,0.620,0.135,75.000,75.000,277.778,888.889,0.000,N
1154,-0.135,0.745,0.155,88.889,83.333,305.556,872.222,16.667,N
1155,-0.160,0.710,0.130,69.444,83.333,308.333,866.667,5.556,N
1156,-0.130,0.730,0.145,83.333,94.444,369.444,930.556,63.889,N
1157,-0.135,0.755,0.210,116.667,100.000,380.556,1211.111,280.556,N
1158,-0.105,0.810,0.195,83.333,88.889,275.000,1022.222,188.889,N
1159,-0.065,0.850,0.255,86.111,66.667,288.889,816.667,205.556,N
1160,-0.035,0.785,0.330,69.444,66.667,277.778,830.556,13.889,N
1161,0.015,0.920,0.240,77.778,83.333,275.000,866.667,36.111,N
1162,-0.155,0.725,0.130,86.111,88.889,294.444,888.889,22.222,N
1163,-0.200,0.685,0.095,69.444,77.778,333.333,908.333,19.444,N
1164,-0.150,0.725,0.155,75.000,100.000,325.000,1047.222,138.889,N
1165,-0.215,0.655,0.040,63.889,66.667,255.556,905.556,141.667,N
1166,-0.230,0.625,0.035,72.222,83.333,272.222,805.556,100.000,N
1167,-0.270,-0.020,0.375,188.889,105.556,338.889,569.444,236.111,V
1168,-0.160,0.700,0.010,80.556,100.000,319.444,1197.222,627.778,N
1169,-0.275,0.620,0.020,69.444,77.778,288.889,936.111,261.111,N
1170,-0.250,0.680,0.120,72.222,80.556,308.333,897.222,38.889,N
1171,-0.105,0.715,0.080,83.333,83.333,294.444,966.667,69.444,N
1172,-0.225,0.635,0.060,77.778,72.222,294.444,841.667,125.000,N
1173,-0.230,0.675,0.100,61.111,72.222,313.889,866.667,25.000,N
1174,-0.060,0.845,0.165,94.444,75.000,300.000,916.667,50.000,N
1175,-0.225,0.670,0.095,102.778,100.000,325.000,908.333,8.333,N
1176,-0.175,0.710,0.170,77.778,69.444,277.778,894.444,13.889,N
1177,-0.005,0.880,0.230,63.889,83.333,327.778,902.778,8.333,N
1178,-0.220,0.710,0.090,94.444,86.111,297.222,1030.556,127.778,N
1179,-0.220,0.695,0.170,88.889,80.556,302.778,855.556,175.000,N
1180,0.225,-1.370,0.500,47.222,0.000,236.111,477.778,377.778,V
1181,-0.250,0.605,0.010,66.667,97.222,302.778,1238.889,761.111,N
1182,-0.130,0.705,0.285,72.222,94.444,283.333,952.778,286.111,N
1183,-0.075,0.830,0.055,100.000,80.556,308.333,897.222,55.556,N
1184,-0.190,0.700,0.140,83.333,91.667,347.222,966.667,69.444,N
1185,0.035,0.975,0.320,61.111,75.000,277.778,961.111,5.556,N
1186,-0.180,0.710,0.090,75.000,72.222,283.333,811.111,150.000,N
1187,0.090,-0.020,0.340,191.667,88.889,350.000,436.111,375.000,V
1188,-0.095,0.690,-0.060,183.333,100.000,311.111,1288.889,852.778,N
1189,-0.295,0.520,0.045,66.667,88.889,294.444,1002.778,286.111,N
1190,-0.035,0.845,0.220,61.111,88.889,277.778,958.333,44.444,N
1191,-0.255,0.670,0.010,83.333,102.778,325.000,925.000,33.333,N
1192,-0.145,0.760,0.270,61.111,69.444,269.444,922.222,2.778,N
1193,-0.255,0.625,-0.040,83.333,97.222,291.667,825.000,97.222,N
1194,-0.295,0.625,0.145,66.667,83.333,333.333,900.000,75.000,N
1195,-0.130,0.770,0.015,77.778,83.333,277.778,963.889,63.889,N
1196,-0.310,0.610,0.045,80.556,69.444,308.333,919.444,44.444,N
1197,-0.090,0.810,0.105,69.444,75.000,286.111,875.000,44.444,N
1198,-0.295,0.660,0.000,94.444,94.444,333.333,938.889,63.889,N
1199,-0.050,0.905,0.290,63.889,66.667,269.444,888.889,50.000,N
1200,-0.220,0.625,0.000,88.889,91.667,297.222,872.222,16.667,N
1201,-0.245,0.650,0.190,69.444,91.667,319.444,872.222,0.000,N
1202,-0.045,0.175,0.415,197.222,86.111,361.111,572.222,300.000,V
1203,-0.280,0.685,0.120,66.667,83.333,341.667,1244.444,672.222,N
1204,0.175,2.390,-0.300,58.333,116.667,405.556,588.889,655.556,V
1205,-0.245,0.685,0.140,69.444,80.556,308.333,1300.000,711.111,N
1206,-0.045,2.340,-0.090,194.444,116.667,405.556,508.333,791.667,V
1207,-0.170,0.725,0.055,194.444,88.889,308.333,1119.444,611.111,N
1208,-0.225,0.680,0.220,186.111,86.111,327.778,822.222,297.222,N
1209,-0.120,0.785,-0.030,75.000,94.444,316.667,1108.333,286.111,N
1210,-0.320,0.590,0.095,80.556,88.889,336.111,936.111,172.222,N
1211,-0.010,0.955,0.130,75.000,80.556,319.444,911.111,25.000,N
1212,-0.300,0.665,0.025,63.889,69.444,272.222,905.556,5.556,N
1213,-0.035,0.965,0.315,69.444,97.222,305.556,825.000,80.556,N
1214,-0.260,0.685,0.050,91.667,88.889,358.333,938.889,113.889,N
1215,-0.300,-0.010,0.440,183.333,102.778,405.556,641.667,297.222,V
1216,-0.285,0.635,-0.015,69.444,80.556,319.444,1422.222,780.556,N
1217,-0.275,0.650,0.135,80.556,69.444,291.667,955.556,466.667,N
1218,-0.170,0.715,0.015,86.111,91.667,316.667,883.333,72.222,N
1219,-0.210,0.760,0.155,80.556,80.556,305.556,869.444,13.889,N
1220,-0.195,0.755,0.130,80.556,97.222,305.556,930.556,61.111,N
1221,-0.300,0.705,-0.020,86.111,94.444,383.333,1086.111,155.556,N
1222,-0.305,0.470,0.025,97.222,108.333,350.000,1100.000,13.889,N
1223,-0.125,0.805,0.175,63.889,97.222,333.333,963.889,136.111,N
1224,-0.260,0.690,0.020,72.222,80.556,333.333,897.222,66.667,N
1225,-0.230,0.670,0.205,75.000,75.000,319.444,963.889,66.667,N
1226,-0.065,0.850,0.145,86.111,94.444,322.222,930.556,33.333,N
1227,-0.155,0.745,0.210,94.444,102.778,375.000,1008.333,77.778,N
1228,-0.145,0.845,0.120,91.667,105.556,344.444,1088.889,80.556,N
1229,0.165,-1.390,0.500,55.556,2.778,291.667,805.556,283.333,V
1230,-0.100,0.830,0.130,75.000,69.444,291.667,1108.333,302.778,N
1231,-0.105,0.825,0.185,88.889,105.556,311.111,922.222,186.111,N
1232,-0.080,0.855,0.215,83.333,72.222,294.444,861.111,61.111,N
1233,-0.095,0.830,0.245,83.333,75.000,347.222,897.222,36.111,N
1234,-0.080,0.800,0.180,83.333,102.778,313.889,988.889,91.667,N
1235,-0.150,0.700,0.200,100.000,77.778,313.889,930.556,58.333,N
1236,-0.075,0.810,0.175,77.778,94.444,319.444,977.778,47.222,N
1237,-0.140,0.740,0.155,80.556,72.222,294.444,855.556,122.222,N
1238,0.010,0.910,0.315,69.444,77.778,272.222,886.111,30.556,N
1239,-0.145,0.725,0.190,61.111,72.222,311.111,827.778,58.333,N
1240,-0.170,0.670,0.125,116.667,94.444,369.444,969.444,141.667,N
1241,-0.180,0.640,0.140,88.889,83.333,308.333,1025.000,55.556,N
1242,-0.150,0.655,0.145,97.222,80.556,288.889,961.111,63.889,N
1243,-0.130,0.790,0.190,80.556,86.111,261.111,847.222,113.889,N
1244,-0.065,0.755,0.170,97.222,80.556,275.000,833.333,13.889,N
1245,-0.150,0.670,0.175,63.889,69.444,308.333,830.556,2.778,N
1246,-0.155,0.170,0.405,177.778,113.889,322.222,602.778,227.778,V
1247,-0.170,0.675,0.125,108.333,80.556,333.333,1241.667,638.889,N
1248,0.245,2.340,-0.315,58.333,108.333,405.556,602.778,638.889,V
1249,-0.080,0.790,0.170,94.444,80.556,277.778,1205.556,602.778,N
1250,-0.080,0.895,0.195,88.889,77.778,300.000,858.333,347.222,N
1251,-0.110,0.715,0.265,94.444,77.778,258.333,863.889,5.556,N
1252,-0.130,0.750,0.275,97.222,88.889,272.222,861.111,2.778,N
1253,-0.085,0.820,0.195,63.889,94.444,325.000,863.889,2.778,N
1254,-0.120,0.715,0.140,66.667,91.667,286.111,902.778,38.889,N
1255,0.085,-1.425,0.460,55.556,2.778,275.000,555.556,347.222,V
1256,-0.095,0.625,0.065,66.667,88.889,311.111,1233.333,677.778,N
1257,-0.265,0.540,0.165,88.889,69.444,261.111,863.889,369.444,N
1258,-0.155,0.635,0.210,63.889,77.778,280.556,830.556,33.333,N
1259,-0.035,0.730,0.180,61.111,63.889,277.778,875.000,44.444,N
1260,-0.060,0.690,0.200,66.667,105.556,350.000,861.111,13.889,N
1261,-0.075,0.845,0.300,94.444,80.556,322.222,963.889,102.778,N
1262,-0.105,0.700,0.205,144.444,72.222,316.667,997.222,33.333,N
1263,-0.100,0.795,0.170,100.000,63.889,286.111,952.778,44.444,N
1264,-0.020,0.795,0.315,94.444,72.222,263.889,813.889,138.889,N
1265,-0.115,0.785,0.120,91.667,77.778,272.222,813.889,0.000,N
1266,-0.190,0.625,0.155,94.444,80.556,255.556,836.111,22.222,N
1267,-0.075,0.875,0.270,55.556,97.222,297.222,894.444,58.333,N
1268,-0.130,0.775,0.155,100.000,83.333,308.333,980.556,86.111,N
1269,-0.135,0.755,0.170,86.111,80.556,291.667,919.444,61.111,N
1270,-0.035,0.870,0.265,83.333,80.556,272.222,847.222,72.222,N
1271,-0.200,0.685,0.065,83.333,77.778,288.889,833.333,13.889,N
1272,-0.210,0.635,0.160,77.778,97.222,336.111,905.556,72.222,N
1273,-0.110,0.785,0.060,72.222,80.556,308.333,913.889,8.333,N
1274,-0.280,0.680,0.040,94.444,86.111,311.111,925.000,11.111,N
1275,-0.160,0.770,0.170,83.333,80.556,308.333,922.222,2.778,N
1276,-0.250,0.710,0.020,80.556,77.778,291.667,961.111,38.889,N
1277,-0.240,0.740,0.155,77.778,86.111,288.889,883.333,77.778,N
1278,-0.115,0.820,0.055,75.000,88.889,311.111,847.222,36.111,N
1279,-0.295,0.600,0.025,80.556,72.222,319.444,916.667,69.444,N
1280,-0.125,0.840,0.140,77.778,77.778,327.778,936.111,19.444,N
1281,-0.310,0.650,0.005,66.667,77.778,308.333,938.889,2.778,N
1282,-0.260,0.695,0.110,72.222,88.889,377.778,983.333,44.444,N
1283,-0.240,0.695,-0.040,72.222,88.889,280.556,1022.222,38.889,N
1284,-0.310,0.665,0.070,72.222,77.778,266.667,880.556,141.667,N
1285,-0.135,0.840,0.065,63.889,88.889,311.111,825.000,55.556,N
1286,-0.215,0.730,0.075,83.333,72.222,313.889,933.333,108.333,N
1287,-0.080,0.885,0.150,63.889,91.667,333.333,900.000,33.333,N
1288,-0.290,0.685,-0.015,63.889,77.778,333.333,947.222,47.222,N
1289,-0.150,0.870,0.165,80.556,86.111,308.333,1008.333,61.111,N
1290,-0.305,0.690,-0.035,72.222,94.444,308.333,900.000,108.333,N
1291,-0.235,0.690,0.170,150.000,63.889,283.333,750.000,150.000,N
1292,-0.155,0.765,0.055,75.000,80.556,355.556,952.778,202.778,N
1293,-0.210,0.730,0.140,83.333,97.222,386.111,1177.778,225.000,N
1294,-0.015,0.905,0.120,75.000,100.000,325.000,1077.778,100.000,N
1295,-0.205,0.700,0.160,88.889,80.556,325.000,947.222,130.556,N
1296,-0.020,0.940,0.205,72.222,75.000,266.667,913.889,33.333,N
1297,-0.215,0.720,0.115,61.111,63.889,275.000,841.667,72.222,N
1298,-0.190,0.750,0.225,80.556,75.000,277.778,838.889,2.778,N
1299,-0.005,0.145,0.435,191.667,100.000,383.333,522.222,316.667,V
1300,-0.190,0.710,0.130,75.000,88.889,375.000,1550.000,1027.778,N
1301,-0.150,0.740,0.065,77.778,88.889,283.333,1002.778,547.222,N
1302,-0.290,0.625,0.060,80.556,63.889,305.556,925.000,77.778,N
1303,-0.145,0.790,0.055,69.444,80.556,305.556,886.111,38.889,N
1304,-0.285,0.660,0.065,66.667,69.444,294.444,861.111,25.000,N
1305,-0.150,0.785,0.230,80.556,83.333,341.667,902.778,41.667,N
1306,-0.130,0.800,0.155,77.778,97.222,319.444,991.667,88.889,N
1307,-0.145,0.780,0.180,86.111,86.111,325.000,958.333,33.333,N
1308,-0.060,0.860,0.190,72.222,97.222,302.778,902.778,55.556,N
1309,-0.230,0.675,0.090,69.444,69.444,291.667,913.889,11.111,N
1310,-0.215,0.740,0.185,66.667,77.778,269.444,850.000,63.889,N
1311,-0.190,0.675,0.055,72.222,72.222,300.000,822.222,27.778,N
1312,-0.180,0.710,0.115,72.222,83.333,325.000,863.889,41.667,N
1313,-0.045,0.925,0.200,77.778,91.667,316.667,955.556,91.667,N
1314,-0.140,0.785,0.180,100.000,86.111,308.333,1008.333,52.778,N
1315,-0.075,0.875,0.285,80.556,83.333,311.111,933.333,75.000,N
1316,0.015,0.965,0.235,61.111,69.444,272.222,827.778,105.556,N
1317,-0.105,0.785,0.170,75.000,86.111,297.222,794.444,33.333,N
1318,-0.055,0.810,0.180,61.111,72.222,280.556,850.000,55.556,N
1319,-0.095,0.835,0.195,63.889,83.333,311.111,905.556,55.556,N
1320,-0.050,0.120,0.565,188.889,100.000,388.889,572.222,333.333,V
1321,-0.045,0.790,0.265,75.000,97.222,325.000,1369.444,797.222,N
1322,-0.070,0.795,0.290,61.111,66.667,269.444,888.889,480.556,N
1323,-0.005,0.915,0.280,69.444,61.111,255.556,805.556,83.333,N
1324,-0.015,0.860,0.320,63.889,83.333,308.333,850.000,44.444,N
1325,-0.045,0.850,0.220,69.444,80.556,305.556,872.222,22.222,N
1326,-0.120,0.780,0.185,83.333,100.000,347.222,994.444,122.222,N
1327,-0.165,0.700,0.135,88.889,83.333,308.333,988.889,5.556,N
1328,0.180,2.075,-0.370,58.333,116.667,405.556,625.000,363.889,V
1329,-0.130,0.700,0.205,75.000,75.000,300.000,1144.444,519.444,N
1330,-0.065,2.205,-0.210,197.222,113.889,405.556,544.444,600.000,V
1331,-0.145,0.660,0.110,66.667,83.333,291.667,1144.444,600.000,N
1332,-0.195,0.685,0.065,66.667,86.111,311.111,866.667,277.778,N
1333,-0.230,0.620,0.105,75.000,77.778,316.667,913.889,47.222,N
1334,-0.205,0.650,0.190,86.111,83.333,327.778,927.778,13.889,N
1335,-0.180,0.655,0.065,83.333,72.222,308.333,963.889,36.111,N
1336,-0.235,0.635,0.090,86.111,80.556,283.333,902.778,61.111,N
1337,-0.080,0.810,0.175,63.889,69.444,275.000,794.444,108.333,N
1338,0.190,-1.385,0.380,50.000,2.778,233.333,469.444,325.000,V
1339,-0.155,0.735,0.075,66.667,86.111,316.667,1233.333,763.889,N
1340,-0.170,0.690,0.150,77.778,94.444,338.889,1005.556,227.778,N
1341,-0.080,0.775,0.150,91.667,100.000,344.444,1019.444,13.889,N
1342,-0.135,0.750,0.170,83.333,83.333,288.889,927.778,91.667,N
1343,-0.140,0.720,0.190,75.000,69.444,261.111,852.778,75.000,N
1344,-0.095,0.775,0.135,72.222,97.222,288.889,811.111,41.667,N
1345,-0.225,0.665,0.070,97.222,108.333,350.000,930.556,119.444,N
1346,-0.205,0.755,0.120,83.333,100.000,388.889,1019.444,88.889,N
1347,0.165,-1.290,0.535,63.889,0.000,325.000,741.667,277.778,V
1348,-0.165,0.745,0.210,80.556,86.111,302.778,1322.222,580.556,N
1349,-0.060,0.840,0.320,75.000,86.111,261.111,927.778,394.444,N
1350,-0.040,0.855,0.205,91.667,80.556,302.778,830.556,97.222,N
1351,-0.225,0.725,0.120,94.444,83.333,313.889,705.556,125.000,A
1352,-0.090,0.775,0.195,75.000,86.111,327.778,1133.333,427.778,N
1353,-0.295,0.600,0.040,86.111,91.667,355.556,955.556,177.778,N
1354,-0.260,0.655,0.115,88.889,83.333,319.444,1086.111,130.556,N
1355,-0.215,0.695,0.025,72.222,97.222,302.778,950.000,136.111,N
1356,-0.310,0.675,0.010,66.667,80.556,291.667,911.111,38.889,N
1357,-0.250,0.650,0.110,80.556,75.000,313.889,897.222,13.889,N
1358,-0.280,0.635,-0.030,105.556,86.111,341.667,902.778,5.556,N
1359,-0.285,0.600,0.060,94.444,86.111,344.444,1011.111,108.333,N
1360,-0.220,0.660,-0.030,97.222,97.222,358.333,1138.889,127.778,N
1361,-0.370,0.540,-0.065,94.444,94.444,333.333,1130.556,8.333,N
1362,-0.260,0.665,-0.010,63.889,63.889,272.222,950.000,180.556,N
1363,-0.360,0.585,-0.065,100.000,86.111,313.889,886.111,63.889,N
1364,-0.335,0.630,-0.005,75.000,88.889,322.222,925.000,38.889,N
1365,-0.410,0.505,-0.145,86.111,86.111,347.222,997.222,72.222,N
1366,-0.395,0.490,-0.085,127.778,105.556,405.556,1172.222,175.000,N
1367,-0.285,0.640,-0.075,69.444,105.556,347.222,1158.333,13.889,N
1368,-0.360,0.565,-0.020,72.222,94.444,302.778,902.778,255.556,N
1369,-0.110,0.875,0.205,69.444,72.222,286.111,866.667,36.111,N
1370,-0.085,0.900,0.295,63.889,72.222,308.333,894.444,27.778,N
1371,0.135,1.180,0.525,80.556,97.222,336.111,966.667,72.222,N
1372,0.085,0.985,0.285,100.000,97.222,402.778,1055.556,88.889,N
1373,0.000,0.955,0.375,97.222,94.444,336.111,1125.000,69.444,N
1374,-0.035,0.880,0.125,72.222,80.556,288.889,922.222,202.778,N
1375,-0.210,0.675,0.140,72.222,75.000,319.444,855.556,66.667,N
1376,0.005,0.880,0.160,77.778,86.111,322.222,950.000,94.444,N
1377,-0.190,0.715,0.075,69.444,91.667,347.222,994.444,44.444,N
1378,-0.155,0.770,0.110,69.444,80.556,286.111,969.444,25.000,N
1379,-0.225,0.660,0.100,80.556,75.000,333.333,955.556,13.889,N
1380,-0.080,0.850,0.315,58.333,72.222,280.556,933.333,22.222,N
1381,-0.045,0.910,0.225,75.000,75.000,280.556,863.889,69.444,N
1382,-0.100,0.825,0.220,83.333,83.333,294.444,894.444,30.556,N
1383,-0.075,0.820,0.215,80.556,77.778,277.778,930.556,36.111,N
1384,-0.115,0.630,0.130,63.889,75.000,313.889,930.556,0.000,N
1385,-0.250,0.685,0.090,102.778,83.333,322.222,925.000,5.556,N
1386,-0.085,0.885,0.080,77.778,86.111,311.111,994.444,69.444,N
1387,-0.265,0.715,0.115,58.333,72.222,322.222,894.444,100.000,N
1388,-0.240,0.815,0.105,63.889,69.444,258.333,850.000,44.444,N
1389,-0.115,0.850,0.160,75.000,66.667,308.333,869.444,19.444,N
1390,-0.030,0.815,0.120,63.889,66.667,272.222,916.667,47.222,N
1391,-0.150,0.690,0.185,102.778,83.333,308.333,908.333,8.333,N
1392,-0.070,0.800,0.120,80.556,91.667,336.111,922.222,13.889,N
1393,-0.175,0.735,0.210,69.444,75.000,286.111,927.778,5.556,N
1394,-0.060,0.860,0.140,72.222,91.667,263.889,850.000,77.778,N
1395,0.010,0.910,0.220,55.556,88.889,311.111,833.333,16.667,N
1396,0.015,0.835,0.340,100.000,102.778,344.444,913.889,80.556,N
1397,0.220,2.300,-0.350,58.333,116.667,402.778,652.778,261.111,V
1398,0.685,1.490,1.005,55.556,94.444,286.111,1255.556,602.778,N
1399,0.020,0.475,-0.325,194.444,94.444,291.667,850.000,405.556,N
1400,0.340,0.820,0.670,69.444,72.222,261.111,886.111,36.111,N
1401,-0.445,-0.050,-0.405,175.000,66.667,288.889,783.333,102.778,N
1402,0.565,1.565,1.710,66.667,75.000,213.889,850.000,66.667,N
1403,0.885,1.315,0.710,119.444,97.222,350.000,905.556,55.556,N
1404,1.115,1.530,2.655,88.889,-1215519.444,-1185397.222,886.111,19.444,N
1405,0.420,0.775,1.115,191.667,75.000,388.889,869.444,16.667,N
1406,1.125,0.730,1.010,58.333,2.778,108.333,536.111,333.333,V
1407,0.305,0.245,0.115,188.889,97.222,105.556,1230.556,694.444,N
1408,-0.155,-0.915,-0.155,1219077.778,91.667,-1219027.778,877.778,352.778,N
1409,-0.155,-1.320,-0.155,1219961.111,80.556,-1219916.667,883.333,5.556,N
1410,-0.155,-1.105,-0.155,1220802.778,80.556,-1220755.556,841.667,41.667,N
1411,-0.895,-0.205,-0.655,72.222,91.667,333.333,891.667,50.000,N
1412,-0.755,0.075,0.070,69.444,91.667,361.111,850.000,41.667,N
1413,-0.125,0.085,0.515,172.222,94.444,375.000,569.444,280.556,V
1414,-0.185,0.445,0.115,197.222,94.444,347.222,1308.333,738.889,N
1415,-0.300,0.535,0.025,83.333,88.889,269.444,869.444,438.889,N
1416,0.980,1.940,2.655,80.556,-1226097.222,-1195975.000,847.222,22.222,N
1417,-0.155,2.605,0.750,1226702.778,1226761.111,1226761.111,563.889,283.333,V
1418,0.805,0.980,0.360,158.333,116.667,127.778,1361.111,797.222,N
1419,-0.155,-0.690,-0.840,1229113.889,105.556,363.889,1050.000,311.111,N
1420,-0.670,0.065,-0.550,66.667,100.000,291.667,933.333,116.667,N
1421,-0.730,0.115,0.105,72.222,83.333,302.778,869.444,63.889,N
1422,-0.275,0.585,0.545,66.667,83.333,302.778,863.889,5.556,N
1423,0.145,0.810,0.140,194.444,83.333,325.000,852.778,11.111,N
1424,-0.460,0.345,0.085,69.444,77.778,341.667,894.444,41.667,N
1425,0.395,2.175,-0.390,58.333,116.667,405.556,650.000,244.444,V
1426,-0.465,0.310,0.110,77.778,97.222,338.889,1238.889,588.889,N
1427,-0.400,0.420,-0.130,75.000,75.000,297.222,866.667,372.222,N
1428,-0.475,0.400,0.110,86.111,108.333,363.889,894.444,27.778,N
1429,0.060,0.885,0.270,86.111,108.333,352.778,1050.000,155.556,N
1430,-0.205,0.610,0.190,94.444,88.889,358.333,1038.889,11.111,N
1431,0.060,0.935,0.250,72.222,100.000,291.667,927.778,111.111,N
1432,-0.375,0.455,-0.075,66.667,97.222,258.333,897.222,30.556,N
1433,-0.475,1.995,-0.560,191.667,116.667,405.556,580.556,316.667,V
1434,-0.585,0.090,-0.580,183.333,94.444,336.111,1052.778,472.222,N
1435,-0.850,-0.015,-0.320,72.222,83.333,327.778,911.111,141.667,N
1436,-0.180,0.740,0.355,97.222,91.667,372.222,972.222,61.111,N
1437,-0.295,0.440,-0.250,102.778,100.000,308.333,922.222,50.000,N
1438,-0.180,0.840,1.125,61.111,72.222,277.778,888.889,33.333,N
1439,0.550,2.620,-0.510,197.222,116.667,125.000,569.444,319.444,V
1440,0.285,1.255,1.615,72.222,69.444,305.556,1088.889,519.444,N
1441,0.115,0.610,-0.325,194.444,108.333,108.333,875.000,213.889,N
1442,-0.605,0.410,0.175,86.111,94.444,350.000,991.667,116.667,N
1443,-0.425,0.415,-0.155,75.000,97.222,355.556,972.222,19.444,N
1444,-0.380,0.525,0.940,94.444,75.000,369.444,888.889,83.333,N
1445,0.240,-0.795,0.345,136.111,0.000,38.889,811.111,77.778,N
1446,-0.785,0.015,-0.145,72.222,94.444,300.000,850.000,38.889,N
1447,-0.170,0.665,-0.050,91.667,69.444,180.556,802.778,47.222,N
1448,-0.210,0.655,0.395,75.000,80.556,288.889,861.111,58.333,N
1449,0.230,1.175,0.440,72.222,91.667,308.333,905.556,44.444,N
1450,-0.030,0.710,0.240,72.222,86.111,325.000,908.333,2.778,N
1451,0.275,-0.950,0.650,55.556,0.000,250.000,566.667,341.667,V
1452,-0.025,0.725,0.275,91.667,102.778,322.222,1086.111,519.444,N
1453,-0.080,0.780,0.320,72.222,94.444,300.000,930.556,155.556,N
1454,-0.145,0.700,0.130,72.222,75.000,286.111,800.000,130.556,N
1455,-0.075,0.855,0.190,69.444,75.000,266.667,747.222,52.778,N
1456,-0.020,0.880,0.865,66.667,86.111,352.778,833.333,86.111,N
1457,0.875,2.890,-0.095,55.556,105.556,113.889,619.444,213.889,V
1458,0.400,1.365,1.155,66.667,75.000,297.222,1130.556,511.111,N
1459,0.305,2.055,-0.955,197.222,113.889,116.667,605.556,525.000,V
1460,-0.650,0.175,0.105,61.111,75.000,300.000,1050.000,444.444,N
1461,-0.415,0.395,0.125,69.444,63.889,261.111,783.333,266.667,N
1462,0.040,0.930,0.470,63.889,77.778,280.556,722.222,61.111,N
1463,0.025,0.785,0.270,83.333,105.556,350.000,788.889,66.667,N
1464,0.370,1.165,0.670,86.111,91.667,300.000,969.444,180.556,N
1465,0.055,0.735,0.260,125.000,91.667,311.111,902.778,66.667,N
1466,0.275,1.325,1.225,63.889,66.667,255.556,913.889,11.111,N
1467,-0.055,0.635,-0.005,197.222,94.444,305.556,819.444,94.444,N
1468,-0.080,0.790,0.530,63.889,72.222,277.778,788.889,30.556,N
1469,-0.205,0.675,0.085,75.000,75.000,266.667,727.778,61.111,N
1470,-0.280,0.545,0.080,72.222,100.000,313.889,813.889,86.111,N
1471,-0.060,0.820,0.400,100.000,97.222,375.000,947.222,133.333,N
1472,0.020,0.140,0.575,161.111,102.778,355.556,761.111,186.111,V
1473,0.110,0.965,0.790,72.222,75.000,300.000,1044.444,283.333,N
1474,0.490,1.175,0.420,69.444,102.778,300.000,788.889,255.556,N
1475,-0.020,0.875,0.390,116.667,63.889,272.222,786.111,2.778,N
1476,0.395,1.345,0.695,55.556,75.000,252.778,788.889,2.778,N
1477,-0.050,0.810,0.235,72.222,94.444,308.333,797.222,8.333,N
1478,-0.080,0.840,0.495,75.000,80.556,319.444,822.222,25.000,N
1479,-0.150,0.655,-0.140,125.000,97.222,308.333,902.778,80.556,N
1480,-0.550,0.345,-0.045,83.333,69.444,283.333,888.889,13.889,N
1481,-0.370,0.570,-0.050,75.000,83.333,311.111,805.556,83.333,N
1482,-0.460,0.400,-0.030,77.778,94.444,280.556,805.556,0.000,N
1483,-0.205,0.695,0.165,61.111,88.889,291.667,786.111,19.444,N
1484,-0.105,0.190,0.525,186.111,116.667,344.444,516.667,269.444,V
1485,-0.435,0.450,-0.225,197.222,91.667,330.556,1088.889,572.222,N
1486,-0.340,0.555,0.275,80.556,97.222,386.111,897.222,191.667,N
1487,-0.360,0.565,-0.155,86.111,100.000,391.667,1019.444,122.222,N
1488,-0.165,0.815,1.355,69.444,83.333,366.667,1008.333,11.111,N
1489,0.555,1.110,0.045,197.222,100.000,100.000,888.889,119.444,N
1490,-0.525,1.915,-0.690,197.222,116.667,402.778,544.444,344.444,V
1491,-0.180,0.675,0.000,69.444,102.778,311.111,1005.556,461.111,N
1492,0.230,2.205,-0.845,58.333,111.111,400.000,661.111,344.444,V
1493,0.185,0.980,0.250,113.889,102.778,400.000,1352.778,691.667,N
1494,0.775,2.365,-0.695,58.333,116.667,116.667,786.111,566.667,V
1495,0.140,0.875,0.175,197.222,102.778,277.778,1233.333,447.222,N
1496,-0.310,0.490,0.135,88.889,83.333,269.444,819.444,413.889,N
1497,0.065,1.045,0.315,55.556,75.000,266.667,752.778,66.667,N
1498,-0.330,0.560,0.055,77.778,83.333,358.333,822.222,69.444,N
1499,-0.265,0.615,0.250,122.222,113.889,405.556,1111.111,288.889,N
1500,-0.150,0.025,0.005,58.333,116.667,405.556,894.444,216.667,V
1501,0.095,0.080,0.165,58.333,47.222,58.333,475.000,419.444,""""
1502,0.000,1.010,1.345,91.667,88.889,377.778,1202.778,727.778,N
1503,-0.155,2.140,2.890,1302413.889,0.000,1262527.778,863.889,338.889,N
1504,0.560,1.180,0.900,152.778,97.222,325.000,822.222,41.667,N
1505,0.335,0.920,0.395,141.667,108.333,350.000,977.778,155.556,N
1506,-0.525,0.130,-0.075,152.778,100.000,341.667,1163.889,186.111,N
1507,-0.520,0.020,-0.720,197.222,113.889,113.889,1077.778,86.111,N
1508,-0.835,0.695,-0.155,58.333,116.667,-1307225.000,827.778,250.000,V
1509,-0.155,-0.680,-0.750,1308405.556,80.556,294.444,1122.222,294.444,N
1510,-0.485,1.860,0.200,58.333,116.667,405.556,533.333,588.889,V
1511,-0.280,0.810,0.600,100.000,91.667,402.778,1122.222,588.889,N
1512,-0.155,1.900,-0.690,1310975.000,1311033.333,1311033.333,913.889,208.333,V
1513,-0.900,-0.945,0.130,188.889,55.556,336.111,469.444,444.444,""""
1514,0.295,1.045,0.305,100.000,116.667,388.889,1047.222,577.778,N
1515,-0.915,-0.040,-0.710,97.222,100.000,266.667,1113.889,66.667,N
1516,-0.675,0.285,-0.275,61.111,66.667,252.778,822.222,291.667,N
1517,-0.800,0.085,-0.375,86.111,105.556,266.667,811.111,11.111,N
1518,-0.965,-0.265,-0.610,125.000,108.333,325.000,827.778,16.667,N
1519,-0.690,-0.025,-0.185,94.444,86.111,341.667,930.556,102.778,N
1520,-0.155,2.220,-0.730,1317841.667,1317900.000,1317900.000,844.444,86.111,V
1521,-0.390,-0.405,-0.235,72.222,61.111,350.000,569.444,275.000,""""
1522,-0.125,0.705,0.335,108.333,108.333,366.667,800.000,230.556,N
1523,-0.110,0.780,0.345,52.778,61.111,266.667,916.667,116.667,N
1524,-0.075,0.640,0.270,69.444,97.222,272.222,752.778,163.889,N
1525,0.035,0.330,0.745,197.222,91.667,369.444,519.444,233.333,V
1526,0.055,0.875,0.545,63.889,80.556,372.222,1216.667,697.222,N
1527,0.160,0.940,0.435,77.778,105.556,358.333,950.000,266.667,N
1528,-0.025,0.905,0.275,86.111,102.778,347.222,911.111,38.889,N
1529,0.005,0.905,0.355,69.444,83.333,336.111,866.667,44.444,N
1530,0.010,0.870,0.310,91.667,83.333,266.667,855.556,11.111,N
1531,-0.080,0.930,0.345,86.111,83.333,322.222,761.111,94.444,N
1532,0.220,2.490,-0.145,58.333,116.667,400.000,591.667,169.444,V
1533,0.010,0.845,0.315,133.333,88.889,322.222,1130.556,538.889,N
1534,0.040,2.370,-0.525,58.333,113.889,405.556,605.556,525.000,V
1535,-0.160,0.680,0.315,72.222,94.444,327.778,1175.000,569.444,N
1536,0.145,2.585,-0.130,58.333,116.667,405.556,591.667,583.333,V
1537,0.165,0.955,0.380,102.778,91.667,330.556,1172.222,580.556,N
1538,-0.150,0.835,0.185,83.333,69.444,327.778,813.889,358.333,N
1539,-0.110,0.820,0.385,66.667,80.556,291.667,852.778,38.889,N
1540,-0.225,0.730,0.065,75.000,100.000,288.889,816.667,36.111,N
1541,-0.285,0.645,0.150,97.222,97.222,308.333,825.000,8.333,N
1542,-0.230,0.620,0.300,72.222,80.556,319.444,827.778,2.778,N
1543,-0.185,0.630,0.080,80.556,88.889,316.667,858.333,30.556,N
1544,-0.230,0.570,0.015,125.000,94.444,325.000,913.889,55.556,N
1545,-0.245,0.735,0.295,83.333,88.889,291.667,805.556,108.333,N
1546,0.260,2.270,-0.585,55.556,108.333,361.111,619.444,186.111,V
1547,-0.455,0.585,-0.200,75.000,88.889,327.778,1036.111,416.667,N
1548,-0.420,0.660,-0.105,77.778,100.000,311.111,900.000,136.111,N
1549,-0.615,0.445,-0.115,88.889,86.111,305.556,933.333,33.333,N
1550,-0.410,0.295,0.045,61.111,88.889,266.667,902.778,30.556,N
1551,-0.230,0.640,0.280,83.333,75.000,288.889,805.556,97.222,N
1552,0.100,1.040,0.540,69.444,77.778,236.111,786.111,19.444,N
1553,0.320,1.185,0.645,66.667,69.444,291.667,797.222,11.111,N
1554,0.175,0.965,0.425,111.111,88.889,252.778,830.556,33.333,N
1555,-0.005,0.905,0.385,83.333,100.000,336.111,852.778,22.222,N
1556,0.050,0.935,0.305,72.222,77.778,300.000,858.333,5.556,N
1557,-0.015,0.945,0.480,69.444,69.444,291.667,877.778,19.444,N
1558,0.245,0.475,0.765,172.222,108.333,325.000,505.556,372.222,V
1559,0.150,1.080,0.565,88.889,80.556,308.333,1094.444,588.889,N
1560,0.155,1.045,0.605,63.889,94.444,316.667,877.778,216.667,N
1561,0.130,0.990,0.530,113.889,102.778,352.778,897.222,19.444,N
1562,0.200,0.985,0.560,144.444,102.778,300.000,847.222,50.000,N
1563,0.120,0.970,0.370,83.333,72.222,263.889,858.333,11.111,N
1564,-0.070,0.770,0.300,88.889,80.556,288.889,913.889,55.556,N
1565,-0.145,0.725,0.130,83.333,83.333,275.000,811.111,102.778,N
1566,-0.180,0.685,0.205,91.667,80.556,322.222,852.778,41.667,N
1567,-0.170,0.770,0.060,102.778,83.333,308.333,925.000,72.222,N
1568,-0.255,0.640,0.055,91.667,86.111,313.889,955.556,30.556,N
1569,-0.295,0.630,0.195,80.556,72.222,325.000,875.000,80.556,N
1570,-0.185,0.600,-0.025,102.778,91.667,355.556,883.333,8.333,N
1571,-0.195,0.785,0.190,83.333,97.222,325.000,1050.000,166.667,N
1572,-0.310,0.665,0.030,108.333,77.778,288.889,908.333,141.667,N
1573,-0.245,0.800,0.080,77.778,80.556,277.778,925.000,16.667,N
1574,-0.325,0.585,0.100,108.333,100.000,325.000,883.333,41.667,N
1575,-0.315,0.475,0.135,88.889,88.889,266.667,919.444,36.111,N
1576,-0.260,0.445,-0.090,88.889,100.000,302.778,838.889,80.556,N
1577,-0.175,0.630,0.170,75.000,94.444,327.778,916.667,77.778,N
1578,-0.155,0.160,0.265,86.111,86.111,333.333,1002.778,86.111,N
1579,0.015,0.670,0.065,83.333,97.222,147.222,855.556,147.222,N
1580,0.005,2.295,-0.470,58.333,113.889,380.556,686.111,169.444,V
1581,-0.080,0.870,0.305,77.778,102.778,197.222,1213.889,527.778,N
1582,-0.175,0.775,0.180,97.222,94.444,400.000,1152.778,61.111,N
1583,-0.015,0.885,0.300,88.889,88.889,363.889,1066.667,86.111,N
1584,0.000,0.780,0.375,75.000,80.556,263.889,955.556,111.111,N
1585,-0.185,0.670,0.360,102.778,88.889,263.889,852.778,102.778,N
1586,-0.060,0.710,0.195,125.000,91.667,375.000,900.000,47.222,N
1587,-0.170,0.800,0.325,86.111,86.111,313.889,1013.889,113.889,N
1588,-0.125,0.765,0.280,75.000,77.778,263.889,994.444,19.444,N
1589,-0.150,0.580,0.055,66.667,94.444,322.222,961.111,33.333,N
1590,-0.065,0.840,0.280,66.667,88.889,313.889,919.444,41.667,N
1591,-0.205,0.690,0.075,66.667,66.667,283.333,836.111,83.333,N
1592,-0.170,0.730,0.155,69.444,83.333,277.778,802.778,33.333,N
1593,-0.330,0.620,-0.050,111.111,100.000,358.333,955.556,152.778,N
1594,-0.295,0.665,0.090,91.667,75.000,347.222,1061.111,105.556,N
1595,-0.405,0.585,-0.070,83.333,91.667,330.556,977.778,83.333,N
1596,-0.400,0.600,0.055,63.889,94.444,316.667,913.889,63.889,N
1597,-0.300,0.675,-0.065,88.889,102.778,275.000,808.333,105.556,N
1598,-0.395,0.505,-0.190,197.222,61.111,266.667,783.333,25.000,N
1599,-0.500,0.515,-0.130,86.111,72.222,272.222,836.111,52.778,N
1600,-0.350,0.560,0.000,86.111,88.889,347.222,933.333,97.222,N
1601,-0.320,0.620,-0.075,122.222,97.222,311.111,966.667,33.333,N
1602,-0.390,0.640,0.040,86.111,97.222,319.444,938.889,27.778,N
1603,-0.200,0.730,0.005,63.889,83.333,294.444,822.222,116.667,N
1604,-0.220,-0.090,0.250,186.111,94.444,336.111,505.556,316.667,V
1605,-0.230,0.715,0.085,72.222,75.000,286.111,1186.111,680.556,N
1606,-0.370,0.640,-0.060,80.556,75.000,280.556,858.333,327.778,N
1607,-0.360,0.570,-0.005,83.333,97.222,344.444,905.556,47.222,N
1608,-0.260,0.660,0.090,83.333,75.000,313.889,944.444,38.889,N
1609,-0.305,0.685,0.040,72.222,83.333,263.889,894.444,50.000,N
1610,-0.275,0.695,0.065,75.000,83.333,308.333,858.333,36.111,N
1611,-0.100,0.000,0.450,197.222,100.000,341.667,500.000,358.333,V
1612,-0.255,0.690,0.060,72.222,83.333,258.333,1163.889,663.889,N
1613,-0.270,0.735,0.150,80.556,83.333,308.333,836.111,327.778,N
1614,-0.165,0.225,0.490,197.222,113.889,352.778,566.667,269.444,V
1615,-0.185,0.735,0.155,88.889,80.556,305.556,1205.556,638.889,N
1616,-0.120,0.865,0.215,72.222,94.444,333.333,977.778,227.778,N
1617,-0.100,0.880,0.265,83.333,97.222,313.889,883.333,94.444,N
1618,-0.195,0.805,0.175,61.111,66.667,266.667,808.333,75.000,N
1619,-0.075,2.380,-0.200,191.667,111.111,400.000,497.222,311.111,V
1620,-0.070,0.770,0.290,75.000,77.778,302.778,1002.778,505.556,N
1621,0.220,0.855,-0.185,61.111,94.444,150.000,591.667,411.111,V
1622,-0.170,0.720,0.150,69.444,86.111,327.778,1350.000,758.333,N
1623,0.050,2.450,-0.355,58.333,116.667,402.778,658.333,691.667,V
1624,-0.150,0.715,0.145,80.556,88.889,277.778,1119.444,461.111,N
1625,-0.090,2.390,-0.315,197.222,116.667,380.556,516.667,602.778,V
1626,-0.115,0.720,0.235,66.667,75.000,291.667,1055.556,538.889,N
1627,-0.020,2.355,-0.510,58.333,116.667,405.556,572.222,483.333,V
1628,-0.225,0.635,0.125,88.889,83.333,344.444,1230.556,658.333,N
1629,0.175,2.360,-0.540,58.333,116.667,405.556,677.778,552.778,V
1630,-0.270,0.580,0.075,86.111,69.444,288.889,1172.222,494.444,N
1631,-0.135,2.380,-0.285,58.333,116.667,405.556,563.889,608.333,V
1632,-0.180,0.690,0.155,80.556,91.667,305.556,1066.667,502.778,N
1633,-0.165,2.345,-0.275,183.333,113.889,405.556,561.111,505.556,V
1634,-0.135,0.715,0.155,97.222,97.222,327.778,1144.444,583.333,N
1635,0.220,2.400,-0.535,58.333,116.667,116.667,613.889,530.556,V
1636,-0.015,0.815,0.215,75.000,86.111,327.778,1338.889,725.000,N
1637,0.150,2.510,-0.385,58.333,116.667,405.556,608.333,730.556,V
1638,-0.060,0.795,0.380,83.333,72.222,291.667,1186.111,577.778,N
1639,0.010,2.450,-0.295,197.222,116.667,397.222,572.222,613.889,V
1640,-0.040,0.820,0.255,80.556,77.778,211.111,1125.000,552.778,N
1641,0.000,2.435,-0.355,58.333,116.667,391.667,552.778,572.222,V
1642,-0.040,0.840,0.430,97.222,105.556,300.000,1294.444,741.667,N
1643,0.225,2.505,-0.575,58.333,116.667,405.556,722.222,572.222,V
1644,-0.055,0.670,0.335,94.444,88.889,319.444,1255.556,533.333,N
1645,0.255,2.530,-0.215,58.333,108.333,405.556,622.222,633.333,V
1646,-0.100,0.470,0.180,80.556,72.222,291.667,1102.778,480.556,N
1647,-0.080,2.295,-0.120,119.444,105.556,402.778,586.111,516.667,V
1648,-0.145,0.570,0.255,147.222,88.889,352.778,1147.222,561.111,N
1649,0.790,2.250,-0.600,58.333,116.667,280.556,744.444,402.778,V
1650,-0.055,0.635,0.200,113.889,105.556,147.222,1608.333,863.889,N
1651,-0.095,2.270,-0.265,136.111,113.889,127.778,700.000,908.333,V
1652,0.125,0.650,0.370,105.556,91.667,233.333,1088.889,388.889,N
1653,0.340,2.340,-0.545,58.333,108.333,394.444,611.111,477.778,V
1654,-0.025,0.780,0.420,122.222,91.667,355.556,1266.667,655.556,N
1655,0.440,2.340,-0.575,58.333,116.667,405.556,711.111,555.556,V
1656,0.045,0.850,0.220,102.778,97.222,355.556,1488.889,777.778,N
1657,0.145,2.260,-0.515,58.333,116.667,405.556,711.111,777.778,V
1658,-0.105,0.815,0.330,61.111,66.667,250.000,1113.889,402.778,N
1659,0.140,2.210,-0.540,58.333,108.333,400.000,580.556,533.333,V
1660,-0.235,0.645,0.210,97.222,105.556,391.667,1255.556,675.000,N
1661,0.405,2.410,-0.370,58.333,116.667,405.556,702.778,552.778,V
1662,-0.215,0.675,0.185,83.333,94.444,369.444,1372.222,669.444,N
1663,0.490,2.460,-0.275,58.333,116.667,405.556,683.333,688.889,V
1664,-0.210,0.655,0.220,69.444,86.111,311.111,1113.889,430.556,N
1665,0.010,2.490,-0.150,197.222,116.667,405.556,547.222,566.667,V
1666,-0.205,0.625,0.160,66.667,105.556,350.000,1216.667,669.444,N
1667,0.325,2.360,-0.395,58.333,116.667,116.667,663.889,552.778,V
1668,-0.260,0.585,0.085,116.667,83.333,330.556,1263.889,600.000,N
1669,0.180,2.375,-0.340,58.333,116.667,405.556,641.667,622.222,V
1670,-0.195,0.665,0.120,55.556,66.667,308.333,1186.111,544.444,N
1671,-0.145,2.415,-0.380,58.333,116.667,405.556,577.778,608.333,V
1672,-0.095,0.750,0.290,100.000,83.333,355.556,1147.222,569.444,N
1673,0.270,2.490,-0.200,58.333,116.667,388.889,652.778,494.444,V
1674,-0.005,0.610,0.250,100.000,102.778,297.222,1152.778,500.000,N
1675,0.230,2.435,-0.290,58.333,113.889,405.556,586.111,566.667,V
1676,0.075,0.730,0.450,72.222,91.667,233.333,1152.778,566.667,N
1677,0.110,2.400,-0.225,58.333,113.889,369.444,613.889,538.889,V
1678,0.150,0.780,0.600,83.333,77.778,316.667,1097.222,483.333,N
1679,0.205,2.480,-0.320,127.778,116.667,394.444,544.444,552.778,V
1680,0.100,0.835,0.450,88.889,80.556,302.778,1200.000,655.556,N
1681,0.195,2.465,-0.305,58.333,116.667,397.222,580.556,619.444,V
1682,0.025,0.605,0.365,47.222,75.000,233.333,1191.667,611.111,N
1683,0.000,0.820,0.310,111.111,88.889,297.222,919.444,272.222,N
1684,-0.200,0.705,0.210,72.222,61.111,250.000,852.778,66.667,N
1685,-0.195,0.715,0.060,63.889,77.778,275.000,744.444,108.333,N
1686,-0.230,0.730,0.075,88.889,100.000,302.778,788.889,44.444,N
1687,-0.155,2.070,-0.415,158.333,116.667,397.222,625.000,163.889,V
1688,-0.145,0.685,0.050,116.667,108.333,319.444,1100.000,475.000,N
1689,-0.245,0.665,0.110,86.111,86.111,327.778,961.111,138.889,N
1690,-0.275,0.730,0.120,91.667,77.778,302.778,902.778,58.333,N
1691,-0.200,0.730,0.000,80.556,75.000,275.000,833.333,69.444,N
1692,-0.310,0.725,0.050,86.111,83.333,275.000,755.556,77.778,N
1693,-0.265,0.505,0.065,86.111,86.111,294.444,875.000,119.444,N
1694,-0.330,0.485,0.055,91.667,88.889,327.778,950.000,75.000,N
1695,0.120,2.295,-0.330,58.333,116.667,402.778,702.778,247.222,V
1696,0.035,0.805,0.665,63.889,61.111,352.778,1050.000,347.222,N
1697,-0.085,0.090,0.395,169.444,102.778,305.556,858.333,191.667,N
1698,0.100,0.635,0.610,66.667,55.556,200.000,805.556,52.778,N
1699,0.250,0.975,0.685,55.556,69.444,263.889,794.444,11.111,N
1700,0.155,0.665,0.430,91.667,69.444,288.889,855.556,61.111,N
1701,0.575,2.540,-0.080,58.333,116.667,402.778,638.889,216.667,V
1702,0.375,0.890,0.540,100.000,69.444,330.556,1086.111,447.222,N
1703,0.000,0.815,0.505,86.111,80.556,302.778,927.778,158.333,N
1704,0.110,0.760,0.245,77.778,105.556,327.778,900.000,27.778,N
1705,0.150,2.420,-0.250,58.333,105.556,405.556,536.111,363.889,V
1706,-0.085,0.740,0.335,197.222,88.889,272.222,1052.778,516.667,N
1707,0.060,2.425,-0.110,180.556,105.556,394.444,516.667,536.111,V
1708,-0.030,0.785,0.325,116.667,83.333,327.778,1225.000,708.333,N
1709,-0.055,0.860,0.270,69.444,86.111,297.222,913.889,311.111,N
1710,-0.055,0.175,0.435,186.111,97.222,338.889,566.667,347.222,V
1711,-0.150,0.760,0.195,83.333,80.556,283.333,1255.556,688.889,N
1712,-0.225,0.690,0.130,58.333,72.222,263.889,852.778,402.778,N
1713,-0.235,0.660,0.190,66.667,75.000,291.667,736.111,116.667,A
1714,-0.175,0.735,0.165,102.778,108.333,358.333,938.889,202.778,N
1715,-0.105,0.790,0.205,97.222,86.111,338.889,1077.778,138.889,N
1716,-0.080,0.815,0.195,77.778,102.778,311.111,955.556,122.222,N
1717,-0.075,0.835,0.215,77.778,75.000,272.222,897.222,58.333,N
1718,-0.215,0.685,0.075,77.778,69.444,308.333,850.000,47.222,N
1719,-0.230,0.730,0.080,69.444,77.778,258.333,833.333,16.667,N
1720,-0.155,2.385,-0.275,58.333,116.667,405.556,591.667,241.667,V
1721,-0.015,0.795,0.270,105.556,100.000,375.000,1197.222,605.556,N
1722,-0.100,0.850,0.175,94.444,83.333,308.333,1088.889,108.333,N
1723,-0.135,0.765,0.190,91.667,91.667,291.667,944.444,144.444,N
1724,-0.175,0.720,0.315,80.556,61.111,275.000,813.889,130.556,N
1725,-0.060,0.670,0.190,83.333,86.111,252.778,1022.222,208.333,N
1726,-0.035,0.765,0.275,94.444,97.222,250.000,869.444,152.778,N
1727,-0.070,0.775,0.385,100.000,105.556,272.222,925.000,55.556,N
1728,0.375,0.680,0.405,102.778,77.778,344.444,941.667,16.667,N
1729,0.100,0.615,0.475,72.222,88.889,341.667,966.667,25.000,N
1730,0.260,0.775,0.720,119.444,80.556,288.889,858.333,108.333,N
1731,0.300,2.665,0.050,58.333,113.889,361.111,644.444,213.889,V
1732,0.195,0.910,0.425,133.333,52.778,305.556,1086.111,441.667,N
1733,-0.030,2.495,-0.005,163.889,116.667,400.000,566.667,519.444,V
1734,0.015,0.875,0.230,86.111,77.778,288.889,1091.667,525.000,N
1735,-0.070,0.835,0.310,80.556,100.000,358.333,894.444,197.222,N
1736,-0.050,0.840,0.140,105.556,100.000,341.667,1005.556,111.111,N
1737,-0.215,0.645,0.175,75.000,77.778,319.444,938.889,66.667,N
1738,-0.065,0.840,0.100,50.000,66.667,225.000,836.111,102.778,N
1739,-0.435,0.445,-0.130,186.111,77.778,275.000,744.444,91.667,N
1740,-0.140,0.765,0.135,75.000,94.444,250.000,883.333,138.889,N
1741,-0.420,0.625,-0.185,77.778,88.889,311.111,838.889,44.444,N
1742,-0.325,0.595,0.125,83.333,80.556,352.778,919.444,80.556,N
1743,-0.225,0.615,-0.090,69.444,86.111,286.111,938.889,19.444,N
1744,-0.395,0.605,0.105,63.889,72.222,283.333,861.111,77.778,N
1745,-0.080,0.765,-0.005,191.667,94.444,250.000,805.556,55.556,N
1746,-0.390,0.475,0.060,105.556,63.889,261.111,819.444,13.889,N
1747,-0.180,0.790,0.290,105.556,77.778,302.778,850.000,30.556,N
1748,-0.355,0.575,0.070,80.556,61.111,219.444,847.222,2.778,N
1749,0.000,0.815,0.305,55.556,66.667,233.333,875.000,27.778,N
1750,-0.125,0.845,0.135,183.333,63.889,236.111,886.111,11.111,N
1751,0.070,0.605,0.440,61.111,94.444,302.778,861.111,25.000,N
1752,-0.020,0.740,0.220,175.000,86.111,233.333,786.111,75.000,N
1753,0.030,1.005,0.375,63.889,86.111,186.111,802.778,16.667,N
1754,-0.135,0.850,0.210,86.111,80.556,286.111,869.444,66.667,N
1755,0.060,1.010,0.390,55.556,86.111,263.889,825.000,44.444,N
1756,-0.220,0.775,0.075,88.889,83.333,302.778,797.222,27.778,N
1757,-0.130,0.795,0.275,69.444,88.889,311.111,927.778,130.556,N
1758,-0.010,0.860,0.115,69.444,100.000,275.000,902.778,25.000,N
1759,-0.195,0.685,0.125,69.444,83.333,272.222,850.000,52.778,N
1760,0.155,-1.200,0.480,47.222,2.778,227.778,522.222,327.778,V
1761,-0.280,0.610,0.060,66.667,58.333,269.444,1075.000,552.778,N
1762,-0.015,0.935,0.180,72.222,91.667,272.222,822.222,252.778,N
1763,-0.035,0.020,0.275,197.222,94.444,358.333,491.667,330.556,V
1764,-0.015,0.795,0.000,75.000,100.000,308.333,1261.111,769.444,N
1765,-0.215,0.690,0.205,66.667,69.444,258.333,925.000,336.111,N
1766,-0.080,0.775,0.030,94.444,72.222,277.778,808.333,116.667,N
1767,-0.200,0.665,0.250,69.444,63.889,263.889,780.556,27.778,N
1768,-0.205,0.675,0.000,72.222,97.222,269.444,816.667,36.111,N
1769,-0.265,0.705,0.140,72.222,88.889,294.444,744.444,72.222,N
1770,-0.050,0.045,0.160,188.889,91.667,255.556,522.222,222.222,V
1771,-0.080,0.795,0.135,105.556,97.222,288.889,1347.222,825.000,N
1772,-0.210,0.725,0.150,72.222,77.778,291.667,883.333,463.889,N
1773,-0.050,0.885,0.090,80.556,97.222,238.889,833.333,50.000,N
1774,-0.295,0.665,0.050,69.444,77.778,288.889,786.111,47.222,N
1775,-0.225,0.685,0.155,75.000,77.778,286.111,836.111,50.000,N
1776,-0.145,0.795,0.050,72.222,66.667,277.778,858.333,22.222,N
1777,-0.210,0.705,0.180,75.000,77.778,319.444,911.111,52.778,N
1778,-0.150,0.725,0.150,113.889,75.000,313.889,869.444,41.667,N
1779,-0.115,0.795,0.190,91.667,80.556,325.000,925.000,55.556,N
1780,-0.030,0.120,0.555,186.111,97.222,369.444,547.222,377.778,V
1781,-0.110,0.720,0.205,91.667,80.556,302.778,1172.222,625.000,N
1782,-0.150,0.840,0.195,63.889,63.889,272.222,741.667,430.556,N
1783,-0.125,0.690,0.220,86.111,69.444,308.333,972.222,230.556,N
1784,-0.050,0.810,0.285,69.444,86.111,280.556,950.000,22.222,N
1785,-0.090,0.810,0.220,83.333,83.333,325.000,936.111,13.889,N
1786,-0.010,2.365,-0.230,191.667,105.556,402.778,566.667,369.444,V
1787,-0.120,0.705,0.190,111.111,86.111,294.444,1222.222,655.556,N
1788,-0.100,2.370,-0.220,186.111,116.667,405.556,522.222,700.000,V
1789,-0.045,0.790,0.335,77.778,66.667,302.778,1100.000,577.778,N
1790,-0.175,0.680,0.135,75.000,94.444,316.667,891.667,208.333,N
1791,-0.210,0.685,0.095,88.889,83.333,325.000,997.222,105.556,N
1792,-0.210,0.610,0.115,91.667,88.889,322.222,1036.111,38.889,N
1793,-0.210,0.680,0.120,66.667,88.889,308.333,888.889,147.222,N
1794,-0.260,0.660,0.065,72.222,58.333,272.222,838.889,50.000,N
1795,-0.215,0.650,0.095,61.111,63.889,272.222,825.000,13.889,N
1796,-0.285,0.575,0.020,97.222,100.000,327.778,888.889,63.889,N
1797,-0.315,0.610,0.035,94.444,80.556,358.333,944.444,55.556,N
1798,-0.265,0.610,0.070,83.333,77.778,336.111,1025.000,80.556,N
1799,-0.265,0.635,0.085,69.444,83.333,308.333,1002.778,22.222,N
1800,-0.270,0.675,0.095,58.333,80.556,266.667,822.222,180.556,N
1801,-0.075,2.315,-0.295,152.778,116.667,405.556,575.000,247.222,V
1802,-0.065,0.775,0.240,63.889,91.667,330.556,1075.000,500.000,N
1803,-0.150,0.715,0.175,88.889,91.667,333.333,963.889,111.111,N
1804,-0.180,0.700,0.110,80.556,94.444,313.889,944.444,19.444,N
1805,-0.185,0.660,0.175,88.889,72.222,325.000,902.778,41.667,N
1806,-0.030,2.390,-0.310,58.333,113.889,405.556,697.222,205.556,V
1807,-0.170,0.705,0.230,75.000,88.889,263.889,1077.778,380.556,N
1808,-0.110,0.745,0.155,69.444,72.222,297.222,836.111,241.667,N
1809,-0.090,0.755,0.215,72.222,83.333,330.556,836.111,0.000,N
1810,-0.115,0.760,0.290,63.889,69.444,277.778,930.556,94.444,N
1811,0.280,2.530,-0.300,58.333,116.667,400.000,611.111,319.444,V
1812,-0.125,0.675,0.235,75.000,100.000,375.000,1183.333,572.222,N
1813,-0.015,0.915,0.280,86.111,69.444,258.333,941.667,241.667,N
1814,-0.155,0.710,0.170,63.889,66.667,258.333,827.778,113.889,N
1815,-0.120,0.725,0.205,80.556,63.889,255.556,772.222,55.556,N
1816,-0.180,0.660,0.020,119.444,94.444,311.111,800.000,27.778,N
1817,-0.270,0.625,0.100,83.333,97.222,325.000,916.667,116.667,N
1818,-0.075,0.740,0.295,75.000,105.556,277.778,902.778,13.889,N
1819,-0.270,0.590,-0.005,72.222,88.889,297.222,891.667,11.111,N
1820,-0.275,0.585,0.130,83.333,80.556,297.222,888.889,2.778,N
1821,0.010,0.900,0.325,63.889,83.333,252.778,794.444,94.444,N
1822,-0.240,0.660,0.010,66.667,86.111,275.000,783.333,11.111,N
1823,-0.225,0.620,0.175,72.222,97.222,333.333,858.333,75.000,N
1824,0.005,0.865,0.290,94.444,77.778,333.333,941.667,83.333,N
1825,-0.255,0.640,0.025,66.667,100.000,288.889,905.556,36.111,N
1826,-0.140,0.760,0.310,69.444,66.667,308.333,852.778,52.778,N
1827,-0.135,0.705,0.065,77.778,75.000,286.111,858.333,5.556,N
1828,-0.310,0.610,0.070,66.667,72.222,291.667,758.333,100.000,N
1829,0.025,0.880,0.350,58.333,88.889,286.111,855.556,97.222,N
1830,-0.225,0.675,-0.020,186.111,72.222,272.222,847.222,8.333,N
1831,-0.130,0.710,0.290,88.889,88.889,325.000,950.000,102.778,N
1832,-0.090,0.785,0.025,197.222,83.333,294.444,858.333,91.667,N
1833,-0.225,0.660,0.190,69.444,77.778,333.333,888.889,30.556,N
1834,0.015,0.895,0.070,83.333,75.000,263.889,927.778,38.889,N
1835,-0.260,0.680,0.070,75.000,86.111,291.667,847.222,80.556,N
1836,0.020,0.920,0.465,69.444,75.000,291.667,763.889,83.333,N
1837,-0.100,0.780,0.055,72.222,91.667,280.556,800.000,36.111,N
1838,-0.200,0.715,0.255,58.333,77.778,316.667,883.333,83.333,N
1839,0.365,-1.135,0.865,52.778,0.000,280.556,563.889,319.444,V
1840,0.380,1.165,0.215,194.444,91.667,191.667,1219.444,655.556,N
1841,-0.585,0.370,-0.330,102.778,77.778,272.222,913.889,305.556,N
1842,-0.550,0.380,-0.180,58.333,69.444,272.222,813.889,100.000,N
1843,-0.405,0.545,0.075,86.111,80.556,291.667,786.111,27.778,N
1844,-0.140,0.665,0.000,77.778,94.444,280.556,841.667,55.556,N
1845,-0.315,0.595,0.090,66.667,97.222,344.444,772.222,69.444,N
1846,-0.090,0.225,0.495,69.444,102.778,283.333,622.222,150.000,V
1847,-0.235,0.655,0.255,66.667,72.222,311.111,1377.778,755.556,N
1848,0.105,2.610,-0.200,58.333,116.667,119.444,566.667,811.111,V
1849,-0.160,0.695,0.255,58.333,72.222,311.111,1144.444,577.778,N
1850,0.045,2.520,-0.225,188.889,116.667,400.000,544.444,600.000,V
1851,-0.185,0.650,0.250,75.000,75.000,316.667,1155.556,611.111,N
1852,0.030,0.845,0.065,75.000,102.778,308.333,913.889,241.667,N
1853,-0.330,0.575,-0.050,69.444,83.333,305.556,980.556,66.667,N
1854,-0.205,0.680,0.215,77.778,75.000,316.667,891.667,88.889,N
1855,-0.185,0.700,0.010,116.667,100.000,272.222,919.444,27.778,N
1856,-0.240,2.270,-0.200,172.222,116.667,405.556,555.556,363.889,V
1857,-0.050,0.730,0.085,197.222,69.444,275.000,1075.000,519.444,N
1858,-0.175,2.220,-0.345,58.333,116.667,397.222,547.222,527.778,V
1859,0.060,0.880,0.190,102.778,102.778,313.889,1216.667,669.444,N
1860,0.005,2.240,-0.540,58.333,116.667,405.556,605.556,611.111,V
1861,0.010,0.840,0.485,80.556,75.000,350.000,1230.556,625.000,N
1862,0.215,2.490,-0.310,58.333,116.667,400.000,633.333,597.222,V
1863,-0.090,0.690,0.410,77.778,69.444,266.667,1100.000,466.667,N
1864,0.050,2.460,-0.185,180.556,113.889,405.556,522.222,577.778,V
1865,-0.055,0.655,0.270,113.889,86.111,319.444,1211.111,688.889,N
1866,0.210,2.525,-0.430,58.333,116.667,116.667,655.556,555.556,V
1867,0.125,0.845,0.260,77.778,97.222,358.333,1338.889,683.333,N
1868,-0.080,0.630,0.310,69.444,86.111,302.778,897.222,441.667,N
1869,0.050,0.885,0.485,94.444,75.000,252.778,833.333,63.889,N
1870,0.030,0.905,0.380,58.333,58.333,258.333,786.111,47.222,N
1871,0.090,0.855,0.355,197.222,63.889,277.778,819.444,33.333,N
1872,0.060,2.370,-0.270,58.333,111.111,375.000,594.444,225.000,V
1873,-0.075,0.580,0.335,91.667,72.222,300.000,1219.444,625.000,N
1874,0.205,2.575,-0.165,58.333,116.667,405.556,647.222,572.222,V
1875,-0.055,0.845,0.370,88.889,91.667,297.222,1100.000,452.778,N
1876,-0.025,0.745,0.265,58.333,66.667,350.000,838.889,261.111,N
1877,0.055,0.745,0.190,75.000,61.111,294.444,855.556,16.667,N
1878,-0.150,0.850,0.310,88.889,66.667,305.556,838.889,16.667,N
1879,0.130,-1.425,0.405,191.667,2.778,250.000,502.778,336.111,V
1880,-0.095,0.845,0.365,86.111,80.556,366.667,1180.556,677.778,N
1881,-0.010,0.815,0.245,61.111,86.111,280.556,900.000,280.556,N
1882,-0.120,0.730,0.225,88.889,91.667,244.444,855.556,44.444,N
1883,0.040,0.885,0.370,61.111,91.667,294.444,838.889,16.667,N
