id,Pamp,Ramp,Tamp,PR,QRS,QT,RRI,dRRI,label
1,-0.150,0.970,0.185,130.556,116.667,288.889,633.333,47.222,R
2,0.025,1.250,0.340,133.333,102.778,322.222,677.778,44.444,R
3,0.080,1.190,0.330,150.000,111.111,305.556,755.556,77.778,R
4,0.055,1.135,0.215,144.444,111.111,308.333,741.667,13.889,R
5,-0.045,0.955,0.015,127.778,94.444,272.222,683.333,58.333,R
6,-0.145,1.110,0.370,155.556,105.556,286.111,661.111,22.222,R
7,0.250,1.330,0.430,127.778,113.889,275.000,572.222,88.889,R
8,0.165,1.225,0.260,122.222,105.556,275.000,575.000,2.778,R
9,-0.065,0.860,-0.170,133.333,100.000,272.222,616.667,41.667,R
10,-0.350,0.835,0.110,125.000,94.444,291.667,619.444,2.778,R
11,0.070,1.310,0.415,113.889,100.000,294.444,641.667,22.222,R
12,0.135,1.365,0.345,161.111,111.111,302.778,744.444,102.778,R
13,0.030,1.205,0.165,130.556,86.111,277.778,669.444,75.000,R
14,-0.115,1.120,0.320,144.444,100.000,305.556,669.444,0.000,R
15,0.215,1.395,0.460,138.889,108.333,305.556,688.889,19.444,R
16,0.175,1.375,0.320,130.556,113.889,277.778,661.111,27.778,R
17,0.000,1.200,0.115,138.889,91.667,258.333,661.111,0.000,R
18,-0.105,1.105,0.315,127.778,94.444,275.000,616.667,44.444,R
19,0.185,1.315,0.385,127.778,105.556,297.222,619.444,2.778,R
20,0.100,1.195,0.230,138.889,102.778,294.444,663.889,44.444,R
21,-0.130,0.990,0.045,144.444,100.000,305.556,672.222,8.333,R
22,-0.145,1.130,0.215,138.889,100.000,297.222,658.333,13.889,R
23,0.085,1.325,0.300,133.333,97.222,288.889,677.778,19.444,R
24,0.090,1.190,0.240,141.667,94.444,288.889,658.333,19.444,R
25,-0.075,1.105,-0.010,133.333,102.778,272.222,644.444,13.889,R
26,-0.150,1.095,0.320,122.222,97.222,283.333,622.222,22.222,R
27,0.095,1.380,0.370,133.333,105.556,283.333,658.333,36.111,R
28,0.135,1.335,0.225,125.000,105.556,288.889,672.222,13.889,R
29,-0.050,1.140,0.180,133.333,97.222,275.000,658.333,13.889,R
30,0.090,1.405,0.400,138.889,94.444,294.444,675.000,16.667,R
31,0.125,1.270,0.315,133.333,91.667,300.000,708.333,33.333,R
32,-0.020,1.140,0.085,144.444,102.778,300.000,730.556,22.222,R
33,-0.050,1.265,0.385,141.667,94.444,291.667,666.667,63.889,R
34,0.225,1.380,0.390,130.556,97.222,275.000,652.778,13.889,R
35,0.125,1.225,0.185,125.000,100.000,272.222,675.000,22.222,R
36,-0.130,1.180,0.210,125.000,113.889,291.667,641.667,33.333,R
37,0.125,1.360,0.440,125.000,97.222,277.778,627.778,13.889,R
38,0.170,1.315,0.390,141.667,97.222,302.778,652.778,25.000,R
39,0.035,1.125,0.145,155.556,100.000,291.667,697.222,44.444,R
40,-0.100,1.080,0.430,127.778,100.000,294.444,666.667,30.556,R
41,0.230,1.440,0.450,138.889,111.111,277.778,683.333,16.667,R
42,-0.005,1.155,0.170,138.889,113.889,302.778,661.111,22.222,R
43,0.030,1.225,0.395,127.778,116.667,291.667,630.556,30.556,R
44,0.140,1.360,0.355,136.111,102.778,261.111,633.333,2.778,R
45,0.025,1.180,0.240,125.000,94.444,291.667,641.667,8.333,R
46,-0.175,0.835,-0.065,138.889,100.000,291.667,652.778,11.111,R
47,-0.335,0.885,0.120,122.222,102.778,291.667,641.667,11.111,R
48,-0.080,1.095,0.175,138.889,100.000,297.222,636.111,5.556,R
49,-0.095,1.045,0.095,150.000,102.778,300.000,661.111,25.000,R
50,-0.225,0.960,0.025,144.444,102.778,294.444,663.889,2.778,R
51,-0.120,1.220,0.285,150.000,102.778,291.667,652.778,11.111,R
52,0.060,1.245,0.245,133.333,102.778,275.000,652.778,0.000,R
53,0.015,1.220,0.095,130.556,91.667,277.778,644.444,8.333,R
54,-0.160,1.030,0.205,122.222,116.667,291.667,619.444,25.000,R
55,0.135,1.405,0.380,127.778,94.444,275.000,644.444,25.000,R
56,0.120,1.270,0.240,144.444,97.222,291.667,669.444,25.000,R
57,-0.085,1.025,0.040,136.111,102.778,291.667,688.889,19.444,R
58,-0.200,1.105,0.215,138.889,108.333,294.444,686.111,2.778,R
59,0.065,1.255,0.255,141.667,108.333,288.889,722.222,36.111,R
60,-0.005,1.175,0.145,133.333,116.667,294.444,705.556,16.667,R
61,-0.150,1.000,0.075,130.556,105.556,277.778,675.000,30.556,R
62,-0.070,1.245,0.310,125.000,111.111,277.778,650.000,25.000,R
63,0.065,1.200,0.255,127.778,108.333,288.889,669.444,19.444,R
64,0.065,1.265,0.210,127.778,113.889,291.667,669.444,0.000,R
65,-0.030,1.160,0.210,136.111,116.667,286.111,658.333,11.111,R
66,0.105,1.365,0.415,136.111,116.667,305.556,663.889,5.556,R
67,0.145,1.360,0.320,138.889,105.556,302.778,702.778,38.889,R
68,-0.015,1.030,0.150,133.333,116.667,294.444,711.111,8.333,R
69,-0.080,1.155,0.280,136.111,102.778,288.889,669.444,41.667,R
70,-0.010,1.220,0.325,127.778,108.333,288.889,691.667,22.222,R
71,0.030,1.120,0.270,127.778,97.222,275.000,683.333,8.333,R
72,-0.065,1.035,0.080,122.222,105.556,269.444,661.111,22.222,R
73,-0.195,0.935,0.140,127.778,97.222,261.111,608.333,52.778,R
74,-0.025,1.305,0.315,130.556,97.222,288.889,633.333,25.000,R
75,0.075,1.285,0.455,144.444,102.778,308.333,680.556,47.222,R
76,0.180,1.345,0.415,138.889,111.111,291.667,683.333,2.778,R
77,0.145,1.260,0.330,152.778,116.667,305.556,675.000,8.333,R
78,0.140,1.145,0.335,136.111,116.667,305.556,616.667,58.333,R
79,0.125,1.225,0.335,125.000,97.222,261.111,594.444,22.222,R
80,0.045,1.105,0.165,133.333,102.778,255.556,594.444,0.000,R
81,-0.135,1.160,0.315,127.778,100.000,291.667,572.222,22.222,R
82,-0.005,1.285,0.375,138.889,91.667,286.111,594.444,22.222,R
83,0.075,1.265,0.430,144.444,100.000,291.667,655.556,61.111,R
84,0.215,1.390,0.460,136.111,102.778,294.444,675.000,19.444,R
85,0.180,1.305,0.225,136.111,116.667,305.556,697.222,22.222,R
86,-0.080,1.055,0.235,138.889,100.000,294.444,669.444,27.778,R
87,0.095,1.300,0.460,127.778,97.222,291.667,672.222,2.778,R
88,0.225,1.425,0.455,125.000,111.111,277.778,666.667,5.556,R
89,0.070,1.155,0.220,133.333,97.222,288.889,630.556,36.111,R
90,-0.260,1.010,0.295,127.778,113.889,277.778,605.556,25.000,R
91,0.005,1.450,0.735,119.444,75.000,272.222,600.000,5.556,R
92,0.430,1.680,0.635,136.111,100.000,277.778,652.778,52.778,R
93,0.440,1.795,0.390,127.778,80.556,280.556,727.778,75.000,N
94,0.275,1.550,0.135,141.667,75.000,286.111,730.556,2.778,N
95,0.060,1.535,0.175,138.889,80.556,288.889,700.000,30.556,N
96,0.265,1.905,0.170,136.111,66.667,272.222,680.556,19.444,N
97,0.200,1.755,0.170,127.778,58.333,258.333,691.667,11.111,N
98,0.150,1.595,0.140,136.111,80.556,288.889,672.222,19.444,N
99,0.165,1.550,0.010,141.667,72.222,258.333,675.000,2.778,N
100,0.020,1.400,0.035,136.111,66.667,275.000,647.222,27.778,N
101,0.170,1.655,0.200,130.556,75.000,272.222,638.889,8.333,N
102,0.205,1.720,0.175,141.667,69.444,294.444,691.667,52.778,N
103,0.085,1.525,-0.040,141.667,72.222,277.778,733.333,41.667,N
104,-0.080,1.500,0.090,147.222,77.778,288.889,697.222,36.111,N
105,0.200,1.625,0.225,130.556,63.889,277.778,677.778,19.444,N
106,0.205,1.655,0.115,127.778,66.667,269.444,697.222,19.444,N
107,-0.030,1.395,-0.230,127.778,75.000,272.222,683.333,13.889,N
108,0.040,1.610,0.210,133.333,75.000,255.556,638.889,44.444,N
109,0.200,1.705,0.160,127.778,72.222,258.333,661.111,22.222,N
110,0.090,1.470,-0.215,133.333,83.333,288.889,691.667,30.556,N
111,-0.280,1.185,-0.305,141.667,80.556,286.111,688.889,2.778,N
112,-0.095,1.535,-0.010,141.667,75.000,275.000,686.111,2.778,N
113,-0.030,1.650,0.040,138.889,77.778,302.778,711.111,25.000,N
114,0.070,1.505,0.045,138.889,69.444,258.333,688.889,22.222,N
115,-0.055,1.320,-0.125,125.000,66.667,272.222,663.889,25.000,N
116,-0.045,1.575,0.020,133.333,77.778,275.000,658.333,5.556,N
117,0.125,1.650,0.115,133.333,80.556,275.000,652.778,5.556,N
118,0.110,1.550,0.055,136.111,66.667,261.111,652.778,0.000,N
119,-0.035,1.340,-0.115,127.778,80.556,286.111,650.000,2.778,N
120,-0.170,1.455,0.005,133.333,80.556,291.667,644.444,5.556,N
121,0.045,1.510,0.070,130.556,77.778,288.889,663.889,19.444,N
122,-0.025,1.480,-0.065,133.333,77.778,272.222,669.444,5.556,N
123,-0.180,1.395,-0.135,141.667,69.444,291.667,691.667,22.222,N
124,-0.020,1.630,0.195,130.556,69.444,258.333,652.778,38.889,N
125,0.235,1.795,0.285,127.778,72.222,275.000,633.333,19.444,N
126,0.250,1.765,0.115,133.333,77.778,263.889,638.889,5.556,N
127,0.045,1.550,0.030,136.111,80.556,269.444,619.444,19.444,N
128,0.075,1.710,0.090,136.111,77.778,272.222,633.333,13.889,N
129,0.130,1.800,0.190,136.111,77.778,302.778,669.444,36.111,N
130,0.255,1.760,0.245,147.222,80.556,277.778,711.111,41.667,N
131,0.210,1.505,0.085,144.444,77.778,275.000,694.444,16.667,N
132,0.040,1.455,0.075,136.111,66.667,275.000,644.444,50.000,N
133,0.180,1.545,0.185,144.444,75.000,275.000,622.222,22.222,N
134,0.160,1.560,0.140,136.111,80.556,272.222,608.333,13.889,N
135,0.040,1.310,-0.055,122.222,80.556,283.333,619.444,11.111,N
136,-0.070,1.395,-0.015,133.333,75.000,272.222,611.111,8.333,N
137,0.010,1.535,-0.010,138.889,75.000,269.444,622.222,11.111,N
138,-0.030,1.460,-0.075,147.222,77.778,275.000,644.444,22.222,N
139,-0.135,1.380,-0.135,133.333,66.667,277.778,666.667,22.222,N
140,-0.065,1.545,0.090,130.556,80.556,291.667,650.000,16.667,N
141,0.085,1.490,0.080,138.889,69.444,261.111,672.222,22.222,N
142,0.050,1.465,-0.010,138.889,80.556,288.889,663.889,8.333,N
143,-0.080,1.380,-0.085,125.000,72.222,277.778,638.889,25.000,N
144,-0.005,1.590,0.105,136.111,69.444,261.111,633.333,5.556,N
145,0.095,1.575,0.080,136.111,75.000,275.000,641.667,8.333,N
146,0.015,1.450,-0.140,125.000,66.667,269.444,658.333,16.667,N
147,-0.160,1.320,-0.150,136.111,80.556,288.889,644.444,13.889,N
148,0.035,1.600,0.090,138.889,69.444,288.889,672.222,27.778,N
149,0.070,1.535,0.040,141.667,72.222,288.889,702.778,30.556,N
150,-0.075,1.270,-0.460,172.222,66.667,288.889,697.222,5.556,N
151,-0.485,1.160,-0.295,138.889,66.667,288.889,616.667,80.556,N
152,-0.240,1.605,-0.130,130.556,77.778,277.778,622.222,5.556,N
153,-0.060,1.830,-0.025,122.222,66.667,269.444,608.333,13.889,N
154,-0.060,1.745,-0.045,122.222,66.667,252.778,633.333,25.000,N
155,-0.195,1.360,-0.355,138.889,69.444,288.889,655.556,22.222,N
156,-0.080,1.570,0.275,130.556,77.778,288.889,641.667,13.889,N
157,0.415,1.870,0.340,138.889,75.000,288.889,686.111,44.444,N
158,0.215,1.560,-0.015,150.000,66.667,275.000,630.556,55.556,N
159,0.045,1.620,0.170,147.222,75.000,275.000,611.111,19.444,N
160,0.245,1.430,0.465,136.111,102.778,291.667,622.222,11.111,R
161,0.135,1.300,0.395,141.667,108.333,288.889,625.000,2.778,R
162,-0.125,0.850,0.085,127.778,97.222,275.000,613.889,11.111,R
163,-0.335,1.125,0.335,138.889,100.000,302.778,613.889,0.000,R
164,-0.005,1.245,0.365,127.778,97.222,269.444,602.778,11.111,R
165,-0.035,1.380,0.490,127.778,97.222,288.889,669.444,66.667,R
166,0.075,1.690,0.070,130.556,61.111,255.556,738.889,69.444,N
167,0.110,1.705,0.170,136.111,69.444,288.889,755.556,16.667,N
168,0.270,1.880,0.525,133.333,69.444,291.667,763.889,8.333,N
169,0.430,1.760,0.410,147.222,69.444,263.889,730.556,33.333,N
170,0.120,1.315,-0.200,130.556,61.111,272.222,647.222,83.333,N
171,-0.210,1.255,-0.075,136.111,77.778,269.444,622.222,25.000,N
172,0.055,1.630,0.090,133.333,77.778,275.000,597.222,25.000,N
173,0.095,1.555,0.030,133.333,77.778,280.556,602.778,5.556,N
174,-0.020,1.465,0.080,155.556,77.778,291.667,650.000,47.222,N
175,0.080,1.630,0.190,147.222,77.778,325.000,730.556,80.556,N
176,0.135,1.615,0.055,119.444,80.556,288.889,719.444,11.111,N
177,-0.105,1.100,-0.420,172.222,80.556,313.889,736.111,16.667,N
178,-0.300,1.335,0.020,136.111,75.000,288.889,644.444,91.667,N
179,0.145,1.705,0.195,127.778,72.222,275.000,627.778,16.667,N
180,0.175,1.685,0.120,130.556,77.778,258.333,638.889,11.111,N
181,0.005,1.400,-0.025,130.556,83.333,275.000,630.556,8.333,N
182,0.040,1.505,0.170,133.333,63.889,288.889,636.111,5.556,N
183,0.280,1.730,0.170,147.222,61.111,244.444,719.444,83.333,N
184,0.180,1.620,0.075,138.889,77.778,297.222,638.889,80.556,N
185,-0.145,1.330,-0.185,152.778,83.333,308.333,700.000,61.111,N
186,0.030,1.790,0.390,152.778,77.778,286.111,697.222,2.778,N
187,0.420,1.845,0.375,136.111,77.778,286.111,663.889,33.333,N
188,0.300,1.535,0.045,138.889,69.444,275.000,655.556,8.333,N
189,-0.045,1.345,-0.025,144.444,69.444,272.222,619.444,36.111,N
190,0.155,1.530,0.200,144.444,75.000,275.000,602.778,16.667,N
191,0.185,1.510,0.125,122.222,63.889,258.333,608.333,5.556,N
192,0.055,1.275,-0.165,138.889,69.444,275.000,652.778,44.444,N
193,-0.170,1.260,-0.070,138.889,77.778,302.778,663.889,11.111,N
194,0.045,1.490,-0.030,133.333,61.111,272.222,663.889,0.000,N
195,-0.030,1.385,-0.035,141.667,77.778,291.667,661.111,2.778,N
196,-0.155,1.070,-0.245,138.889,100.000,275.000,644.444,16.667,N
197,-0.250,0.725,-0.160,100.000,100.000,255.556,577.778,66.667,N
198,-0.050,1.350,-0.005,133.333,116.667,275.000,616.667,38.889,N
199,0.045,1.500,-0.005,127.778,100.000,277.778,658.333,41.667,N
200,-0.005,1.500,-0.005,133.333,100.000,261.111,688.889,30.556,N
201,0.130,1.680,0.330,127.778,83.333,277.778,666.667,22.222,N
202,0.355,1.660,0.270,130.556,75.000,272.222,680.556,13.889,N
203,0.155,1.540,-0.005,144.444,83.333,291.667,683.333,2.778,N
204,-0.025,1.460,0.090,141.667,80.556,305.556,661.111,22.222,N
205,0.090,1.460,0.075,138.889,75.000,275.000,652.778,8.333,N
206,0.035,1.560,-0.005,147.222,75.000,275.000,638.889,13.889,N
207,-0.075,1.410,0.000,141.667,75.000,277.778,597.222,41.667,N
208,0.060,1.545,0.175,133.333,75.000,283.333,591.667,5.556,N
209,0.255,1.620,0.305,133.333,80.556,275.000,594.444,2.778,N
210,0.215,1.435,0.195,138.889,69.444,272.222,641.667,47.222,N
211,0.040,1.375,-0.060,136.111,77.778,272.222,694.444,52.778,N
212,-0.070,1.520,0.180,147.222,75.000,294.444,677.778,16.667,N
213,0.300,1.625,0.260,138.889,72.222,277.778,675.000,2.778,N
214,0.175,1.525,0.050,136.111,77.778,286.111,680.556,5.556,N
215,-0.090,1.260,-0.130,147.222,72.222,288.889,677.778,2.778,N
216,0.060,1.490,0.255,130.556,77.778,277.778,633.333,44.444,N
217,0.225,1.505,0.150,125.000,72.222,261.111,644.444,11.111,N
218,0.045,1.365,-0.175,133.333,77.778,269.444,661.111,16.667,N
219,-0.270,1.185,-0.135,125.000,66.667,272.222,605.556,55.556,N
220,0.040,1.475,0.070,141.667,69.444,258.333,616.667,11.111,N
221,0.045,1.345,0.000,141.667,75.000,277.778,633.333,16.667,N
222,-0.130,1.195,-0.235,150.000,80.556,288.889,661.111,27.778,N
223,-0.285,1.320,-0.025,150.000,69.444,275.000,652.778,8.333,N
224,0.120,1.520,0.135,141.667,77.778,275.000,622.222,30.556,N
225,0.115,1.445,0.030,138.889,72.222,275.000,630.556,8.333,N
226,-0.135,1.315,-0.160,127.778,72.222,255.556,602.778,27.778,N
227,-0.395,1.315,-0.260,116.667,72.222,272.222,586.111,16.667,N
228,-0.195,1.225,0.265,130.556,63.889,261.111,586.111,0.000,R
229,0.125,1.460,0.535,127.778,86.111,277.778,613.889,27.778,R
230,0.290,1.320,0.270,136.111,116.667,305.556,638.889,25.000,R
231,-0.060,1.125,0.230,138.889,102.778,297.222,636.111,2.778,R
232,0.105,1.370,0.445,150.000,102.778,305.556,611.111,25.000,R
233,0.175,1.330,0.375,144.444,105.556,297.222,611.111,0.000,R
234,0.035,1.090,0.050,150.000,86.111,288.889,608.333,2.778,R
235,-0.195,1.080,0.105,141.667,100.000,288.889,591.667,16.667,R
236,-0.055,1.375,0.605,136.111,105.556,277.778,577.778,13.889,R
237,0.200,1.320,0.415,133.333,116.667,277.778,561.111,16.667,R
238,0.125,1.380,0.385,125.000,100.000,266.667,572.222,11.111,R
239,0.150,1.430,0.345,130.556,111.111,286.111,544.444,27.778,R
240,0.165,1.275,0.295,141.667,97.222,272.222,558.333,13.889,R
241,-0.005,1.170,0.200,152.778,100.000,291.667,580.556,22.222,R
242,-0.005,1.310,0.365,147.222,100.000,302.778,591.667,11.111,R
243,0.115,1.280,0.335,136.111,88.889,275.000,622.222,30.556,R
244,0.090,1.335,0.355,147.222,102.778,308.333,627.778,5.556,R
245,-0.155,0.945,0.185,125.000,102.778,275.000,608.333,19.444,R
246,-0.210,0.945,0.150,130.556,94.444,277.778,586.111,22.222,R
247,-0.110,1.185,0.215,119.444,91.667,272.222,572.222,13.889,R
248,-0.065,0.995,0.155,127.778,94.444,277.778,597.222,25.000,R
249,-0.085,1.025,0.145,144.444,97.222,291.667,619.444,22.222,R
250,-0.190,0.920,-0.040,136.111,83.333,277.778,638.889,19.444,R
251,-0.320,0.875,0.090,144.444,102.778,305.556,627.778,11.111,R
252,-0.105,1.095,0.215,138.889,91.667,288.889,608.333,19.444,R
253,-0.090,0.970,0.185,136.111,102.778,305.556,627.778,19.444,R
254,-0.025,1.015,0.225,138.889,100.000,294.444,636.111,8.333,R
255,-0.035,1.020,0.155,125.000,102.778,275.000,602.778,33.333,R
256,-0.110,0.945,0.085,122.222,88.889,275.000,600.000,2.778,R
257,-0.165,1.125,0.295,130.556,102.778,297.222,588.889,11.111,R
258,0.000,1.285,0.325,122.222,100.000,263.889,591.667,2.778,R
259,0.045,1.285,0.345,127.778,97.222,288.889,611.111,19.444,R
260,0.055,1.160,0.225,133.333,86.111,277.778,619.444,8.333,R
261,-0.130,0.830,0.015,141.667,86.111,291.667,641.667,22.222,R
262,-0.245,0.990,0.135,141.667,83.333,277.778,650.000,8.333,R
263,-0.060,1.135,0.225,133.333,97.222,291.667,652.778,2.778,R
264,-0.025,1.000,0.185,138.889,105.556,275.000,627.778,25.000,R
265,-0.180,0.815,0.040,130.556,100.000,291.667,611.111,16.667,R
266,-0.235,0.865,0.170,125.000,97.222,277.778,608.333,2.778,R
267,0.010,1.035,0.290,138.889,88.889,272.222,611.111,2.778,R
268,0.105,1.205,0.300,130.556,100.000,291.667,608.333,2.778,R
269,-0.015,0.970,0.160,133.333,102.778,277.778,636.111,27.778,R
270,-0.110,1.080,0.345,138.889,105.556,302.778,638.889,2.778,R
271,0.155,1.260,0.445,127.778,100.000,297.222,638.889,0.000,R
272,0.165,1.240,0.250,138.889,94.444,294.444,663.889,25.000,R
273,-0.070,0.955,0.200,130.556,83.333,277.778,638.889,25.000,R
274,0.000,1.210,0.445,138.889,63.889,272.222,625.000,13.889,R
275,0.355,1.395,0.550,141.667,102.778,280.556,619.444,5.556,R
276,0.270,1.240,0.300,125.000,108.333,277.778,600.000,19.444,R
277,-0.070,0.980,0.165,125.000,94.444,272.222,602.778,2.778,R
278,-0.085,0.980,0.195,138.889,88.889,275.000,577.778,25.000,R
279,-0.025,1.020,0.235,138.889,105.556,291.667,616.667,38.889,R
280,-0.005,0.960,0.135,138.889,102.778,291.667,666.667,50.000,R
281,-0.205,0.810,0.000,136.111,100.000,297.222,666.667,0.000,R
282,-0.220,0.900,0.235,138.889,100.000,294.444,655.556,11.111,R
283,0.090,1.090,0.320,138.889,94.444,286.111,647.222,8.333,R
284,0.025,1.045,0.150,136.111,100.000,288.889,627.778,19.444,R
285,-0.215,0.785,0.010,125.000,105.556,272.222,605.556,22.222,R
286,-0.245,0.870,0.155,122.222,94.444,280.556,597.222,8.333,R
287,-0.030,1.130,0.250,141.667,102.778,275.000,652.778,55.556,R
288,0.030,1.170,0.180,133.333,113.889,288.889,688.889,36.111,R
289,-0.130,0.950,0.015,144.444,102.778,305.556,683.333,5.556,R
290,-0.220,1.010,0.210,147.222,102.778,294.444,669.444,13.889,R
291,0.025,1.175,0.295,147.222,105.556,305.556,683.333,13.889,R
292,0.015,1.105,0.165,138.889,108.333,300.000,688.889,5.556,R
293,-0.220,0.935,0.105,141.667,97.222,286.111,658.333,30.556,R
294,-0.010,1.235,0.340,127.778,111.111,277.778,663.889,5.556,R
295,0.055,1.295,0.325,133.333,116.667,275.000,688.889,25.000,R
296,-0.050,1.050,0.180,133.333,113.889,288.889,652.778,36.111,R
297,-0.080,1.285,0.420,127.778,111.111,280.556,655.556,2.778,R
298,0.070,1.190,0.380,144.444,100.000,305.556,688.889,33.333,R
299,0.030,1.145,0.210,147.222,105.556,308.333,702.778,13.889,R
300,-0.135,1.080,0.320,136.111,77.778,305.556,686.111,16.667,R
301,0.095,1.340,0.405,136.111,102.778,305.556,686.111,0.000,R
302,0.105,1.320,0.395,127.778,111.111,272.222,672.222,13.889,R
303,-0.070,1.100,0.180,136.111,97.222,277.778,663.889,8.333,R
304,-0.090,1.105,0.400,130.556,102.778,291.667,638.889,25.000,R
305,0.115,1.310,0.315,130.556,116.667,291.667,652.778,13.889,R
306,-0.065,0.975,0.080,136.111,100.000,280.556,655.556,2.778,R
307,-0.350,0.630,0.125,150.000,113.889,294.444,661.111,5.556,R
308,-0.030,0.655,0.410,138.889,102.778,294.444,672.222,11.111,R
309,0.155,0.690,0.385,147.222,113.889,294.444,691.667,19.444,R
310,0.015,0.635,0.155,138.889,102.778,275.000,675.000,16.667,R
311,-0.115,0.690,0.245,133.333,116.667,291.667,661.111,13.889,R
312,0.085,0.725,0.400,136.111,105.556,277.778,638.889,22.222,R
313,0.115,0.600,0.310,125.000,102.778,275.000,616.667,22.222,R
314,-0.080,0.415,-0.040,136.111,116.667,275.000,611.111,5.556,R
315,-0.295,0.260,0.125,144.444,102.778,291.667,611.111,0.000,R
316,-0.005,0.615,0.280,130.556,113.889,291.667,636.111,25.000,R
317,-0.045,0.650,0.215,147.222,100.000,286.111,666.667,30.556,R
318,-0.175,0.625,0.000,150.000,113.889,305.556,672.222,5.556,R
319,-0.250,0.840,0.290,141.667,94.444,291.667,686.111,13.889,R
320,0.025,1.140,0.315,133.333,113.889,288.889,677.778,8.333,R
321,0.005,1.145,0.095,130.556,102.778,272.222,641.667,36.111,R
322,-0.210,1.070,0.090,127.778,111.111,275.000,636.111,5.556,R
323,-0.030,1.325,0.360,130.556,116.667,288.889,622.222,13.889,R
324,0.080,1.225,0.300,130.556,102.778,294.444,647.222,25.000,R
325,-0.005,1.160,0.120,141.667,105.556,277.778,675.000,27.778,R
326,-0.150,1.135,0.305,141.667,102.778,294.444,655.556,19.444,R
327,0.075,1.440,0.445,133.333,102.778,302.778,658.333,2.778,R
328,0.095,1.290,0.365,130.556,111.111,288.889,677.778,19.444,R
329,-0.055,1.035,0.190,141.667,108.333,288.889,647.222,30.556,R
330,-0.030,1.245,0.405,130.556,113.889,275.000,619.444,27.778,R
331,0.205,1.410,0.455,127.778,100.000,275.000,627.778,8.333,R
332,0.085,1.215,0.185,138.889,105.556,272.222,630.556,2.778,R
333,-0.120,0.965,0.090,127.778,111.111,275.000,622.222,8.333,R
334,-0.090,1.280,0.345,138.889,91.667,277.778,625.000,2.778,R
335,0.040,1.330,0.350,133.333,102.778,277.778,647.222,22.222,R
336,-0.015,1.080,0.195,138.889,97.222,291.667,688.889,41.667,R
337,-0.255,1.070,0.130,144.444,100.000,294.444,672.222,16.667,R
338,-0.045,1.290,0.395,133.333,102.778,294.444,652.778,19.444,R
339,0.165,1.460,0.400,127.778,97.222,252.778,650.000,2.778,R
340,0.100,1.285,0.215,133.333,113.889,280.556,619.444,30.556,R
341,-0.105,1.030,0.180,127.778,97.222,272.222,625.000,5.556,R
342,0.010,1.090,0.420,127.778,111.111,277.778,633.333,8.333,R
343,0.140,1.120,0.420,138.889,100.000,291.667,630.556,2.778,R
344,-0.020,1.010,0.145,141.667,111.111,294.444,652.778,22.222,R
345,-0.160,1.080,0.235,147.222,113.889,308.333,655.556,2.778,R
346,0.020,1.160,0.385,130.556,113.889,305.556,633.333,22.222,R
347,0.035,1.130,0.320,144.444,100.000,294.444,647.222,13.889,R
348,-0.055,1.030,0.175,130.556,108.333,269.444,633.333,13.889,R
349,-0.170,1.135,0.345,130.556,100.000,291.667,616.667,16.667,R
350,0.110,1.370,0.470,138.889,100.000,275.000,627.778,11.111,R
351,0.110,1.305,0.380,130.556,111.111,286.111,625.000,2.778,R
352,-0.010,1.205,0.250,133.333,113.889,275.000,650.000,25.000,R
353,-0.070,1.165,0.395,141.667,97.222,308.333,625.000,25.000,R
354,0.055,1.355,0.490,136.111,113.889,305.556,677.778,52.778,R
355,0.085,1.295,0.470,125.000,97.222,294.444,708.333,30.556,R
356,0.160,1.210,0.435,136.111,108.333,302.778,725.000,16.667,R
357,0.100,1.025,0.280,141.667,97.222,291.667,672.222,52.778,R
358,0.045,1.175,0.410,136.111,102.778,275.000,627.778,44.444,R
359,0.105,1.370,0.415,133.333,102.778,277.778,647.222,19.444,R
360,0.140,1.105,0.345,125.000,111.111,277.778,594.444,52.778,R
361,0.010,1.050,0.280,133.333,116.667,291.667,605.556,11.111,R
362,-0.055,1.160,0.415,141.667,100.000,291.667,627.778,22.222,R
363,0.205,1.230,0.470,141.667,97.222,291.667,647.222,19.444,R
364,0.135,1.215,0.400,133.333,113.889,305.556,661.111,13.889,R
365,-0.015,0.995,0.190,130.556,100.000,305.556,644.444,16.667,R
366,-0.110,1.090,0.385,125.000,94.444,275.000,641.667,2.778,R
367,0.120,1.340,0.460,133.333,113.889,280.556,641.667,0.000,R
368,0.165,1.240,0.385,127.778,105.556,277.778,627.778,13.889,R
369,0.045,1.085,0.155,127.778,108.333,272.222,636.111,8.333,R
370,-0.150,1.165,0.415,138.889,111.111,275.000,633.333,2.778,R
371,0.190,1.405,0.500,138.889,111.111,283.333,661.111,27.778,R
372,0.220,1.415,0.435,136.111,102.778,288.889,700.000,38.889,R
373,0.050,1.115,0.220,150.000,116.667,305.556,680.556,19.444,R
374,-0.030,1.180,0.350,136.111,97.222,305.556,686.111,5.556,R
375,0.065,1.230,0.345,144.444,111.111,291.667,688.889,2.778,R
376,0.030,1.165,0.200,138.889,105.556,269.444,661.111,27.778,R
377,-0.145,0.985,0.130,122.222,113.889,283.333,616.667,44.444,R
378,-0.095,1.170,0.415,138.889,97.222,272.222,613.889,2.778,R
379,0.135,1.280,0.435,136.111,116.667,288.889,613.889,0.000,R
380,0.100,1.195,0.325,138.889,100.000,291.667,638.889,25.000,R
381,-0.050,0.995,0.260,147.222,105.556,294.444,655.556,16.667,R
382,0.055,1.325,0.620,152.778,91.667,291.667,675.000,19.444,R
383,0.255,1.270,0.550,138.889,94.444,294.444,666.667,8.333,R
384,0.195,1.290,0.375,138.889,116.667,291.667,697.222,30.556,R
385,-0.040,0.930,0.220,141.667,94.444,288.889,655.556,41.667,R
386,-0.115,1.200,0.435,147.222,97.222,288.889,638.889,16.667,R
387,0.185,1.315,0.495,127.778,108.333,272.222,647.222,8.333,R
388,0.110,1.280,0.370,144.444,97.222,288.889,636.111,11.111,R
389,-0.065,1.070,0.200,130.556,113.889,294.444,652.778,16.667,R
390,-0.015,1.235,0.470,147.222,100.000,294.444,652.778,0.000,R
391,0.200,1.350,0.520,141.667,94.444,294.444,672.222,19.444,R
392,0.225,1.355,0.440,141.667,100.000,291.667,683.333,11.111,R
393,0.020,1.150,0.320,144.444,83.333,275.000,688.889,5.556,R
394,0.005,1.265,0.480,136.111,100.000,288.889,638.889,50.000,R
395,0.155,1.295,0.535,130.556,116.667,291.667,630.556,8.333,R
396,0.185,1.235,0.455,138.889,100.000,275.000,644.444,13.889,R
397,0.110,1.165,0.205,130.556,111.111,288.889,636.111,8.333,R
398,-0.100,1.085,0.350,133.333,102.778,291.667,619.444,16.667,R
399,0.160,1.190,0.505,144.444,100.000,291.667,644.444,25.000,R
400,0.145,1.075,0.430,141.667,100.000,294.444,663.889,19.444,R
401,0.015,1.005,0.185,133.333,97.222,272.222,672.222,8.333,R
402,-0.145,1.070,0.365,147.222,100.000,288.889,636.111,36.111,R
403,0.135,1.215,0.405,141.667,97.222,291.667,641.667,5.556,R
404,0.010,1.090,0.200,127.778,100.000,269.444,636.111,5.556,R
405,-0.250,0.815,-0.050,136.111,100.000,286.111,608.333,27.778,R
406,-0.270,1.085,0.285,127.778,100.000,288.889,608.333,0.000,R
407,-0.035,1.275,0.370,130.556,97.222,291.667,636.111,27.778,R
408,0.095,1.255,0.385,138.889,105.556,300.000,644.444,8.333,R
409,-0.010,1.080,0.200,144.444,97.222,291.667,652.778,8.333,R
410,-0.185,1.065,0.270,141.667,100.000,305.556,652.778,0.000,R
411,0.025,1.300,0.400,147.222,100.000,308.333,666.667,13.889,R
412,0.100,1.235,0.385,141.667,97.222,291.667,663.889,2.778,R
413,0.130,1.175,0.245,138.889,100.000,272.222,644.444,19.444,R
414,-0.045,1.130,0.250,125.000,100.000,291.667,602.778,41.667,R
415,0.080,1.405,0.565,136.111,97.222,275.000,597.222,5.556,R
416,0.280,1.515,0.535,133.333,111.111,272.222,591.667,5.556,R
417,0.170,1.350,0.350,141.667,97.222,288.889,597.222,5.556,R
418,-0.010,1.070,0.235,133.333,88.889,288.889,625.000,27.778,R
419,-0.075,1.260,0.355,150.000,100.000,305.556,644.444,19.444,R
420,0.090,1.415,0.445,138.889,97.222,291.667,641.667,2.778,R
421,0.135,1.375,0.430,133.333,102.778,302.778,677.778,36.111,R
422,0.100,1.315,0.320,133.333,97.222,288.889,650.000,27.778,R
423,-0.050,1.235,0.340,133.333,111.111,286.111,630.556,19.444,R
424,0.100,1.370,0.590,133.333,116.667,288.889,619.444,11.111,R
425,0.175,1.325,0.405,136.111,102.778,275.000,619.444,0.000,R
426,0.040,1.150,0.175,136.111,86.111,272.222,633.333,13.889,R
427,-0.150,1.050,0.195,130.556,86.111,277.778,608.333,25.000,R
428,-0.055,1.105,0.255,136.111,105.556,294.444,625.000,16.667,R
429,-0.085,1.205,0.335,133.333,97.222,291.667,672.222,47.222,R
430,-0.030,1.090,0.130,144.444,102.778,294.444,666.667,5.556,R
431,-0.315,1.000,-0.010,133.333,102.778,291.667,638.889,27.778,R
432,-0.230,1.195,0.400,141.667,97.222,277.778,613.889,25.000,R
433,0.145,1.525,0.585,133.333,94.444,286.111,602.778,11.111,R
434,0.280,1.525,0.535,133.333,97.222,269.444,597.222,5.556,R
435,0.205,1.360,0.480,133.333,83.333,269.444,602.778,5.556,R
436,0.180,1.075,0.170,138.889,105.556,294.444,605.556,2.778,R
437,-0.285,0.910,0.020,138.889,100.000,288.889,619.444,13.889,R
438,-0.265,0.980,0.095,150.000,116.667,305.556,611.111,8.333,R
439,-0.185,1.000,0.260,141.667,100.000,291.667,619.444,8.333,R
440,-0.065,1.195,0.290,141.667,108.333,280.556,633.333,13.889,R
441,-0.015,1.125,0.085,136.111,116.667,291.667,627.778,5.556,R
442,-0.215,0.980,0.125,130.556,102.778,261.111,600.000,27.778,R
443,-0.195,0.940,0.360,138.889,100.000,275.000,586.111,13.889,R
444,0.125,1.390,0.565,130.556,100.000,288.889,577.778,8.333,R
445,0.155,1.315,0.565,130.556,91.667,275.000,625.000,47.222,R
446,0.225,1.320,0.490,130.556,102.778,294.444,625.000,0.000,R
447,0.200,1.100,0.415,138.889,100.000,288.889,641.667,16.667,R
448,0.000,0.895,0.175,136.111,116.667,308.333,644.444,2.778,R
449,-0.205,0.785,-0.085,144.444,97.222,302.778,644.444,0.000,R
450,-0.460,0.885,0.230,141.667,97.222,288.889,627.778,16.667,R
451,-0.080,1.120,0.305,133.333,100.000,275.000,594.444,33.333,R
452,0.070,1.250,0.405,133.333,100.000,275.000,602.778,8.333,R
453,0.105,1.110,0.365,125.000,100.000,277.778,605.556,2.778,R
454,0.155,1.255,0.400,130.556,100.000,275.000,605.556,0.000,R
455,0.255,1.180,0.380,130.556,97.222,288.889,613.889,8.333,R
456,0.085,1.040,0.145,144.444,100.000,291.667,647.222,33.333,R
457,-0.120,0.960,0.220,138.889,97.222,294.444,633.333,13.889,R
458,-0.055,1.155,0.390,133.333,105.556,291.667,638.889,5.556,R
459,0.035,1.240,0.315,150.000,94.444,288.889,636.111,2.778,R
460,0.030,1.235,0.395,133.333,100.000,288.889,650.000,13.889,R
461,0.000,1.240,0.250,136.111,100.000,286.111,597.222,52.778,R
462,0.125,1.305,0.190,136.111,83.333,277.778,602.778,5.556,R
463,-0.115,0.860,-0.180,152.778,83.333,275.000,616.667,13.889,R
464,-0.380,0.695,-0.590,138.889,88.889,222.222,600.000,16.667,R
465,-0.955,0.085,-0.800,130.556,91.667,275.000,605.556,5.556,R
466,-0.835,0.470,-0.330,127.778,83.333,272.222,622.222,16.667,R
467,-0.385,0.670,-0.230,158.333,83.333,291.667,644.444,22.222,R
468,-0.490,0.705,-0.070,125.000,91.667,291.667,647.222,2.778,R
469,-0.130,1.110,0.370,133.333,94.444,266.667,644.444,2.778,R
470,-0.035,1.160,0.300,136.111,97.222,300.000,650.000,5.556,R
471,0.110,1.250,0.375,125.000,116.667,291.667,661.111,11.111,R
472,0.245,1.610,0.555,133.333,83.333,272.222,633.333,27.778,R
473,0.390,1.745,0.810,130.556,116.667,277.778,633.333,0.000,R
474,0.560,1.755,0.715,133.333,113.889,308.333,633.333,0.000,R
475,0.290,1.465,0.425,152.778,108.333,280.556,655.556,22.222,R
476,0.265,1.495,0.590,125.000,102.778,291.667,655.556,0.000,R
477,0.325,1.750,0.740,136.111,97.222,286.111,675.000,19.444,R
478,0.420,1.600,0.785,150.000,100.000,300.000,694.444,19.444,R
479,0.345,1.925,0.370,125.000,94.444,244.444,730.556,36.111,N
480,0.420,1.900,0.530,122.222,86.111,244.444,697.222,33.333,N
481,0.360,1.770,0.355,119.444,80.556,255.556,666.667,30.556,N
482,0.200,1.555,0.240,125.000,80.556,297.222,652.778,13.889,N
483,0.150,1.570,0.205,119.444,69.444,244.444,622.222,30.556,N
484,0.080,1.590,0.310,130.556,75.000,272.222,616.667,5.556,N
485,0.155,1.540,0.350,138.889,52.778,261.111,641.667,25.000,N
486,0.110,1.355,0.085,150.000,80.556,311.111,658.333,16.667,N
487,-0.055,1.470,0.150,144.444,75.000,280.556,655.556,2.778,N
488,0.230,1.655,0.300,136.111,72.222,272.222,666.667,11.111,N
489,0.215,1.745,0.355,127.778,77.778,280.556,661.111,5.556,N
490,0.140,1.435,-0.075,122.222,83.333,233.333,655.556,5.556,N
491,-0.330,1.225,-0.110,138.889,77.778,266.667,630.556,25.000,N
492,-0.075,1.265,0.050,130.556,80.556,247.222,638.889,8.333,N
493,-0.025,1.425,0.045,133.333,80.556,241.667,661.111,22.222,N
494,-0.165,1.215,-0.165,161.111,116.667,294.444,677.778,16.667,N
495,-0.220,1.335,0.105,138.889,77.778,291.667,677.778,0.000,N
496,0.190,1.730,0.110,150.000,63.889,269.444,677.778,0.000,N
497,-0.005,1.425,0.035,144.444,77.778,286.111,680.556,2.778,N
498,-0.235,1.175,-0.270,136.111,66.667,280.556,636.111,44.444,N
499,-0.300,1.165,-0.170,127.778,88.889,255.556,619.444,16.667,N
500,-0.140,1.490,-0.005,125.000,83.333,269.444,636.111,16.667,N
501,-0.035,1.695,0.055,144.444,61.111,233.333,647.222,11.111,N
502,0.095,1.630,0.210,138.889,75.000,275.000,669.444,22.222,N
503,0.270,1.825,0.430,133.333,69.444,286.111,672.222,2.778,N
504,0.425,1.780,0.415,127.778,77.778,311.111,680.556,8.333,N
505,0.305,1.680,0.215,136.111,86.111,263.889,672.222,8.333,N
506,0.205,1.420,0.155,127.778,86.111,294.444,658.333,13.889,N
507,0.145,1.600,0.255,141.667,69.444,269.444,636.111,22.222,N
508,0.235,1.695,0.355,127.778,63.889,238.889,616.667,19.444,N
509,0.225,1.740,0.395,138.889,72.222,266.667,600.000,16.667,N
510,0.185,1.725,0.235,130.556,86.111,216.667,591.667,8.333,N
511,0.310,1.890,0.525,138.889,66.667,277.778,602.778,11.111,N
512,0.510,2.060,0.645,133.333,80.556,263.889,661.111,58.333,N
513,0.535,1.940,0.520,138.889,88.889,288.889,686.111,25.000,N
514,0.375,1.735,0.165,161.111,80.556,272.222,688.889,2.778,N
515,0.105,1.495,0.320,125.000,105.556,241.667,663.889,25.000,N
516,0.250,1.805,0.340,144.444,75.000,266.667,638.889,25.000,N
517,0.190,1.585,0.350,125.000,55.556,244.444,641.667,2.778,N
518,0.090,1.375,0.035,136.111,77.778,294.444,619.444,22.222,N
519,-0.150,1.270,-0.010,125.000,77.778,266.667,613.889,5.556,N
520,0.010,1.430,0.170,125.000,44.444,250.000,602.778,11.111,N
521,0.025,1.415,0.105,125.000,69.444,269.444,622.222,19.444,N
522,-0.010,1.205,-0.150,158.333,97.222,277.778,641.667,19.444,N
523,-0.260,1.155,-0.170,158.333,77.778,313.889,638.889,2.778,N
524,-0.100,1.200,-0.050,133.333,75.000,266.667,636.111,2.778,N
525,-0.100,1.300,-0.060,150.000,69.444,283.333,666.667,30.556,N
526,-0.215,0.905,-0.315,125.000,69.444,308.333,647.222,19.444,N
527,-0.480,0.865,-0.120,133.333,77.778,275.000,605.556,41.667,N
528,-0.355,1.000,-0.150,113.889,66.667,200.000,577.778,27.778,N
529,-0.275,1.325,-0.135,138.889,94.444,266.667,641.667,63.889,N
530,-0.295,1.230,-0.210,136.111,77.778,266.667,652.778,11.111,N
531,-0.300,1.170,0.065,130.556,80.556,300.000,625.000,27.778,N
532,0.050,1.330,0.225,155.556,72.222,258.333,661.111,36.111,N
533,-0.040,1.105,-0.255,152.778,113.889,311.111,672.222,11.111,N
534,-0.210,1.060,-0.055,127.778,83.333,244.444,630.556,41.667,N
535,0.000,1.350,0.140,144.444,55.556,255.556,630.556,0.000,N
536,0.050,1.475,0.075,141.667,52.778,244.444,577.778,52.778,N
537,-0.130,0.915,0.305,130.556,77.778,302.778,577.778,0.000,R
538,-0.055,1.235,0.435,144.444,88.889,277.778,583.333,5.556,R
539,0.155,1.375,0.650,141.667,91.667,263.889,572.222,11.111,R
540,0.235,1.425,0.630,141.667,111.111,300.000,608.333,36.111,R
541,0.120,1.170,0.560,127.778,80.556,291.667,650.000,41.667,R
542,0.230,1.255,0.515,130.556,86.111,261.111,666.667,16.667,R
543,0.210,1.260,0.385,141.667,80.556,255.556,672.222,5.556,R
544,0.015,1.025,0.250,133.333,102.778,311.111,638.889,33.333,R
545,0.060,1.160,0.375,141.667,105.556,263.889,622.222,16.667,R
546,0.115,1.240,0.540,172.222,80.556,294.444,600.000,22.222,R
547,0.140,1.160,0.265,127.778,88.889,277.778,591.667,8.333,R
548,-0.105,0.865,0.145,133.333,83.333,227.778,600.000,8.333,R
549,-0.130,0.960,0.240,136.111,113.889,286.111,594.444,5.556,R
550,-0.125,1.025,0.155,155.556,116.667,311.111,636.111,41.667,R
551,-0.180,0.875,0.070,130.556,69.444,277.778,675.000,38.889,R
552,-0.245,0.850,0.205,130.556,77.778,302.778,661.111,13.889,R
553,-0.090,0.995,0.185,133.333,102.778,286.111,661.111,0.000,R
554,-0.290,0.805,0.070,144.444,111.111,286.111,636.111,25.000,R
555,-0.155,0.925,0.350,130.556,55.556,266.667,605.556,30.556,R
556,-0.020,1.030,0.335,133.333,77.778,283.333,608.333,2.778,R
557,0.035,0.910,0.135,130.556,97.222,266.667,591.667,16.667,R
558,-0.235,0.840,0.055,122.222,94.444,291.667,611.111,19.444,R
559,-0.245,0.990,0.215,130.556,86.111,275.000,627.778,16.667,R
560,-0.010,1.055,0.260,144.444,86.111,280.556,641.667,13.889,R
561,-0.075,0.885,0.110,130.556,83.333,266.667,666.667,25.000,R
562,-0.160,0.825,0.070,136.111,97.222,288.889,669.444,2.778,R
563,-0.140,1.110,0.270,133.333,83.333,288.889,688.889,19.444,R
564,-0.010,1.155,0.430,144.444,100.000,288.889,686.111,2.778,R
565,0.100,1.160,0.320,138.889,94.444,258.333,663.889,22.222,R
566,-0.105,0.880,0.165,119.444,88.889,283.333,622.222,41.667,R
567,-0.140,0.920,0.350,125.000,88.889,261.111,613.889,8.333,R
568,0.035,1.180,0.340,147.222,77.778,241.667,627.778,13.889,R
569,0.025,1.035,0.180,147.222,94.444,305.556,630.556,2.778,R
570,-0.135,0.960,0.200,138.889,102.778,288.889,658.333,27.778,R
571,-0.110,1.130,0.455,155.556,100.000,300.000,666.667,8.333,R
572,0.235,1.290,0.640,136.111,113.889,308.333,650.000,16.667,R
573,0.240,1.255,0.475,130.556,77.778,261.111,650.000,0.000,R
574,0.150,1.295,0.470,130.556,113.889,288.889,627.778,22.222,R
575,0.105,1.260,0.615,125.000,116.667,286.111,625.000,2.778,R
576,0.295,1.520,0.705,133.333,97.222,258.333,641.667,16.667,R
577,0.305,1.515,0.670,130.556,97.222,288.889,663.889,22.222,R
578,0.355,1.635,0.290,125.000,66.667,258.333,711.111,47.222,N
579,0.200,1.380,0.195,138.889,69.444,275.000,683.333,27.778,N
580,0.110,1.270,0.080,133.333,66.667,258.333,658.333,25.000,N
581,-0.005,1.260,0.150,136.111,80.556,302.778,638.889,19.444,N
582,0.160,1.160,0.470,141.667,102.778,291.667,636.111,2.778,R
583,0.160,1.200,0.375,138.889,102.778,269.444,613.889,22.222,R
584,0.070,0.995,0.215,119.444,97.222,272.222,611.111,2.778,R
585,-0.080,0.915,0.175,130.556,97.222,275.000,597.222,13.889,R
586,-0.035,1.035,0.325,127.778,100.000,261.111,586.111,11.111,R
587,0.015,0.950,0.225,127.778,97.222,288.889,611.111,25.000,R
588,-0.110,0.945,0.105,138.889,100.000,291.667,680.556,69.444,R
589,-0.300,0.790,-0.050,133.333,100.000,288.889,694.444,13.889,R
590,-0.275,0.980,0.205,130.556,100.000,291.667,677.778,16.667,R
591,-0.060,1.025,0.125,144.444,100.000,283.333,666.667,11.111,R
592,-0.245,1.025,-0.095,125.000,77.778,258.333,663.889,2.778,R
593,-0.415,0.715,0.045,138.889,80.556,269.444,638.889,25.000,R
594,-0.265,0.880,0.190,122.222,108.333,261.111,608.333,30.556,R
595,-0.020,1.200,0.295,141.667,100.000,288.889,622.222,13.889,R
596,-0.040,1.155,0.215,125.000,86.111,261.111,655.556,33.333,R
597,-0.090,0.865,0.155,144.444,108.333,263.889,638.889,16.667,R
598,-0.020,1.095,0.505,144.444,80.556,275.000,647.222,8.333,R
599,0.090,1.260,0.415,172.222,86.111,277.778,666.667,19.444,R
600,0.020,1.110,0.325,127.778,83.333,297.222,700.000,33.333,R
601,-0.150,1.020,0.345,111.111,102.778,269.444,652.778,47.222,R
602,0.080,1.230,0.425,119.444,116.667,286.111,627.778,25.000,R
603,0.110,1.220,0.415,125.000,75.000,258.333,613.889,13.889,R
604,0.000,1.235,0.400,116.667,91.667,275.000,641.667,27.778,R
605,0.025,1.120,0.385,119.444,91.667,272.222,641.667,0.000,R
606,0.225,1.275,0.540,122.222,102.778,311.111,638.889,2.778,R
607,0.230,1.390,0.470,130.556,86.111,291.667,694.444,55.556,R
608,-0.045,1.055,0.285,152.778,94.444,283.333,700.000,5.556,R
609,-0.005,1.125,0.590,119.444,88.889,294.444,669.444,30.556,R
610,0.085,1.245,0.555,147.222,102.778,275.000,677.778,8.333,R
611,0.090,1.250,0.475,130.556,100.000,288.889,677.778,0.000,R
612,0.060,1.185,0.340,125.000,97.222,280.556,666.667,11.111,R
613,-0.090,1.135,0.310,130.556,105.556,275.000,644.444,22.222,R
614,0.145,1.270,0.430,138.889,105.556,280.556,636.111,8.333,R
615,0.090,1.305,0.630,130.556,97.222,294.444,633.333,2.778,R
616,0.135,1.150,0.400,130.556,72.222,258.333,661.111,27.778,R
617,0.055,1.110,0.345,150.000,69.444,266.667,680.556,19.444,R
618,-0.090,0.930,0.240,127.778,77.778,255.556,644.444,36.111,R
619,0.110,1.050,0.390,138.889,102.778,294.444,627.778,16.667,R
620,0.030,1.165,0.235,141.667,97.222,247.222,636.111,8.333,R
621,-0.050,1.050,0.220,141.667,94.444,261.111,633.333,2.778,R
622,-0.165,0.890,0.255,127.778,102.778,255.556,627.778,5.556,R
623,-0.040,1.225,0.385,141.667,91.667,291.667,625.000,2.778,R
624,0.020,1.220,0.390,155.556,111.111,297.222,666.667,41.667,R
625,0.015,1.110,0.335,136.111,88.889,286.111,713.889,47.222,R
626,-0.105,1.110,0.495,138.889,83.333,275.000,686.111,27.778,R
627,0.235,1.310,0.505,130.556,100.000,294.444,669.444,16.667,R
628,0.180,1.155,0.425,130.556,105.556,280.556,669.444,0.000,R
629,-0.035,0.820,0.225,147.222,113.889,283.333,644.444,25.000,R
630,-0.120,1.075,0.410,136.111,94.444,269.444,600.000,44.444,R
631,0.075,1.205,0.450,127.778,86.111,255.556,613.889,13.889,R
632,-0.040,1.090,0.460,144.444,108.333,291.667,638.889,25.000,R
633,-0.100,1.160,0.305,122.222,80.556,275.000,663.889,25.000,R
634,0.055,1.250,0.540,127.778,102.778,288.889,658.333,5.556,R
635,0.235,1.255,0.605,138.889,108.333,297.222,663.889,5.556,R
636,0.130,1.390,0.490,150.000,102.778,305.556,680.556,16.667,R
637,0.000,1.110,0.575,141.667,111.111,300.000,658.333,22.222,R
638,0.395,1.305,0.685,127.778,94.444,283.333,619.444,38.889,R
639,0.285,1.345,0.555,138.889,108.333,247.222,611.111,8.333,R
640,0.120,1.075,0.380,125.000,80.556,269.444,569.444,41.667,R
641,0.040,1.090,0.490,141.667,116.667,286.111,572.222,2.778,R
642,0.075,1.095,0.555,130.556,100.000,255.556,588.889,16.667,R
643,0.140,1.265,0.510,127.778,111.111,280.556,602.778,13.889,R
644,0.150,0.975,0.200,144.444,83.333,280.556,641.667,38.889,R
645,-0.200,0.905,0.305,169.444,102.778,311.111,638.889,2.778,R
646,0.070,1.155,0.425,138.889,63.889,286.111,616.667,22.222,R
647,0.020,0.995,0.405,130.556,75.000,269.444,627.778,11.111,R
648,-0.085,0.745,0.130,133.333,80.556,255.556,608.333,19.444,R
649,-0.190,0.655,0.310,116.667,102.778,269.444,588.889,19.444,R
650,0.030,1.120,0.485,122.222,105.556,291.667,594.444,5.556,R
651,0.150,1.145,0.360,136.111,86.111,250.000,597.222,2.778,R
652,-0.085,0.795,0.230,125.000,83.333,266.667,594.444,2.778,R
653,-0.170,0.925,0.350,138.889,102.778,302.778,580.556,13.889,R
654,0.185,1.060,0.275,147.222,102.778,280.556,602.778,22.222,R
655,0.115,0.960,0.205,127.778,100.000,308.333,627.778,25.000,R
656,-0.055,0.985,0.105,130.556,100.000,244.444,627.778,0.000,R
657,-0.295,0.825,0.110,150.000,105.556,275.000,619.444,8.333,R
658,-0.250,0.905,0.375,147.222,100.000,291.667,588.889,30.556,R
659,-0.040,0.970,0.335,138.889,80.556,222.222,586.111,2.778,R
660,0.030,0.935,0.340,122.222,94.444,258.333,577.778,8.333,R
661,-0.115,0.820,0.130,130.556,102.778,280.556,575.000,2.778,R
662,-0.265,0.815,0.210,144.444,94.444,297.222,572.222,2.778,R
663,-0.020,1.000,0.370,125.000,102.778,291.667,605.556,33.333,R
664,-0.020,1.135,0.435,133.333,116.667,308.333,669.444,63.889,R
665,0.090,1.150,0.470,136.111,108.333,302.778,675.000,5.556,R
666,0.020,1.155,0.335,130.556,75.000,283.333,675.000,0.000,R
667,0.230,1.265,0.530,127.778,94.444,238.889,644.444,30.556,R
668,0.310,1.255,0.500,133.333,100.000,286.111,597.222,47.222,R
669,0.245,1.220,0.345,116.667,80.556,255.556,583.333,13.889,R
670,0.125,1.100,0.450,122.222,77.778,255.556,569.444,13.889,R
671,0.280,1.315,0.415,141.667,83.333,263.889,569.444,0.000,R
672,0.265,1.075,0.290,130.556,108.333,305.556,583.333,13.889,R
673,0.005,0.920,0.045,122.222,83.333,288.889,577.778,5.556,R
674,-0.160,0.925,0.385,133.333,111.111,288.889,608.333,30.556,R
675,0.015,1.100,0.325,127.778,75.000,291.667,611.111,2.778,R
676,0.055,1.065,0.210,130.556,69.444,277.778,636.111,25.000,R
677,-0.115,0.955,0.310,122.222,91.667,277.778,638.889,2.778,R
678,-0.040,1.110,0.315,130.556,69.444,277.778,613.889,25.000,R
679,0.070,0.920,0.230,125.000,80.556,244.444,611.111,2.778,R
680,-0.175,0.845,0.145,130.556,80.556,286.111,586.111,25.000,R
681,-0.125,1.150,0.350,116.667,58.333,269.444,605.556,19.444,R
682,0.200,1.095,0.405,141.667,105.556,269.444,625.000,19.444,R
683,0.035,0.960,0.150,141.667,72.222,277.778,630.556,5.556,R
684,-0.260,0.640,0.115,161.111,83.333,286.111,647.222,16.667,R
685,0.005,0.990,0.350,133.333,105.556,325.000,644.444,2.778,R
686,0.035,1.215,0.475,127.778,86.111,247.222,647.222,2.778,R
687,0.065,1.125,0.205,150.000,72.222,286.111,627.778,19.444,R
688,-0.095,0.975,0.355,125.000,77.778,252.778,588.889,38.889,R
689,-0.065,1.140,0.340,111.111,83.333,277.778,588.889,0.000,R
690,0.120,1.225,0.400,150.000,116.667,280.556,597.222,8.333,R
691,0.115,1.100,0.230,130.556,77.778,261.111,597.222,0.000,R
692,-0.005,1.100,0.290,133.333,83.333,258.333,627.778,30.556,R
693,-0.010,1.205,0.560,144.444,111.111,311.111,611.111,16.667,R
694,0.205,1.340,0.605,163.889,88.889,308.333,636.111,25.000,R
695,0.215,1.360,0.455,133.333,86.111,286.111,650.000,13.889,R
696,0.035,0.985,0.245,152.778,108.333,291.667,625.000,25.000,R
697,-0.010,1.125,0.420,130.556,116.667,291.667,619.444,5.556,R
698,0.230,1.380,0.505,136.111,111.111,288.889,605.556,13.889,R
699,0.165,1.125,0.390,119.444,72.222,272.222,594.444,11.111,R
700,0.005,1.055,0.275,141.667,113.889,277.778,611.111,16.667,R
701,0.055,1.065,0.355,141.667,83.333,263.889,594.444,16.667,R
702,0.085,1.250,0.480,133.333,105.556,305.556,616.667,22.222,R
703,0.110,1.120,0.275,133.333,113.889,275.000,641.667,25.000,R
704,-0.030,1.150,0.275,127.778,86.111,275.000,647.222,5.556,R
705,-0.125,1.040,0.365,130.556,80.556,269.444,636.111,11.111,R
706,0.060,1.010,0.440,127.778,105.556,261.111,597.222,38.889,R
707,0.085,1.155,0.260,141.667,94.444,236.111,611.111,13.889,R
708,-0.030,0.850,0.170,136.111,100.000,283.333,605.556,5.556,R
709,-0.190,0.940,0.225,119.444,94.444,291.667,594.444,11.111,R
710,-0.075,1.130,0.320,122.222,77.778,291.667,611.111,16.667,R
711,0.025,1.155,0.375,144.444,105.556,302.778,625.000,13.889,R
712,0.040,0.915,0.235,138.889,91.667,266.667,647.222,22.222,R
713,-0.090,0.965,0.230,152.778,94.444,291.667,666.667,19.444,R
714,-0.050,1.060,0.285,133.333,116.667,286.111,627.778,38.889,R
715,-0.015,1.140,0.220,130.556,97.222,291.667,638.889,11.111,R
716,0.010,0.995,0.030,133.333,100.000,291.667,644.444,5.556,R
717,-0.290,0.755,0.175,130.556,94.444,272.222,608.333,36.111,R
718,-0.150,0.895,0.320,155.556,66.667,266.667,594.444,13.889,R
719,0.005,1.075,0.265,127.778,113.889,277.778,600.000,5.556,R
720,-0.035,0.980,0.210,133.333,97.222,297.222,625.000,25.000,R
721,-0.065,1.110,0.280,138.889,100.000,288.889,641.667,16.667,R
722,-0.010,1.235,0.290,130.556,75.000,266.667,627.778,13.889,R
723,0.115,1.070,0.440,141.667,97.222,283.333,675.000,47.222,R
724,0.130,1.120,0.295,141.667,97.222,291.667,677.778,2.778,R
725,0.005,1.220,0.475,125.000,97.222,275.000,641.667,36.111,R
726,0.155,1.120,0.385,144.444,94.444,263.889,633.333,8.333,R
727,0.005,1.035,0.275,136.111,91.667,286.111,622.222,11.111,R
728,-0.105,0.945,0.340,116.667,86.111,263.889,613.889,8.333,R
729,0.075,1.105,0.375,122.222,102.778,277.778,619.444,5.556,R
730,0.120,1.210,0.415,127.778,88.889,277.778,638.889,19.444,R
731,0.100,1.335,0.435,130.556,69.444,283.333,686.111,47.222,R
732,0.040,1.235,0.360,138.889,116.667,288.889,675.000,11.111,R
733,0.150,1.320,0.530,111.111,69.444,263.889,666.667,8.333,R
734,0.265,1.220,0.375,133.333,94.444,252.778,661.111,5.556,R
735,0.105,1.110,0.280,144.444,97.222,291.667,650.000,11.111,R
736,-0.070,1.145,0.355,138.889,105.556,291.667,608.333,41.667,R
737,0.185,1.360,0.455,130.556,91.667,252.778,594.444,13.889,R
738,0.090,1.215,0.295,130.556,100.000,258.333,586.111,8.333,R
739,-0.040,1.125,0.270,122.222,97.222,275.000,591.667,5.556,R
740,-0.030,1.205,0.375,133.333,102.778,308.333,605.556,13.889,R
741,0.020,1.250,0.435,138.889,80.556,319.444,655.556,50.000,R
742,0.025,1.310,0.195,138.889,63.889,305.556,730.556,75.000,R
743,0.090,1.140,0.285,147.222,94.444,280.556,733.333,2.778,R
744,-0.135,0.230,-0.060,133.333,69.444,291.667,638.889,94.444,R
745,-0.390,0.605,0.150,138.889,72.222,297.222,602.778,36.111,R
746,-0.040,1.050,0.330,133.333,102.778,277.778,591.667,11.111,R
747,-0.080,0.970,0.190,125.000,88.889,277.778,580.556,11.111,R
748,-0.190,0.945,0.395,125.000,91.667,294.444,591.667,11.111,R
749,0.250,1.450,0.500,147.222,77.778,261.111,630.556,38.889,R
750,0.100,1.220,0.390,136.111,97.222,297.222,652.778,22.222,R
751,0.140,1.040,0.265,127.778,108.333,288.889,686.111,33.333,R
752,-0.145,1.150,0.465,127.778,94.444,280.556,663.889,22.222,R
753,0.050,1.390,0.420,141.667,80.556,291.667,677.778,13.889,R
754,0.235,1.540,0.460,127.778,72.222,250.000,694.444,16.667,R
755,0.180,1.475,0.445,133.333,108.333,261.111,638.889,55.556,R
756,0.120,1.200,0.390,133.333,100.000,263.889,613.889,25.000,R
757,0.150,1.315,0.630,127.778,111.111,280.556,611.111,2.778,R
758,0.320,1.560,0.750,138.889,102.778,286.111,641.667,30.556,R
759,0.335,1.455,0.515,144.444,75.000,269.444,644.444,2.778,R
760,0.180,1.345,0.355,127.778,91.667,269.444,669.444,25.000,R
761,0.325,1.250,0.625,158.333,102.778,288.889,672.222,2.778,R
762,0.210,1.405,0.570,130.556,100.000,291.667,666.667,5.556,R
763,0.145,1.440,0.540,125.000,105.556,291.667,683.333,16.667,R
764,0.255,1.215,0.425,136.111,116.667,286.111,647.222,36.111,R
765,0.190,1.170,0.415,136.111,77.778,247.222,647.222,0.000,R
766,0.070,1.215,0.470,122.222,94.444,288.889,641.667,5.556,R
767,0.090,1.385,0.445,125.000,97.222,283.333,644.444,2.778,R
768,0.065,1.040,0.325,130.556,111.111,291.667,658.333,13.889,R
769,-0.135,0.985,0.315,127.778,102.778,283.333,652.778,5.556,R
770,-0.020,1.270,0.370,136.111,88.889,266.667,650.000,2.778,R
771,0.015,1.150,0.335,141.667,102.778,291.667,652.778,2.778,R
772,-0.200,0.910,0.290,136.111,83.333,263.889,641.667,11.111,R
773,-0.065,1.170,0.485,133.333,97.222,277.778,613.889,27.778,R
774,0.070,1.200,0.540,127.778,88.889,266.667,622.222,8.333,R
775,0.145,1.285,0.430,119.444,100.000,266.667,652.778,30.556,R
776,0.165,1.410,0.475,138.889,80.556,272.222,652.778,0.000,R
777,0.200,1.340,0.520,138.889,77.778,275.000,669.444,16.667,R
778,0.275,1.260,0.420,144.444,105.556,263.889,702.778,33.333,R
779,-0.105,0.945,0.185,138.889,86.111,277.778,663.889,38.889,R
780,-0.155,1.125,0.595,125.000,86.111,261.111,655.556,8.333,R
781,0.045,1.070,0.435,169.444,61.111,277.778,625.000,30.556,R
782,0.330,1.035,0.330,136.111,105.556,275.000,616.667,8.333,R
783,-0.045,0.985,0.235,125.000,105.556,255.556,605.556,11.111,R
784,-0.140,1.075,0.290,119.444,72.222,288.889,586.111,19.444,R
785,0.015,0.860,0.295,127.778,102.778,302.778,597.222,11.111,R
786,-0.055,0.925,0.250,125.000,100.000,269.444,630.556,33.333,R
787,0.050,1.105,0.370,130.556,50.000,252.778,641.667,11.111,R
788,0.060,1.285,0.480,155.556,77.778,291.667,650.000,8.333,R
789,0.110,1.205,0.545,138.889,97.222,291.667,672.222,22.222,R
790,0.320,1.305,0.545,147.222,111.111,302.778,694.444,22.222,R
791,0.280,1.260,0.525,125.000,100.000,288.889,661.111,33.333,R
792,0.235,1.280,0.385,141.667,94.444,261.111,644.444,16.667,R
793,-0.020,1.025,0.310,122.222,105.556,272.222,586.111,58.333,R
794,0.050,1.055,0.450,125.000,97.222,277.778,580.556,5.556,R
795,0.125,1.195,0.355,141.667,97.222,277.778,586.111,5.556,R
796,0.010,1.095,0.250,127.778,97.222,291.667,583.333,2.778,R
797,-0.035,1.165,0.335,138.889,97.222,291.667,600.000,16.667,R
798,0.055,1.190,0.335,147.222,102.778,308.333,605.556,5.556,R
799,0.000,0.935,0.175,133.333,116.667,291.667,633.333,27.778,R
800,-0.180,0.875,0.200,133.333,105.556,275.000,622.222,11.111,R
801,-0.095,1.080,0.290,127.778,100.000,275.000,625.000,2.778,R
802,-0.035,1.090,0.320,122.222,102.778,272.222,675.000,50.000,R
803,0.025,1.355,-0.025,136.111,63.889,269.444,713.889,38.889,N
804,-0.050,1.365,0.015,136.111,72.222,277.778,672.222,41.667,N
805,-0.010,1.385,0.020,133.333,80.556,272.222,694.444,22.222,N
806,-0.115,1.150,-0.185,147.222,83.333,308.333,680.556,13.889,N
807,-0.160,1.335,0.045,144.444,77.778,291.667,663.889,16.667,N
808,-0.010,1.355,0.010,136.111,66.667,258.333,672.222,8.333,N
809,-0.090,1.330,-0.145,133.333,63.889,275.000,697.222,25.000,N
810,-0.210,1.250,-0.205,136.111,77.778,288.889,650.000,47.222,N
811,-0.355,1.295,-0.370,122.222,77.778,269.444,655.556,5.556,N
812,-0.285,1.535,0.100,133.333,69.444,277.778,613.889,41.667,N
813,0.195,1.820,0.335,127.778,66.667,272.222,652.778,38.889,N
814,0.365,1.780,0.420,119.444,80.556,275.000,730.556,77.778,N
815,0.315,1.510,0.025,141.667,86.111,297.222,752.778,22.222,N
816,-0.085,1.325,-0.030,147.222,108.333,308.333,725.000,27.778,N
817,-0.010,1.450,0.045,138.889,69.444,277.778,725.000,0.000,N
818,-0.005,1.450,0.100,130.556,80.556,288.889,694.444,30.556,N
819,-0.005,1.455,-0.165,136.111,77.778,247.222,719.444,25.000,N
820,0.015,1.280,-0.055,122.222,77.778,191.667,683.333,36.111,N
821,-0.255,1.120,-0.170,144.444,66.667,261.111,647.222,36.111,N
822,-0.125,1.300,0.020,141.667,58.333,252.778,644.444,2.778,N
823,-0.025,1.355,0.110,130.556,88.889,219.444,644.444,0.000,N
824,-0.035,1.320,-0.015,147.222,105.556,252.778,669.444,25.000,N
825,-0.140,1.260,-0.035,141.667,88.889,230.556,663.889,5.556,N
826,-0.070,1.530,0.100,144.444,88.889,277.778,683.333,19.444,N
827,0.110,1.565,0.230,144.444,97.222,272.222,702.778,19.444,N
828,0.105,1.545,0.195,136.111,77.778,280.556,697.222,5.556,N
829,0.065,1.460,0.080,136.111,86.111,225.000,680.556,16.667,N
830,-0.005,1.530,0.275,133.333,108.333,269.444,644.444,36.111,N
831,0.255,1.550,0.205,136.111,116.667,247.222,650.000,5.556,N
832,0.085,1.495,0.205,136.111,100.000,255.556,663.889,13.889,N
833,0.000,1.470,0.045,144.444,108.333,255.556,700.000,36.111,N
834,-0.190,1.275,-0.005,163.889,97.222,308.333,663.889,36.111,N
835,-0.125,1.475,-0.050,130.556,77.778,294.444,650.000,13.889,N
836,-0.030,1.400,0.055,147.222,63.889,263.889,650.000,0.000,N
837,0.015,1.425,0.040,122.222,105.556,252.778,663.889,13.889,N
838,0.025,1.535,0.225,130.556,80.556,272.222,688.889,25.000,N
839,0.160,1.435,0.240,127.778,75.000,258.333,691.667,2.778,N
840,0.075,1.420,0.200,122.222,66.667,261.111,663.889,27.778,N
841,0.010,1.090,0.200,127.778,80.556,283.333,641.667,22.222,N
842,-0.005,1.340,0.260,155.556,77.778,277.778,641.667,0.000,N
843,0.030,1.290,0.020,163.889,75.000,272.222,652.778,11.111,N
844,-0.105,1.385,0.075,136.111,100.000,252.778,644.444,8.333,N
845,0.055,1.370,0.250,147.222,75.000,280.556,622.222,22.222,N
846,0.110,1.350,0.160,136.111,77.778,297.222,630.556,8.333,N
847,0.045,1.360,0.020,136.111,63.889,263.889,647.222,16.667,N
848,-0.180,1.140,-0.070,133.333,77.778,269.444,616.667,30.556,N
849,-0.125,1.325,0.105,125.000,50.000,227.778,625.000,8.333,N
850,-0.060,1.485,-0.005,130.556,102.778,272.222,663.889,38.889,N
851,-0.100,1.335,0.015,130.556,86.111,300.000,711.111,47.222,N
852,-0.005,1.295,0.075,130.556,113.889,280.556,700.000,11.111,N
853,0.280,1.520,0.220,138.889,72.222,261.111,686.111,13.889,N
854,0.140,1.315,0.240,116.667,66.667,286.111,647.222,38.889,N
855,0.125,1.285,0.060,119.444,83.333,258.333,619.444,27.778,N
856,-0.020,1.335,0.115,119.444,88.889,294.444,588.889,30.556,N
857,0.020,1.260,0.080,138.889,72.222,250.000,580.556,8.333,N
858,-0.185,1.060,-0.065,127.778,69.444,252.778,602.778,22.222,N
859,-0.245,1.070,-0.160,150.000,80.556,241.667,619.444,16.667,N
860,-0.320,1.170,-0.140,152.778,97.222,258.333,627.778,8.333,N
861,-0.110,1.130,0.450,172.222,86.111,288.889,622.222,5.556,R
862,0.085,1.030,0.365,141.667,83.333,269.444,661.111,38.889,R
863,0.065,1.130,0.475,158.333,77.778,280.556,688.889,27.778,R
864,-0.005,1.110,0.510,113.889,111.111,297.222,686.111,2.778,R
865,0.120,1.090,0.520,138.889,83.333,252.778,641.667,44.444,R
866,0.390,1.315,0.625,133.333,80.556,263.889,638.889,2.778,R
867,0.225,1.225,0.495,119.444,80.556,283.333,577.778,61.111,R
868,0.155,1.185,0.470,133.333,77.778,266.667,577.778,0.000,R
869,0.120,1.185,0.375,161.111,80.556,266.667,591.667,13.889,R
870,0.075,1.245,0.430,152.778,52.778,280.556,597.222,5.556,R
871,0.090,1.225,0.470,144.444,111.111,297.222,625.000,27.778,R
872,0.165,1.190,0.220,147.222,108.333,294.444,633.333,8.333,R
873,-0.040,0.975,0.345,147.222,66.667,266.667,619.444,13.889,R
874,0.070,1.220,0.510,125.000,83.333,269.444,611.111,8.333,R
875,0.155,1.255,0.590,125.000,102.778,263.889,613.889,2.778,R
876,0.140,1.245,0.375,138.889,108.333,269.444,636.111,22.222,R
877,-0.040,0.945,0.265,141.667,86.111,277.778,652.778,16.667,R
878,0.065,1.270,0.410,136.111,100.000,294.444,652.778,0.000,R
879,0.075,1.165,0.470,152.778,80.556,266.667,663.889,11.111,R
880,0.035,1.065,0.260,144.444,100.000,311.111,666.667,2.778,R
881,-0.120,1.025,0.305,158.333,88.889,277.778,675.000,8.333,R
882,-0.030,1.060,0.400,155.556,97.222,286.111,655.556,19.444,R
883,-0.035,1.100,0.190,136.111,77.778,275.000,630.556,25.000,R
884,-0.105,0.900,0.090,138.889,86.111,272.222,627.778,2.778,R
885,-0.275,0.800,0.145,130.556,102.778,272.222,611.111,16.667,R
886,-0.125,1.005,0.260,136.111,72.222,244.444,600.000,11.111,R
887,-0.020,1.030,0.270,125.000,97.222,288.889,627.778,27.778,R
888,0.025,1.075,0.360,136.111,116.667,308.333,641.667,13.889,R
889,0.085,1.120,0.350,136.111,102.778,311.111,688.889,47.222,R
890,0.000,0.940,0.020,144.444,108.333,294.444,686.111,2.778,R
891,-0.285,0.755,0.035,141.667,102.778,297.222,647.222,38.889,R
892,-0.230,0.945,0.175,130.556,77.778,269.444,627.778,19.444,R
893,0.125,1.200,0.410,125.000,86.111,280.556,588.889,38.889,R
894,0.135,1.080,0.140,125.000,83.333,244.444,572.222,16.667,R
895,-0.185,0.935,0.175,133.333,83.333,277.778,586.111,13.889,R
896,-0.020,0.980,0.315,130.556,105.556,300.000,572.222,13.889,R
897,0.160,1.120,0.270,138.889,108.333,275.000,600.000,27.778,R
898,-0.180,0.990,0.175,141.667,100.000,286.111,627.778,27.778,R
899,-0.145,1.110,0.505,166.667,102.778,302.778,633.333,5.556,R
900,-0.115,1.100,0.375,138.889,97.222,283.333,669.444,36.111,R
901,0.100,1.095,0.275,147.222,113.889,294.444,663.889,5.556,R
902,-0.090,0.925,0.100,133.333,113.889,300.000,691.667,27.778,R
903,-0.175,0.780,0.090,125.000,86.111,241.667,644.444,47.222,R
904,-0.120,1.170,0.355,130.556,77.778,269.444,613.889,30.556,R
905,0.090,0.940,0.290,125.000,102.778,283.333,594.444,19.444,R
906,-0.025,1.120,0.165,125.000,100.000,288.889,613.889,19.444,R
907,-0.105,1.010,0.505,186.111,80.556,308.333,627.778,13.889,R
908,0.135,1.285,0.460,130.556,108.333,300.000,636.111,8.333,R
909,0.160,1.195,0.540,130.556,108.333,297.222,658.333,22.222,R
910,0.090,1.090,0.130,150.000,91.667,308.333,652.778,5.556,R
911,-0.120,0.870,0.365,138.889,72.222,244.444,633.333,19.444,R
912,-0.005,0.935,0.340,133.333,88.889,241.667,605.556,27.778,R
913,-0.055,0.935,0.255,136.111,105.556,272.222,580.556,25.000,R
914,-0.100,0.790,0.090,130.556,75.000,247.222,602.778,22.222,R
915,-0.110,0.920,0.170,130.556,77.778,261.111,613.889,11.111,R
916,-0.040,0.970,0.280,138.889,105.556,277.778,605.556,8.333,R
917,-0.115,1.110,0.360,141.667,100.000,277.778,625.000,19.444,R
918,-0.030,1.120,0.385,125.000,80.556,286.111,647.222,22.222,R
919,-0.015,1.090,0.345,130.556,111.111,308.333,666.667,19.444,R
920,0.045,1.185,0.400,144.444,83.333,277.778,650.000,16.667,R
921,0.075,1.075,0.235,138.889,111.111,294.444,627.778,22.222,R
922,-0.130,1.020,0.345,133.333,100.000,291.667,625.000,2.778,R
923,-0.015,0.955,0.510,130.556,97.222,286.111,600.000,25.000,R
924,0.015,1.320,0.410,127.778,113.889,291.667,613.889,13.889,R
925,0.095,1.125,0.270,122.222,91.667,261.111,658.333,44.444,R
926,0.020,1.110,0.285,133.333,116.667,308.333,661.111,2.778,R
927,-0.050,1.040,0.300,136.111,86.111,275.000,647.222,13.889,R
928,0.010,1.170,0.360,141.667,100.000,297.222,647.222,0.000,R
929,0.035,1.135,0.375,147.222,111.111,294.444,616.667,30.556,R
930,0.085,1.075,0.325,138.889,116.667,288.889,627.778,11.111,R
931,-0.040,0.960,0.175,133.333,102.778,291.667,597.222,30.556,R
932,-0.110,1.085,0.370,125.000,111.111,291.667,597.222,0.000,R
933,0.100,1.170,0.360,138.889,102.778,269.444,625.000,27.778,R
934,0.070,1.120,0.395,141.667,102.778,291.667,647.222,22.222,R
935,0.085,1.135,0.310,138.889,80.556,277.778,650.000,2.778,R
936,-0.055,0.895,0.170,141.667,102.778,277.778,663.889,13.889,R
937,-0.085,1.030,0.325,144.444,105.556,297.222,658.333,5.556,R
938,0.110,1.125,0.355,141.667,105.556,280.556,644.444,13.889,R
939,0.055,1.005,0.265,144.444,105.556,311.111,644.444,0.000,R
940,-0.115,0.890,0.130,152.778,113.889,300.000,652.778,8.333,R
941,-0.140,1.085,0.375,136.111,100.000,275.000,616.667,36.111,R
942,0.100,1.070,0.385,127.778,100.000,275.000,611.111,5.556,R
943,0.005,1.130,0.240,136.111,113.889,291.667,602.778,8.333,R
944,-0.095,0.985,0.170,130.556,111.111,283.333,636.111,33.333,R
945,-0.105,1.100,0.370,138.889,100.000,294.444,636.111,0.000,R
946,0.120,1.115,0.265,144.444,100.000,300.000,658.333,22.222,R
947,0.040,1.160,0.275,136.111,100.000,291.667,686.111,27.778,R
948,0.035,1.035,0.400,152.778,111.111,297.222,688.889,2.778,R
949,0.170,1.125,0.415,138.889,77.778,261.111,650.000,38.889,R
950,0.145,1.125,0.315,141.667,69.444,241.667,636.111,13.889,R
951,0.025,0.980,0.415,130.556,111.111,291.667,616.667,19.444,R
952,-0.050,1.065,0.330,133.333,100.000,269.444,619.444,2.778,R
953,0.005,1.260,0.340,125.000,86.111,263.889,608.333,11.111,R
954,0.125,1.135,0.345,150.000,116.667,288.889,630.556,22.222,R
955,0.130,1.360,0.540,125.000,75.000,250.000,675.000,44.444,R
956,0.230,1.255,0.520,133.333,100.000,272.222,669.444,5.556,R
957,0.125,1.190,0.415,133.333,108.333,297.222,675.000,5.556,R
958,-0.035,1.055,0.395,130.556,72.222,305.556,655.556,19.444,R
959,0.225,1.275,0.490,138.889,91.667,283.333,661.111,5.556,R
960,0.170,1.250,0.425,127.778,105.556,283.333,655.556,5.556,R
961,0.080,1.000,0.260,125.000,75.000,266.667,630.556,25.000,R
962,-0.075,1.035,0.350,155.556,108.333,280.556,619.444,11.111,R
963,0.095,1.295,0.465,147.222,86.111,266.667,630.556,11.111,R
964,0.005,1.175,0.455,144.444,88.889,300.000,694.444,63.889,R
965,-0.045,0.975,0.270,158.333,113.889,272.222,705.556,11.111,R
966,0.080,1.210,0.390,147.222,86.111,291.667,669.444,36.111,R
967,0.145,1.210,0.475,127.778,100.000,283.333,655.556,13.889,R
968,0.015,1.000,0.195,133.333,66.667,275.000,622.222,33.333,R
969,-0.075,1.055,0.345,136.111,94.444,280.556,602.778,19.444,R
970,0.030,1.205,0.375,119.444,63.889,247.222,613.889,11.111,R
971,0.200,1.070,0.310,125.000,72.222,258.333,638.889,25.000,R
972,0.090,0.975,0.370,133.333,105.556,288.889,641.667,2.778,R
973,-0.090,1.060,0.330,158.333,113.889,311.111,647.222,5.556,R
974,-0.045,0.960,0.290,133.333,105.556,275.000,638.889,8.333,R
975,-0.015,1.120,0.290,172.222,72.222,302.778,641.667,2.778,R
976,0.000,1.065,0.385,138.889,102.778,297.222,652.778,11.111,R
977,-0.100,0.910,0.185,130.556,102.778,294.444,647.222,5.556,R
978,-0.100,0.975,0.340,125.000,113.889,286.111,619.444,27.778,R
979,-0.070,1.105,0.440,141.667,77.778,247.222,608.333,11.111,R
980,0.010,1.130,0.305,127.778,83.333,272.222,605.556,2.778,R
981,0.075,1.190,0.285,136.111,86.111,288.889,641.667,36.111,R
982,-0.005,1.030,0.485,141.667,88.889,272.222,641.667,0.000,R
983,0.215,1.205,0.390,147.222,83.333,266.667,636.111,5.556,R
984,0.195,1.075,0.355,133.333,100.000,288.889,647.222,11.111,R
985,0.025,1.130,0.300,169.444,63.889,291.667,652.778,5.556,R
986,-0.060,1.105,0.420,130.556,97.222,305.556,616.667,36.111,R
987,0.170,1.135,0.325,122.222,97.222,275.000,605.556,11.111,R
988,0.065,1.155,0.245,125.000,94.444,277.778,575.000,30.556,R
989,-0.120,0.890,0.200,125.000,66.667,258.333,572.222,2.778,R
990,-0.075,1.095,0.415,155.556,77.778,294.444,594.444,22.222,R
991,-0.005,1.180,0.215,158.333,80.556,261.111,633.333,38.889,R
992,-0.160,1.035,0.145,133.333,88.889,288.889,669.444,36.111,R
993,-0.150,0.860,0.180,138.889,97.222,280.556,644.444,25.000,R
994,-0.035,1.155,0.445,138.889,88.889,288.889,647.222,2.778,R
995,0.115,1.295,0.440,133.333,100.000,308.333,691.667,44.444,R
996,0.070,1.245,0.370,130.556,86.111,275.000,680.556,11.111,R
997,0.110,1.245,0.410,133.333,102.778,294.444,652.778,27.778,R
998,0.020,0.980,0.265,122.222,108.333,277.778,625.000,27.778,R
999,-0.080,0.930,0.260,127.778,105.556,272.222,586.111,38.889,R
1000,-0.105,1.020,0.405,138.889,111.111,280.556,583.333,2.778,R
1001,0.125,0.865,0.435,163.889,100.000,277.778,586.111,2.778,R
1002,0.255,0.830,0.345,138.889,72.222,275.000,608.333,22.222,R
1003,0.010,1.165,0.315,152.778,88.889,294.444,611.111,2.778,R
1004,0.090,1.165,0.415,127.778,102.778,291.667,580.556,30.556,R
1005,0.080,1.135,0.210,141.667,102.778,297.222,577.778,2.778,R
1006,-0.025,1.215,0.340,136.111,111.111,286.111,547.222,30.556,R
1007,0.025,1.185,0.295,136.111,108.333,280.556,550.000,2.778,R
1008,-0.045,0.985,0.215,147.222,100.000,288.889,563.889,13.889,R
1009,-0.100,0.940,0.180,113.889,97.222,275.000,577.778,13.889,R
1010,-0.140,0.935,0.070,122.222,100.000,261.111,608.333,30.556,R
1011,-0.165,0.900,0.265,122.222,94.444,291.667,600.000,8.333,R
1012,0.030,1.190,0.320,133.333,86.111,280.556,644.444,44.444,R
1013,0.070,1.180,0.350,138.889,105.556,294.444,655.556,11.111,R
1014,-0.005,1.065,0.130,136.111,100.000,288.889,647.222,8.333,R
1015,-0.210,0.910,0.140,144.444,97.222,291.667,644.444,2.778,R
1016,-0.095,1.100,0.260,125.000,108.333,300.000,644.444,0.000,R
1017,-0.100,0.970,0.140,119.444,116.667,291.667,627.778,16.667,R
1018,-0.155,1.050,0.255,116.667,102.778,291.667,597.222,30.556,R
1019,-0.130,1.160,0.285,125.000,97.222,258.333,619.444,22.222,R
1020,0.025,1.180,0.260,127.778,91.667,255.556,658.333,38.889,R
1021,-0.025,0.990,0.060,138.889,88.889,286.111,663.889,5.556,R
1022,-0.135,0.930,0.140,138.889,113.889,297.222,650.000,13.889,R
1023,-0.055,1.125,0.255,144.444,111.111,308.333,669.444,19.444,R
1024,0.025,1.215,0.355,150.000,100.000,291.667,672.222,2.778,R
1025,0.145,1.190,0.415,130.556,83.333,272.222,650.000,22.222,R
1026,0.120,1.155,0.305,127.778,100.000,291.667,630.556,19.444,R
1027,0.010,1.235,0.410,125.000,102.778,283.333,613.889,16.667,R
1028,0.205,1.360,0.470,127.778,86.111,255.556,616.667,2.778,R
1029,0.105,1.320,0.300,133.333,116.667,275.000,638.889,22.222,R
1030,-0.060,1.065,0.215,138.889,108.333,283.333,644.444,5.556,R
1031,0.030,1.220,0.420,130.556,91.667,291.667,658.333,13.889,R
1032,0.200,1.450,0.635,150.000,80.556,275.000,675.000,16.667,R
1033,0.305,1.410,0.525,125.000,94.444,277.778,677.778,2.778,R
1034,0.135,1.180,0.285,150.000,113.889,291.667,683.333,5.556,R
1035,0.020,1.285,0.560,141.667,102.778,288.889,622.222,61.111,R
1036,0.295,1.370,0.630,136.111,97.222,272.222,613.889,8.333,R
1037,0.320,1.440,0.525,130.556,116.667,258.333,627.778,13.889,R
1038,0.125,1.195,0.360,130.556,94.444,286.111,597.222,30.556,R
1039,0.110,1.210,0.425,138.889,97.222,272.222,608.333,11.111,R
1040,0.165,1.330,0.420,152.778,88.889,275.000,613.889,5.556,R
1041,0.060,1.085,0.395,144.444,97.222,305.556,641.667,27.778,R
1042,0.105,1.350,0.530,133.333,113.889,300.000,658.333,16.667,R
1043,0.210,1.250,0.480,141.667,80.556,275.000,638.889,19.444,R
1044,0.145,1.210,0.300,136.111,102.778,286.111,641.667,2.778,R
1045,-0.080,1.000,0.280,144.444,113.889,286.111,613.889,27.778,R
1046,0.025,1.245,0.425,136.111,100.000,272.222,605.556,8.333,R
1047,0.110,0.915,0.195,138.889,108.333,275.000,619.444,13.889,R
1048,-0.110,0.990,0.225,150.000,105.556,297.222,613.889,5.556,R
1049,-0.130,1.015,0.200,150.000,91.667,288.889,633.333,19.444,R
1050,-0.075,1.210,0.325,138.889,61.111,261.111,702.778,69.444,R
1051,0.065,1.185,0.430,152.778,102.778,300.000,702.778,0.000,R
1052,0.170,1.215,0.400,133.333,97.222,283.333,683.333,19.444,R
1053,0.135,1.025,0.315,141.667,113.889,286.111,650.000,33.333,R
1054,0.145,0.980,0.220,147.222,105.556,288.889,622.222,27.778,R
1055,-0.090,1.085,0.325,138.889,86.111,283.333,597.222,25.000,R
1056,0.095,1.250,0.400,130.556,100.000,294.444,569.444,27.778,R
1057,0.100,1.085,0.360,116.667,88.889,252.778,561.111,8.333,R
1058,0.185,1.090,0.250,144.444,97.222,275.000,572.222,11.111,R
1059,-0.040,0.950,0.310,166.667,97.222,272.222,602.778,30.556,R
1060,0.135,1.170,0.480,125.000,88.889,286.111,638.889,36.111,R
1061,0.175,1.225,0.420,122.222,83.333,269.444,663.889,25.000,R
1062,0.095,1.055,0.340,141.667,105.556,311.111,675.000,11.111,R
1063,0.090,1.140,0.455,122.222,97.222,283.333,658.333,16.667,R
1064,0.175,1.205,0.450,130.556,86.111,277.778,644.444,13.889,R
1065,0.120,1.135,0.455,111.111,102.778,277.778,647.222,2.778,R
1066,-0.040,0.975,0.330,116.667,102.778,261.111,655.556,8.333,R
1067,0.085,1.085,0.475,141.667,75.000,288.889,666.667,11.111,R
1068,0.220,1.010,0.435,133.333,75.000,263.889,666.667,0.000,R
1069,0.115,0.995,0.290,175.000,80.556,255.556,661.111,5.556,R
1070,-0.020,1.055,0.360,122.222,69.444,297.222,638.889,22.222,R
1071,0.095,1.125,0.435,144.444,116.667,316.667,647.222,8.333,R
1072,0.155,1.220,0.575,169.444,77.778,250.000,633.333,13.889,R
1073,0.250,1.195,0.355,152.778,116.667,300.000,608.333,25.000,R
1074,0.005,0.800,0.135,130.556,75.000,294.444,622.222,13.889,R
1075,-0.175,0.995,0.390,138.889,61.111,269.444,625.000,2.778,R
1076,0.055,1.150,0.475,133.333,97.222,263.889,597.222,27.778,R
1077,0.185,1.275,0.485,155.556,97.222,288.889,644.444,47.222,R
1078,0.230,1.245,0.435,127.778,100.000,311.111,677.778,33.333,R
1079,0.200,1.105,0.250,138.889,100.000,291.667,683.333,5.556,R
1080,-0.150,0.775,0.075,141.667,91.667,291.667,666.667,16.667,R
1081,-0.105,1.025,0.295,136.111,100.000,305.556,627.778,38.889,R
1082,0.055,1.055,0.300,141.667,97.222,266.667,605.556,22.222,R
1083,-0.045,0.945,0.165,130.556,100.000,275.000,572.222,33.333,R
1084,-0.095,0.940,0.140,130.556,97.222,272.222,550.000,22.222,R
1085,-0.110,0.890,0.100,122.222,105.556,277.778,561.111,11.111,R
1086,-0.170,1.005,0.250,136.111,102.778,302.778,572.222,11.111,R
1087,-0.050,1.020,0.320,144.444,97.222,291.667,613.889,41.667,R
1088,0.035,1.140,0.350,141.667,102.778,302.778,727.778,113.889,R
1089,0.050,1.340,0.045,150.000,77.778,263.889,752.778,25.000,N
1090,-0.090,0.900,0.000,130.556,69.444,350.000,719.444,33.333,N
1091,0.180,1.360,-0.015,111.111,94.444,283.333,655.556,63.889,N
1092,0.125,1.485,0.155,130.556,80.556,255.556,650.000,5.556,N
1093,0.085,1.465,0.035,133.333,69.444,269.444,633.333,16.667,N
1094,-0.040,1.290,-0.005,136.111,72.222,258.333,622.222,11.111,N
1095,0.095,1.525,0.225,127.778,69.444,275.000,586.111,36.111,N
1096,0.160,1.625,0.210,144.444,72.222,275.000,619.444,33.333,N
1097,0.110,1.505,0.115,150.000,66.667,255.556,661.111,41.667,N
1098,-0.020,1.270,-0.125,141.667,72.222,291.667,686.111,25.000,N
1099,-0.210,1.270,-0.030,130.556,80.556,291.667,672.222,13.889,N
1100,-0.015,1.515,0.000,130.556,75.000,272.222,700.000,27.778,N
1101,-0.025,1.570,0.000,138.889,72.222,277.778,694.444,5.556,N
1102,-0.020,1.585,0.015,127.778,75.000,275.000,722.222,27.778,N
1103,0.050,1.500,0.105,136.111,63.889,272.222,691.667,30.556,N
1104,0.125,1.560,0.170,130.556,80.556,277.778,697.222,5.556,N
1105,0.105,1.480,0.070,127.778,69.444,272.222,691.667,5.556,N
1106,-0.060,1.330,-0.030,136.111,77.778,291.667,677.778,13.889,N
1107,-0.010,1.415,0.070,141.667,69.444,275.000,652.778,25.000,N
1108,0.030,1.440,0.045,144.444,69.444,288.889,669.444,16.667,N
1109,-0.035,1.390,0.010,130.556,77.778,277.778,669.444,0.000,N
1110,-0.080,1.365,0.020,136.111,80.556,286.111,641.667,27.778,N
1111,0.065,1.470,0.150,138.889,72.222,275.000,619.444,22.222,N
1112,0.030,1.445,0.080,130.556,61.111,261.111,658.333,38.889,N
1113,0.030,1.440,-0.070,130.556,63.889,275.000,666.667,8.333,N
1114,-0.265,1.175,-0.295,141.667,69.444,288.889,661.111,5.556,N
1115,-0.295,1.270,-0.240,144.444,77.778,291.667,669.444,8.333,N
1116,-0.220,1.475,-0.080,150.000,77.778,305.556,691.667,22.222,N
1117,-0.130,1.470,-0.105,144.444,72.222,288.889,688.889,2.778,N
1118,-0.135,1.415,-0.025,133.333,80.556,258.333,655.556,33.333,N
1119,-0.095,1.290,-0.165,141.667,75.000,261.111,627.778,27.778,N
1120,-0.265,1.195,-0.325,136.111,66.667,258.333,611.111,16.667,N
1121,-0.445,0.980,-0.390,125.000,77.778,255.556,600.000,11.111,N
1122,-0.280,1.380,-0.125,138.889,66.667,272.222,602.778,2.778,N
1123,-0.085,1.475,0.030,141.667,77.778,286.111,625.000,22.222,N
1124,-0.110,1.295,-0.240,150.000,105.556,277.778,663.889,38.889,N
1125,-0.315,1.155,-0.100,138.889,86.111,305.556,641.667,22.222,N
1126,-0.115,1.585,0.055,144.444,86.111,277.778,638.889,2.778,N
1127,-0.115,1.530,0.150,138.889,66.667,277.778,644.444,5.556,N
1128,0.095,1.650,0.065,150.000,52.778,277.778,666.667,22.222,N
1129,-0.130,1.320,-0.215,138.889,75.000,275.000,700.000,33.333,N
1130,-0.120,1.300,-0.080,130.556,80.556,258.333,641.667,58.333,N
1131,0.090,1.475,-0.105,133.333,52.778,275.000,622.222,19.444,N
1132,-0.015,1.630,0.100,138.889,72.222,277.778,636.111,13.889,N
1133,0.070,1.685,0.025,147.222,80.556,275.000,675.000,38.889,N
1134,0.060,1.685,0.080,141.667,69.444,291.667,727.778,52.778,N
1135,0.110,1.675,0.180,141.667,72.222,291.667,750.000,22.222,N
1136,-0.025,1.385,-0.055,147.222,83.333,272.222,705.556,44.444,N
1137,-0.010,1.610,0.045,130.556,86.111,261.111,636.111,69.444,N
1138,0.065,1.700,0.140,125.000,77.778,283.333,625.000,11.111,N
1139,0.070,1.640,0.155,144.444,75.000,272.222,622.222,2.778,N
1140,0.015,1.390,-0.085,144.444,83.333,288.889,619.444,2.778,N
1141,-0.135,1.375,-0.025,133.333,86.111,291.667,616.667,2.778,N
1142,0.045,1.550,0.155,138.889,80.556,305.556,605.556,11.111,N
1143,0.085,1.295,0.385,136.111,94.444,291.667,619.444,13.889,R
1144,0.035,1.105,0.195,152.778,102.778,294.444,630.556,11.111,R
1145,-0.110,1.060,0.315,144.444,100.000,305.556,625.000,5.556,R
1146,0.140,1.315,0.325,138.889,105.556,275.000,611.111,13.889,R
1147,0.000,1.120,0.260,130.556,113.889,288.889,608.333,2.778,R
1148,-0.010,1.145,0.275,136.111,102.778,275.000,588.889,19.444,R
1149,-0.040,1.095,0.095,136.111,116.667,288.889,580.556,8.333,R
1150,-0.130,1.010,0.165,133.333,105.556,275.000,588.889,8.333,R
1151,-0.015,1.095,0.345,127.778,108.333,300.000,616.667,27.778,R
1152,0.060,1.170,0.305,138.889,97.222,294.444,666.667,50.000,R
1153,-0.085,0.950,0.070,147.222,102.778,308.333,691.667,25.000,R
1154,-0.200,1.010,0.215,141.667,102.778,297.222,663.889,27.778,R
1155,0.000,1.140,0.215,138.889,102.778,302.778,658.333,5.556,R
1156,-0.175,0.890,0.215,138.889,111.111,288.889,608.333,50.000,R
1157,-0.090,1.070,0.280,133.333,102.778,263.889,588.889,19.444,R
1158,-0.055,1.080,0.260,130.556,102.778,294.444,580.556,8.333,R
1159,-0.070,1.155,0.270,125.000,102.778,294.444,577.778,2.778,R
1160,-0.005,1.075,0.330,133.333,83.333,275.000,608.333,30.556,R
1161,0.110,1.080,0.275,138.889,94.444,291.667,605.556,2.778,R
1162,0.015,0.980,0.160,144.444,97.222,286.111,605.556,0.000,R
1163,-0.050,1.010,0.380,138.889,102.778,311.111,613.889,8.333,R
1164,0.110,1.085,0.390,141.667,108.333,291.667,616.667,2.778,R
1165,0.115,1.085,0.350,141.667,97.222,286.111,619.444,2.778,R
1166,0.055,0.940,0.240,141.667,102.778,291.667,630.556,11.111,R
1167,-0.040,1.015,0.325,127.778,97.222,263.889,600.000,30.556,R
1168,0.100,1.090,0.410,130.556,102.778,291.667,575.000,25.000,R
1169,0.105,1.175,0.335,119.444,97.222,277.778,583.333,8.333,R
1170,0.055,1.035,0.215,133.333,108.333,272.222,597.222,13.889,R
1171,0.010,0.985,0.725,141.667,69.444,291.667,608.333,11.111,R
1172,0.645,1.220,0.500,147.222,72.222,275.000,627.778,19.444,R
1173,0.060,1.105,0.300,155.556,100.000,294.444,688.889,61.111,R
1174,-0.045,0.855,0.235,141.667,97.222,305.556,652.778,36.111,R
1175,-0.105,0.825,0.185,136.111,63.889,275.000,658.333,5.556,R
1176,-0.070,1.000,0.300,136.111,72.222,272.222,630.556,27.778,R
1177,0.080,0.990,0.300,127.778,111.111,275.000,580.556,50.000,R
1178,0.105,0.975,0.325,144.444,102.778,291.667,569.444,11.111,R
1179,0.100,1.065,0.250,150.000,102.778,302.778,572.222,2.778,R
1180,-0.025,0.900,0.240,136.111,66.667,275.000,583.333,11.111,R
1181,-0.025,0.865,0.180,152.778,102.778,308.333,580.556,2.778,R
1182,-0.110,0.955,0.125,155.556,97.222,275.000,594.444,13.889,R
1183,-0.155,0.915,0.015,136.111,80.556,272.222,572.222,22.222,R
1184,-0.315,0.665,0.000,147.222,105.556,294.444,580.556,8.333,R
1185,-0.195,0.815,0.285,147.222,100.000,286.111,600.000,19.444,R
1186,-0.090,0.950,0.160,147.222,102.778,291.667,583.333,16.667,R
1187,-0.250,1.045,0.175,122.222,91.667,280.556,658.333,75.000,R
1188,-0.185,1.095,0.260,125.000,88.889,275.000,702.778,44.444,R
1189,-0.075,1.455,-0.110,127.778,77.778,294.444,705.556,2.778,N
1190,-0.065,1.225,-0.015,133.333,72.222,277.778,652.778,52.778,N
1191,0.075,1.590,0.135,138.889,66.667,275.000,655.556,2.778,N
1192,0.100,1.545,0.125,141.667,75.000,308.333,672.222,16.667,N
1193,0.130,1.520,0.140,144.444,77.778,275.000,669.444,2.778,N
1194,0.075,1.455,0.015,147.222,80.556,272.222,647.222,22.222,N
1195,0.025,1.545,0.115,127.778,75.000,261.111,602.778,44.444,N
1196,0.140,1.620,0.140,138.889,69.444,261.111,608.333,5.556,N
1197,0.115,1.545,0.085,133.333,75.000,258.333,605.556,2.778,N
1198,-0.010,1.340,-0.015,130.556,66.667,269.444,608.333,2.778,N
1199,0.085,1.565,0.045,138.889,69.444,258.333,619.444,11.111,N
1200,0.055,1.695,0.015,150.000,80.556,308.333,677.778,58.333,N
1201,0.045,1.715,0.070,130.556,69.444,291.667,761.111,83.333,N
1202,0.095,1.630,0.075,147.222,72.222,288.889,733.333,27.778,N
1203,0.125,1.635,0.115,138.889,69.444,291.667,713.889,19.444,N
1204,0.325,1.455,0.075,141.667,50.000,258.333,680.556,33.333,N
1205,0.015,1.230,0.015,133.333,88.889,277.778,625.000,55.556,N
1206,0.095,1.475,0.085,136.111,69.444,238.889,588.889,36.111,N
1207,-0.060,1.375,-0.075,122.222,77.778,269.444,597.222,8.333,N
1208,-0.145,1.240,-0.170,147.222,75.000,261.111,594.444,2.778,N
1209,-0.195,1.060,-0.210,133.333,86.111,275.000,605.556,11.111,N
1210,-0.085,1.300,-0.015,150.000,80.556,288.889,636.111,30.556,N
1211,-0.065,1.325,-0.035,150.000,83.333,302.778,683.333,47.222,N
1212,-0.050,1.395,-0.150,150.000,80.556,288.889,747.222,63.889,N
1213,-0.120,1.295,-0.115,133.333,86.111,275.000,733.333,13.889,N
1214,0.015,1.520,0.090,138.889,75.000,277.778,675.000,58.333,N
1215,0.010,1.500,0.045,122.222,63.889,272.222,677.778,2.778,N
1216,-0.065,1.255,-0.100,138.889,63.889,261.111,672.222,5.556,N
1217,-0.095,1.380,0.110,138.889,80.556,286.111,663.889,8.333,N
1218,0.085,1.555,0.125,138.889,63.889,288.889,683.333,19.444,N
1219,0.065,1.470,0.125,144.444,72.222,277.778,702.778,19.444,N
1220,0.095,1.420,0.115,144.444,83.333,291.667,702.778,0.000,N
1221,0.095,1.530,0.215,138.889,80.556,286.111,661.111,41.667,N
1222,0.195,1.705,0.245,133.333,77.778,275.000,675.000,13.889,N
1223,0.160,1.605,0.150,136.111,77.778,272.222,672.222,2.778,N
1224,0.010,1.420,-0.040,144.444,80.556,255.556,658.333,13.889,N
1225,0.050,1.620,0.225,133.333,63.889,272.222,641.667,16.667,N
1226,0.225,1.640,0.230,141.667,66.667,272.222,652.778,11.111,N
1227,0.145,1.610,0.115,141.667,75.000,291.667,658.333,5.556,N
1228,0.050,1.435,0.125,147.222,77.778,291.667,666.667,8.333,N
1229,0.230,1.640,0.285,155.556,69.444,294.444,691.667,25.000,N
1230,0.250,1.590,0.220,141.667,69.444,288.889,686.111,5.556,N
1231,0.185,1.570,0.140,144.444,72.222,272.222,669.444,16.667,N
1232,0.100,1.515,0.140,133.333,66.667,255.556,611.111,58.333,N
1233,0.150,1.575,0.155,138.889,69.444,261.111,633.333,22.222,N
1234,0.120,1.470,0.135,136.111,80.556,272.222,647.222,13.889,N
1235,0.055,1.370,0.010,141.667,72.222,261.111,636.111,11.111,N
1236,-0.040,1.355,0.030,136.111,80.556,305.556,647.222,11.111,N
1237,-0.020,1.520,0.015,144.444,75.000,277.778,677.778,30.556,N
1238,-0.060,1.355,-0.090,144.444,72.222,288.889,647.222,30.556,N
1239,-0.185,1.280,-0.060,138.889,72.222,280.556,661.111,13.889,N
1240,-0.040,1.470,-0.035,136.111,77.778,269.444,627.778,33.333,N
1241,-0.035,1.495,-0.020,133.333,75.000,275.000,647.222,19.444,N
1242,-0.075,1.430,-0.045,138.889,63.889,255.556,658.333,11.111,N
1243,-0.110,1.250,-0.120,130.556,80.556,275.000,644.444,13.889,N
1244,-0.215,1.200,-0.040,133.333,80.556,288.889,619.444,25.000,N
1245,0.020,1.420,0.075,141.667,72.222,288.889,608.333,11.111,N
1246,0.050,1.455,0.035,147.222,77.778,291.667,636.111,27.778,N
1247,-0.050,1.255,-0.065,141.667,66.667,288.889,644.444,8.333,N
1248,-0.075,1.365,0.025,147.222,77.778,288.889,655.556,11.111,N
1249,0.035,1.485,0.060,144.444,77.778,294.444,650.000,5.556,N
1250,0.000,1.500,0.090,127.778,72.222,280.556,661.111,11.111,N
1251,-0.010,1.335,-0.095,136.111,66.667,241.667,680.556,19.444,N
1252,-0.150,1.240,-0.095,136.111,69.444,261.111,633.333,47.222,N
1253,-0.050,1.445,0.095,144.444,72.222,275.000,622.222,11.111,N
1254,0.055,1.440,0.080,141.667,69.444,258.333,661.111,38.889,N
1255,-0.015,1.355,-0.020,147.222,80.556,291.667,661.111,0.000,N
1256,-0.115,1.285,-0.085,147.222,77.778,277.778,663.889,2.778,N
1257,-0.040,1.330,0.000,150.000,80.556,294.444,636.111,27.778,N
1258,-0.090,1.340,-0.070,144.444,77.778,272.222,647.222,11.111,N
1259,-0.170,1.285,0.010,125.000,69.444,261.111,627.778,19.444,N
1260,-0.040,1.095,0.245,138.889,100.000,280.556,597.222,30.556,R
1261,-0.090,1.020,0.220,141.667,100.000,277.778,586.111,11.111,R
1262,-0.070,1.120,0.225,136.111,100.000,272.222,577.778,8.333,R
1263,-0.070,1.035,0.160,141.667,97.222,275.000,555.556,22.222,R
1264,-0.130,0.950,0.235,138.889,108.333,280.556,577.778,22.222,R
1265,0.015,1.095,0.340,138.889,102.778,294.444,586.111,8.333,R
1266,0.015,1.125,0.295,141.667,91.667,305.556,630.556,44.444,R
1267,-0.060,1.010,0.150,152.778,111.111,294.444,647.222,16.667,R
1268,-0.175,0.870,0.150,141.667,100.000,288.889,625.000,22.222,R
1269,-0.085,1.075,0.285,144.444,100.000,272.222,619.444,5.556,R
1270,-0.050,1.100,0.210,133.333,100.000,288.889,602.778,16.667,R
1271,-0.165,0.840,0.220,125.000,102.778,275.000,591.667,11.111,R
1272,-0.090,0.990,0.210,138.889,66.667,275.000,600.000,8.333,R
1273,-0.070,1.105,0.165,144.444,113.889,291.667,608.333,8.333,R
1274,-0.160,1.080,0.265,147.222,102.778,308.333,633.333,25.000,R
1275,0.015,1.205,0.335,144.444,100.000,288.889,633.333,0.000,R
1276,0.035,1.210,0.360,144.444,102.778,305.556,633.333,0.000,R
1277,0.000,1.205,0.265,144.444,108.333,288.889,663.889,30.556,R
1278,-0.030,1.080,0.310,138.889,108.333,280.556,644.444,19.444,R
1279,0.075,1.270,0.400,130.556,102.778,294.444,627.778,16.667,R
1280,0.125,1.310,0.420,136.111,105.556,272.222,641.667,13.889,R
1281,0.115,1.300,0.345,136.111,108.333,291.667,627.778,13.889,R
1282,0.015,1.130,0.285,125.000,105.556,272.222,605.556,22.222,R
1283,0.010,1.210,0.395,133.333,86.111,272.222,608.333,2.778,R
1284,0.070,1.210,0.390,152.778,97.222,288.889,636.111,27.778,R
1285,0.075,1.310,0.335,150.000,102.778,308.333,663.889,27.778,R
1286,-0.005,1.165,0.290,150.000,100.000,305.556,666.667,2.778,R
1287,0.030,1.285,0.390,150.000,116.667,297.222,650.000,16.667,R
1288,0.085,1.280,0.415,133.333,83.333,272.222,636.111,13.889,R
1289,0.090,1.260,0.345,141.667,97.222,272.222,638.889,2.778,R
1290,0.000,1.225,0.345,133.333,102.778,272.222,611.111,27.778,R
1291,0.055,1.365,0.515,125.000,94.444,288.889,605.556,5.556,R
1292,0.170,1.320,0.425,138.889,102.778,291.667,641.667,36.111,R
1293,0.065,1.215,0.325,144.444,94.444,288.889,661.111,19.444,R
1294,-0.015,1.115,0.300,138.889,88.889,286.111,677.778,16.667,R
1295,-0.080,1.135,0.425,141.667,102.778,300.000,636.111,41.667,R
1296,0.100,1.225,0.380,144.444,100.000,288.889,652.778,16.667,R
1297,0.030,1.185,0.310,141.667,72.222,275.000,647.222,5.556,R
1298,-0.030,1.050,0.260,138.889,91.667,275.000,630.556,16.667,R
1299,-0.055,1.090,0.395,125.000,80.556,291.667,613.889,16.667,R
1300,0.155,1.350,0.450,138.889,69.444,258.333,622.222,8.333,R
1301,0.075,1.180,0.350,133.333,102.778,291.667,608.333,13.889,R
1302,0.020,1.200,0.260,130.556,83.333,275.000,630.556,22.222,R
1303,-0.080,1.095,0.290,136.111,80.556,311.111,636.111,5.556,R
1304,0.030,1.280,0.445,147.222,102.778,297.222,661.111,25.000,R
1305,0.110,1.310,0.400,138.889,97.222,300.000,658.333,2.778,R
1306,0.080,1.235,0.330,138.889,86.111,291.667,650.000,8.333,R
1307,-0.065,0.975,0.240,127.778,77.778,261.111,622.222,27.778,R
1308,-0.105,1.130,0.400,122.222,77.778,283.333,597.222,25.000,R
1309,0.060,1.255,0.275,141.667,83.333,258.333,605.556,8.333,R
1310,-0.175,0.950,0.355,130.556,102.778,294.444,600.000,5.556,R
1311,-0.020,1.185,0.345,136.111,94.444,286.111,619.444,19.444,R
1312,-0.035,1.185,0.350,136.111,100.000,288.889,688.889,69.444,R
1313,-0.015,1.100,0.285,147.222,102.778,308.333,711.111,22.222,R
1314,-0.010,1.050,0.285,144.444,97.222,291.667,711.111,0.000,R
1315,-0.010,0.960,0.230,136.111,105.556,305.556,661.111,50.000,R
1316,-0.030,1.035,0.280,136.111,105.556,283.333,633.333,27.778,R
1317,0.055,1.185,0.355,133.333,113.889,275.000,611.111,22.222,R
1318,0.025,1.090,0.330,127.778,97.222,288.889,597.222,13.889,R
1319,0.010,1.045,0.325,130.556,97.222,258.333,600.000,2.778,R
1320,-0.045,1.030,0.265,136.111,102.778,272.222,608.333,8.333,R
1321,-0.005,1.110,0.365,138.889,97.222,291.667,655.556,47.222,R
1322,0.050,1.160,0.370,136.111,100.000,305.556,705.556,50.000,R
1323,0.015,1.135,0.120,147.222,108.333,288.889,730.556,25.000,R
1324,-0.215,0.985,0.225,144.444,111.111,308.333,713.889,16.667,R
1325,-0.005,1.225,0.415,150.000,72.222,291.667,686.111,27.778,R
1326,0.085,1.215,0.360,136.111,91.667,275.000,680.556,5.556,R
1327,0.020,1.035,0.235,136.111,102.778,275.000,647.222,33.333,R
1328,-0.085,0.970,0.225,127.778,91.667,286.111,638.889,8.333,R
1329,-0.030,1.185,0.280,144.444,100.000,288.889,650.000,11.111,R
1330,-0.075,1.105,0.205,144.444,100.000,291.667,650.000,0.000,R
1331,-0.130,1.075,0.155,136.111,116.667,291.667,672.222,22.222,R
1332,-0.170,0.985,0.200,141.667,97.222,291.667,672.222,0.000,R
1333,-0.010,1.175,0.385,138.889,116.667,305.556,663.889,8.333,R
1334,0.085,1.205,0.405,136.111,102.778,275.000,666.667,2.778,R
1335,0.065,1.150,0.325,136.111,102.778,277.778,650.000,16.667,R
1336,-0.005,1.185,0.225,136.111,116.667,291.667,663.889,13.889,R
1337,-0.065,1.090,0.275,133.333,113.889,286.111,633.333,30.556,R
1338,0.045,1.245,0.365,133.333,86.111,275.000,633.333,0.000,R
1339,0.025,1.220,0.385,138.889,91.667,291.667,638.889,5.556,R
1340,0.025,1.120,0.310,144.444,102.778,308.333,672.222,33.333,R
1341,-0.050,1.140,0.330,138.889,94.444,302.778,680.556,8.333,R
1342,0.025,1.130,0.395,138.889,91.667,286.111,663.889,16.667,R
1343,0.070,1.255,0.425,136.111,102.778,277.778,663.889,0.000,R
1344,0.060,1.175,0.385,133.333,102.778,291.667,630.556,33.333,R
1345,-0.035,1.015,0.230,130.556,100.000,288.889,630.556,0.000,R
1346,-0.125,1.065,0.340,127.778,105.556,272.222,627.778,2.778,R
1347,0.010,1.140,0.345,141.667,100.000,288.889,622.222,5.556,R
1348,0.005,1.160,0.320,144.444,100.000,291.667,630.556,8.333,R
1349,-0.055,0.995,0.310,136.111,108.333,305.556,658.333,27.778,R
1350,-0.060,1.130,0.380,144.444,100.000,294.444,644.444,13.889,R
1351,0.050,1.170,0.380,136.111,80.556,277.778,641.667,2.778,R
1352,-0.020,1.135,0.280,136.111,102.778,305.556,647.222,5.556,R
1353,-0.140,0.985,0.070,150.000,102.778,294.444,647.222,0.000,R
1354,-0.270,0.875,0.115,136.111,105.556,275.000,619.444,27.778,R
1355,-0.125,0.995,0.205,125.000,80.556,275.000,605.556,13.889,R
1356,-0.115,1.150,0.245,125.000,105.556,272.222,613.889,8.333,R
1357,-0.175,0.970,0.090,125.000,83.333,269.444,633.333,19.444,R
1358,-0.215,0.890,0.175,138.889,100.000,311.111,636.111,2.778,R
1359,-0.120,1.110,0.305,133.333,102.778,302.778,641.667,5.556,R
1360,-0.085,1.125,0.250,144.444,100.000,294.444,691.667,50.000,R
1361,-0.125,0.950,0.180,150.000,105.556,308.333,691.667,0.000,R
1362,-0.170,0.870,0.050,127.778,97.222,275.000,661.111,30.556,R
1363,-0.250,0.860,0.090,127.778,94.444,277.778,613.889,47.222,R
1364,-0.150,0.950,0.230,133.333,116.667,277.778,591.667,22.222,R
1365,-0.125,1.005,0.225,133.333,102.778,288.889,602.778,11.111,R
1366,-0.185,1.030,0.140,127.778,97.222,291.667,625.000,22.222,R
1367,-0.215,0.795,0.025,130.556,113.889,286.111,622.222,2.778,R
1368,-0.245,0.930,0.195,152.778,116.667,305.556,652.778,30.556,R
1369,-0.070,1.195,0.375,138.889,97.222,294.444,652.778,0.000,R
1370,0.025,1.220,0.425,136.111,100.000,291.667,697.222,44.444,R
1371,0.055,1.325,0.400,141.667,100.000,291.667,722.222,25.000,R
1372,0.080,1.270,0.375,141.667,77.778,297.222,666.667,55.556,R
1373,0.070,1.185,0.245,136.111,105.556,275.000,661.111,5.556,R
1374,0.015,0.980,0.275,130.556,83.333,266.667,641.667,19.444,R
1375,-0.245,0.760,-0.090,136.111,105.556,275.000,611.111,30.556,R
1376,-0.265,0.895,0.195,138.889,88.889,280.556,611.111,0.000,R
1377,-0.135,1.125,0.265,150.000,116.667,308.333,616.667,5.556,R
1378,-0.040,1.065,0.315,144.444,75.000,305.556,644.444,27.778,R
1379,-0.010,1.050,0.265,138.889,100.000,291.667,694.444,50.000,R
1380,-0.045,1.000,0.225,138.889,105.556,288.889,680.556,13.889,R
1381,-0.055,0.895,0.210,144.444,100.000,277.778,638.889,41.667,R
1382,-0.115,1.090,0.280,127.778,100.000,275.000,602.778,36.111,R
1383,-0.005,1.145,0.425,130.556,102.778,291.667,605.556,2.778,R
1384,0.100,1.315,0.440,136.111,77.778,288.889,636.111,30.556,R
1385,0.065,1.310,0.435,138.889,116.667,305.556,669.444,33.333,R
1386,0.085,1.265,0.355,150.000,102.778,313.889,705.556,36.111,R
1387,0.075,1.140,0.285,141.667,97.222,288.889,716.667,11.111,R
1388,-0.095,0.965,0.125,144.444,88.889,291.667,702.778,13.889,R
1389,-0.190,0.920,0.125,138.889,100.000,288.889,655.556,47.222,R
1390,-0.145,1.100,0.280,147.222,113.889,300.000,650.000,5.556,R
1391,-0.100,1.125,0.295,130.556,105.556,277.778,647.222,2.778,R
1392,-0.020,1.185,0.365,133.333,86.111,275.000,666.667,19.444,R
1393,0.030,1.170,0.320,122.222,86.111,275.000,672.222,5.556,R
1394,0.060,1.150,0.295,133.333,100.000,291.667,658.333,13.889,R
1395,0.295,-0.300,1.045,108.333,19.444,336.111,344.444,313.889,|
1396,-0.165,0.935,0.360,138.889,94.444,291.667,330.556,13.889,R
1397,-0.025,0.935,0.210,141.667,102.778,277.778,666.667,336.111,R
1398,-0.075,1.005,0.295,138.889,108.333,302.778,650.000,16.667,R
1399,0.015,1.075,0.380,147.222,105.556,294.444,638.889,11.111,R
1400,0.005,1.210,0.420,130.556,52.778,258.333,647.222,8.333,R
1401,0.050,1.225,0.345,133.333,113.889,288.889,641.667,5.556,R
1402,0.025,1.110,0.270,122.222,100.000,288.889,619.444,22.222,R
1403,-0.095,0.975,0.355,138.889,102.778,277.778,602.778,16.667,R
1404,0.040,1.165,0.460,136.111,102.778,288.889,613.889,11.111,R
1405,0.075,1.370,0.475,133.333,97.222,294.444,680.556,66.667,R
1406,0.075,1.245,0.405,138.889,105.556,311.111,711.111,30.556,R
1407,0.095,1.245,0.365,136.111,83.333,280.556,716.667,5.556,R
1408,0.065,1.110,0.340,133.333,102.778,291.667,672.222,44.444,R
1409,0.020,1.035,0.275,147.222,102.778,291.667,647.222,25.000,R
1410,-0.100,0.965,0.165,138.889,102.778,288.889,619.444,27.778,R
1411,-0.120,1.040,0.325,136.111,105.556,275.000,619.444,0.000,R
1412,-0.030,1.085,0.285,136.111,77.778,261.111,636.111,16.667,R
1413,-0.070,1.060,0.240,138.889,108.333,291.667,652.778,16.667,R
1414,-0.180,0.855,0.195,138.889,108.333,291.667,683.333,30.556,R
1415,-0.075,1.070,0.255,138.889,94.444,291.667,666.667,16.667,R
1416,-0.090,1.105,0.255,147.222,100.000,302.778,705.556,38.889,R
1417,-0.090,1.075,0.200,141.667,94.444,288.889,727.778,22.222,R
1418,-0.170,0.950,0.155,141.667,102.778,297.222,686.111,41.667,R
1419,-0.170,0.955,0.035,133.333,102.778,277.778,658.333,27.778,R
1420,-0.310,0.685,0.160,133.333,100.000,275.000,616.667,41.667,R
1421,-0.150,1.000,0.305,127.778,97.222,283.333,611.111,5.556,R
1422,-0.035,1.180,0.330,133.333,113.889,286.111,622.222,11.111,R
1423,-0.020,1.145,0.345,141.667,100.000,291.667,675.000,52.778,R
1424,0.030,1.190,0.340,147.222,100.000,305.556,722.222,47.222,R
1425,0.020,1.135,0.270,144.444,97.222,308.333,711.111,11.111,R
1426,-0.065,0.960,0.180,133.333,86.111,275.000,688.889,22.222,R
1427,-0.165,0.965,0.165,130.556,83.333,275.000,661.111,27.778,R
1428,-0.100,1.050,0.245,136.111,102.778,272.222,644.444,16.667,R
1429,-0.055,1.090,0.255,136.111,86.111,261.111,633.333,11.111,R
1430,-0.090,0.910,0.225,130.556,83.333,275.000,608.333,25.000,R
1431,-0.100,1.035,0.385,136.111,100.000,288.889,605.556,2.778,R
1432,-0.030,1.100,0.310,136.111,102.778,275.000,633.333,27.778,R
1433,-0.050,1.110,0.330,144.444,100.000,291.667,691.667,58.333,R
1434,0.025,1.170,0.415,144.444,88.889,291.667,702.778,11.111,R
1435,0.095,1.150,0.405,144.444,105.556,294.444,730.556,27.778,R
1436,0.040,1.155,0.300,138.889,111.111,283.333,711.111,19.444,R
1437,-0.035,1.040,0.370,130.556,105.556,297.222,636.111,75.000,R
1438,0.110,1.270,0.450,130.556,102.778,280.556,638.889,2.778,R
1439,0.065,1.150,0.360,133.333,88.889,275.000,638.889,0.000,R
1440,0.040,1.175,0.350,141.667,97.222,291.667,641.667,2.778,R
1441,-0.040,1.095,0.230,141.667,100.000,297.222,680.556,38.889,R
1442,-0.155,1.000,0.245,152.778,94.444,288.889,661.111,19.444,R
1443,-0.025,1.160,0.410,144.444,97.222,277.778,638.889,22.222,R
1444,0.075,1.245,0.355,136.111,94.444,288.889,652.778,13.889,R
1445,-0.175,0.895,0.210,144.444,91.667,286.111,647.222,5.556,R
1446,-0.065,1.215,0.460,127.778,97.222,277.778,625.000,22.222,R
1447,0.020,1.300,0.400,141.667,94.444,275.000,641.667,16.667,R
1448,0.025,1.175,0.345,130.556,83.333,272.222,641.667,0.000,R
1449,-0.070,1.060,0.270,133.333,102.778,291.667,633.333,8.333,R
1450,-0.035,1.190,0.405,141.667,94.444,277.778,638.889,5.556,R
1451,0.035,1.310,0.455,141.667,102.778,305.556,666.667,27.778,R
1452,0.095,1.335,0.455,141.667,102.778,308.333,716.667,50.000,R
1453,0.055,1.345,0.385,138.889,100.000,302.778,750.000,33.333,R
1454,0.105,1.155,0.380,141.667,100.000,297.222,688.889,61.111,R
1455,0.025,1.160,0.425,138.889,113.889,283.333,644.444,44.444,R
1456,0.105,1.350,0.395,136.111,100.000,272.222,630.556,13.889,R
1457,0.090,1.255,0.425,130.556,102.778,288.889,611.111,19.444,R
1458,0.070,1.085,0.380,127.778,97.222,291.667,594.444,16.667,R
1459,0.055,1.160,0.320,138.889,100.000,291.667,616.667,22.222,R
1460,-0.060,1.060,0.235,147.222,105.556,294.444,622.222,5.556,R
1461,-0.030,1.165,0.375,136.111,94.444,291.667,622.222,0.000,R
1462,0.010,1.130,0.365,141.667,100.000,291.667,638.889,16.667,R
1463,0.080,1.340,0.470,150.000,100.000,302.778,658.333,19.444,R
1464,0.090,1.290,0.535,138.889,97.222,291.667,708.333,50.000,R
1465,0.145,1.305,0.530,141.667,100.000,275.000,700.000,8.333,R
1466,0.175,1.265,0.420,138.889,111.111,286.111,675.000,25.000,R
1467,-0.030,0.900,0.230,127.778,111.111,277.778,641.667,33.333,R
1468,-0.055,1.105,0.350,133.333,91.667,286.111,641.667,0.000,R
1469,0.005,1.190,0.415,141.667,100.000,294.444,658.333,16.667,R
1470,0.020,1.180,0.355,144.444,83.333,294.444,669.444,11.111,R
1471,0.015,1.200,0.425,141.667,108.333,316.667,694.444,25.000,R
1472,0.110,1.265,0.470,141.667,108.333,313.889,700.000,5.556,R
1473,0.135,1.215,0.320,141.667,108.333,275.000,686.111,13.889,R
1474,0.025,1.125,0.345,136.111,113.889,277.778,622.222,63.889,R
1475,0.110,1.200,0.500,125.000,97.222,288.889,597.222,25.000,R
1476,0.110,1.360,0.480,130.556,80.556,272.222,619.444,22.222,R
1477,0.075,1.275,0.430,138.889,94.444,277.778,658.333,38.889,R
1478,0.060,1.235,0.320,136.111,94.444,291.667,683.333,25.000,R
1479,-0.045,1.105,0.295,133.333,116.667,302.778,697.222,13.889,R
1480,-0.010,1.280,0.460,136.111,102.778,283.333,683.333,13.889,R
1481,0.075,1.290,0.505,141.667,105.556,294.444,691.667,8.333,R
1482,0.080,1.325,0.440,141.667,113.889,291.667,686.111,5.556,R
1483,0.080,1.335,0.385,130.556,113.889,272.222,686.111,0.000,R
1484,0.080,1.255,0.405,130.556,116.667,288.889,663.889,22.222,R
1485,0.030,1.075,0.320,127.778,97.222,275.000,644.444,19.444,R
1486,0.030,1.075,0.345,136.111,91.667,280.556,619.444,25.000,R
1487,0.020,1.160,0.440,138.889,97.222,291.667,611.111,8.333,R
1488,0.030,1.275,0.425,138.889,88.889,302.778,650.000,38.889,R
1489,0.025,1.310,0.420,155.556,97.222,291.667,702.778,52.778,R
1490,0.075,1.265,0.460,147.222,102.778,308.333,688.889,13.889,R
1491,0.055,1.220,0.315,138.889,116.667,283.333,688.889,0.000,R
1492,0.095,1.285,0.495,138.889,100.000,269.444,655.556,33.333,R
1493,0.170,1.330,0.550,127.778,100.000,288.889,652.778,2.778,R
1494,0.160,1.375,0.510,133.333,102.778,277.778,661.111,8.333,R
1495,0.075,1.185,0.380,127.778,100.000,300.000,675.000,13.889,R
1496,0.025,1.190,0.285,144.444,94.444,286.111,697.222,22.222,R
1497,-0.050,1.035,0.310,141.667,94.444,300.000,650.000,47.222,R
1498,0.020,1.180,0.395,144.444,97.222,291.667,666.667,16.667,R
1499,0.030,1.265,0.345,144.444,97.222,302.778,652.778,13.889,R
1500,-0.035,1.190,0.215,144.444,97.222,283.333,666.667,13.889,R
1501,-0.160,0.920,0.190,130.556,97.222,288.889,633.333,33.333,R
1502,-0.100,1.190,0.420,138.889,100.000,277.778,611.111,22.222,R
1503,0.010,1.345,0.420,125.000,100.000,275.000,633.333,22.222,R
1504,0.045,1.340,0.430,127.778,97.222,291.667,686.111,52.778,R
1505,0.065,1.485,0.150,141.667,72.222,275.000,730.556,44.444,N
1506,0.100,1.540,0.145,150.000,80.556,305.556,744.444,13.889,N
1507,-0.005,1.460,0.050,141.667,77.778,288.889,719.444,25.000,N
1508,0.005,1.495,0.100,150.000,83.333,291.667,694.444,25.000,N
1509,0.055,1.590,0.115,144.444,75.000,275.000,663.889,30.556,N
1510,0.030,1.510,0.035,136.111,61.111,255.556,655.556,8.333,N
1511,-0.095,1.330,-0.050,125.000,69.444,275.000,622.222,33.333,N
1512,-0.140,1.425,0.065,138.889,66.667,275.000,630.556,8.333,N
1513,0.065,1.725,0.195,141.667,72.222,277.778,669.444,38.889,N
1514,0.130,1.735,0.205,147.222,80.556,294.444,725.000,55.556,N
1515,0.095,1.600,0.130,138.889,66.667,288.889,755.556,30.556,N
1516,-0.035,1.410,-0.020,152.778,80.556,302.778,783.333,27.778,N
1517,-0.010,1.590,0.065,136.111,77.778,269.444,700.000,83.333,N
1518,0.025,1.645,0.110,138.889,66.667,275.000,686.111,13.889,N
1519,0.025,1.485,0.065,133.333,69.444,280.556,677.778,8.333,N
1520,-0.015,1.465,-0.015,127.778,72.222,275.000,677.778,0.000,N
1521,-0.070,1.360,-0.035,136.111,83.333,272.222,622.222,55.556,N
1522,-0.055,1.495,0.095,136.111,77.778,288.889,616.667,5.556,N
1523,0.045,1.590,0.120,138.889,69.444,277.778,652.778,36.111,N
1524,-0.005,1.515,0.075,147.222,80.556,305.556,680.556,27.778,N
1525,-0.065,1.310,-0.070,144.444,80.556,288.889,708.333,27.778,N
1526,-0.075,1.540,0.110,138.889,72.222,280.556,680.556,27.778,N
1527,-0.005,1.750,0.130,144.444,72.222,277.778,686.111,5.556,N
1528,0.030,1.735,0.125,136.111,77.778,272.222,744.444,58.333,N
1529,0.105,1.685,0.170,127.778,66.667,272.222,755.556,11.111,N
1530,0.050,1.570,0.040,136.111,77.778,272.222,727.778,27.778,N
1531,-0.005,1.480,0.120,150.000,86.111,291.667,680.556,47.222,N
1532,0.050,1.665,0.135,133.333,77.778,275.000,680.556,0.000,N
1533,0.070,1.625,0.135,141.667,72.222,272.222,663.889,16.667,N
1534,0.040,1.420,0.110,138.889,72.222,277.778,644.444,19.444,N
1535,0.005,1.380,-0.040,136.111,77.778,288.889,661.111,16.667,N
1536,-0.125,1.215,-0.030,141.667,83.333,277.778,644.444,16.667,N
1537,-0.080,1.525,-0.005,133.333,61.111,258.333,638.889,5.556,N
1538,0.015,1.555,0.110,119.444,77.778,272.222,686.111,47.222,N
1539,0.025,1.445,0.010,141.667,69.444,258.333,722.222,36.111,N
1540,-0.135,1.240,-0.105,136.111,86.111,319.444,744.444,22.222,N
1541,-0.120,1.435,-0.065,144.444,75.000,291.667,708.333,36.111,N
1542,-0.115,1.470,-0.015,141.667,72.222,291.667,747.222,38.889,N
1543,-0.045,1.555,0.025,133.333,80.556,291.667,758.333,11.111,N
1544,0.015,1.510,0.140,141.667,69.444,275.000,711.111,47.222,N
1545,0.050,1.485,0.055,130.556,75.000,280.556,686.111,25.000,N
1546,-0.025,1.365,0.045,133.333,80.556,275.000,616.667,69.444,N
1547,-0.005,1.365,0.070,136.111,80.556,286.111,625.000,8.333,N
1548,-0.045,1.350,-0.010,136.111,69.444,280.556,666.667,41.667,N
1549,-0.085,1.380,-0.020,141.667,69.444,291.667,669.444,2.778,N
1550,-0.075,1.425,0.020,150.000,75.000,277.778,675.000,5.556,N
1551,-0.020,1.440,0.125,147.222,80.556,291.667,666.667,8.333,N
1552,0.010,1.350,0.045,141.667,75.000,291.667,677.778,11.111,N
1553,-0.075,1.425,-0.025,133.333,77.778,291.667,672.222,5.556,N
1554,-0.180,1.195,-0.140,125.000,72.222,261.111,677.778,5.556,N
1555,-0.125,1.350,0.080,138.889,77.778,286.111,644.444,33.333,N
1556,0.015,1.490,0.055,136.111,77.778,272.222,666.667,22.222,N
1557,-0.035,1.480,-0.010,144.444,75.000,288.889,711.111,44.444,N
1558,-0.110,1.335,-0.055,147.222,80.556,291.667,700.000,11.111,N
1559,-0.065,1.435,0.050,144.444,83.333,305.556,697.222,2.778,N
1560,0.025,1.555,0.095,147.222,77.778,291.667,738.889,41.667,N
1561,-0.030,1.425,-0.040,144.444,72.222,288.889,711.111,27.778,N
1562,-0.135,1.295,-0.015,127.778,86.111,275.000,650.000,61.111,N
1563,-0.010,1.515,0.090,136.111,77.778,272.222,625.000,25.000,N
1564,0.005,1.550,0.130,147.222,77.778,275.000,663.889,38.889,N
1565,-0.005,1.355,0.005,136.111,69.444,275.000,655.556,8.333,N
1566,-0.165,1.260,-0.125,141.667,69.444,275.000,652.778,2.778,N
1567,-0.145,1.310,0.030,150.000,80.556,311.111,658.333,5.556,N
1568,-0.070,1.445,0.015,133.333,77.778,275.000,666.667,8.333,N
1569,-0.120,1.310,-0.065,136.111,77.778,286.111,688.889,22.222,N
1570,-0.170,1.155,-0.145,136.111,80.556,275.000,647.222,41.667,N
1571,-0.240,1.375,0.000,133.333,80.556,291.667,647.222,0.000,N
1572,-0.030,1.525,0.100,147.222,75.000,272.222,633.333,13.889,N
1573,0.000,1.495,0.055,136.111,69.444,275.000,655.556,22.222,N
1574,-0.080,1.325,-0.120,133.333,77.778,258.333,680.556,25.000,N
1575,-0.210,1.465,-0.010,144.444,80.556,291.667,661.111,19.444,N
1576,-0.035,1.670,0.060,141.667,77.778,283.333,644.444,16.667,N
1577,-0.100,1.450,-0.120,138.889,69.444,294.444,650.000,5.556,N
1578,-0.195,0.915,0.290,155.556,72.222,294.444,650.000,0.000,R
1579,-0.135,1.040,0.295,138.889,116.667,305.556,630.556,19.444,R
1580,-0.085,1.095,0.265,133.333,113.889,291.667,608.333,22.222,R
1581,-0.060,1.020,0.220,141.667,100.000,291.667,561.111,47.222,R
1582,-0.055,0.935,0.230,125.000,94.444,291.667,552.778,8.333,R
1583,-0.035,0.980,0.220,138.889,102.778,275.000,580.556,27.778,R
1584,-0.035,0.965,0.220,138.889,102.778,288.889,633.333,52.778,R
1585,-0.060,1.005,0.160,133.333,83.333,275.000,658.333,25.000,R
1586,-0.130,0.970,0.190,144.444,100.000,305.556,680.556,22.222,R
1587,-0.110,0.960,0.180,136.111,116.667,291.667,675.000,5.556,R
1588,-0.145,0.935,0.175,130.556,102.778,308.333,661.111,13.889,R
1589,-0.155,0.990,0.145,144.444,102.778,294.444,647.222,13.889,R
1590,-0.170,0.985,0.220,130.556,97.222,288.889,616.667,30.556,R
1591,-0.120,1.080,0.230,133.333,100.000,275.000,619.444,2.778,R
1592,-0.110,1.075,0.240,125.000,100.000,286.111,575.000,44.444,R
1593,-0.110,1.080,0.225,122.222,94.444,277.778,583.333,8.333,R
1594,-0.180,0.935,0.210,141.667,97.222,288.889,636.111,52.778,R
1595,-0.090,1.070,0.285,130.556,105.556,297.222,638.889,2.778,R
1596,-0.035,1.120,0.300,138.889,97.222,291.667,675.000,36.111,R
1597,-0.085,1.080,0.175,152.778,88.889,291.667,713.889,38.889,R
1598,-0.180,1.090,0.290,144.444,100.000,297.222,694.444,19.444,R
1599,-0.180,0.950,0.240,133.333,102.778,266.667,669.444,25.000,R
1600,-0.075,1.165,0.340,136.111,100.000,291.667,619.444,50.000,R
1601,-0.185,1.150,0.285,133.333,113.889,288.889,663.889,44.444,R
1602,-0.150,1.095,0.205,122.222,102.778,277.778,675.000,11.111,R
1603,-0.105,1.125,0.260,138.889,105.556,291.667,697.222,22.222,R
1604,-0.135,1.025,0.255,144.444,105.556,311.111,705.556,8.333,R
1605,-0.060,0.985,0.235,144.444,102.778,294.444,702.778,2.778,R
1606,-0.165,0.825,0.065,141.667,100.000,291.667,661.111,41.667,R
1607,-0.250,0.780,0.100,138.889,97.222,291.667,616.667,44.444,R
1608,-0.145,1.035,0.190,147.222,94.444,288.889,605.556,11.111,R
1609,-0.135,1.085,0.060,136.111,116.667,288.889,588.889,16.667,R
1610,-0.220,1.030,0.245,125.000,75.000,280.556,575.000,13.889,R
1611,-0.170,1.120,0.245,138.889,66.667,277.778,577.778,2.778,R
1612,-0.070,1.115,0.310,127.778,102.778,302.778,611.111,33.333,R
1613,-0.025,1.165,0.305,136.111,77.778,302.778,655.556,44.444,R
1614,-0.020,1.075,0.165,138.889,94.444,291.667,686.111,30.556,R
1615,-0.030,1.195,0.385,147.222,105.556,300.000,661.111,25.000,R
1616,-0.010,1.250,0.240,150.000,116.667,302.778,666.667,5.556,R
1617,-0.290,1.100,0.115,133.333,80.556,275.000,691.667,25.000,R
1618,-0.130,1.140,0.245,130.556,97.222,291.667,636.111,55.556,R
1619,-0.025,1.075,0.295,125.000,100.000,280.556,611.111,25.000,R
1620,0.005,1.235,0.320,133.333,113.889,291.667,611.111,0.000,R
1621,-0.020,1.215,0.310,133.333,94.444,291.667,605.556,5.556,R
1622,-0.040,1.170,0.225,130.556,100.000,288.889,611.111,5.556,R
1623,-0.150,1.065,0.135,141.667,100.000,291.667,625.000,13.889,R
1624,-0.145,1.045,0.130,136.111,102.778,294.444,641.667,16.667,R
1625,-0.190,0.995,0.160,147.222,116.667,291.667,633.333,8.333,R
1626,-0.075,1.135,0.310,141.667,97.222,291.667,641.667,8.333,R
1627,0.115,1.170,0.365,136.111,100.000,269.444,644.444,2.778,R
1628,0.080,1.175,0.330,130.556,102.778,286.111,647.222,2.778,R
1629,0.015,1.160,0.335,127.778,94.444,286.111,641.667,5.556,R
1630,0.020,1.155,0.260,136.111,100.000,286.111,627.778,13.889,R
1631,-0.010,1.185,0.370,136.111,88.889,286.111,636.111,8.333,R
1632,0.090,1.240,0.380,138.889,94.444,288.889,636.111,0.000,R
1633,0.005,1.110,0.385,141.667,102.778,297.222,666.667,30.556,R
1634,0.100,1.205,0.335,150.000,91.667,291.667,694.444,27.778,R
1635,0.010,1.220,0.405,138.889,86.111,294.444,666.667,27.778,R
1636,0.080,1.200,0.375,130.556,100.000,288.889,661.111,5.556,R
1637,0.015,1.280,0.290,136.111,100.000,288.889,638.889,22.222,R
1638,-0.070,1.100,0.200,133.333,88.889,275.000,613.889,25.000,R
1639,-0.140,1.120,0.415,122.222,91.667,258.333,608.333,5.556,R
1640,0.025,1.165,0.370,144.444,97.222,288.889,605.556,2.778,R
1641,0.055,1.200,0.390,144.444,97.222,302.778,633.333,27.778,R
1642,0.000,1.165,0.240,138.889,83.333,277.778,666.667,33.333,R
1643,-0.090,1.025,0.320,138.889,100.000,291.667,641.667,25.000,R
1644,0.050,1.185,0.435,138.889,102.778,280.556,633.333,8.333,R
1645,0.085,1.160,0.375,150.000,94.444,297.222,633.333,0.000,R
1646,0.015,1.175,0.350,141.667,94.444,291.667,636.111,2.778,R
1647,-0.035,1.035,0.335,133.333,102.778,280.556,608.333,27.778,R
1648,0.050,1.310,0.455,133.333,116.667,288.889,586.111,22.222,R
1649,0.110,1.295,0.400,141.667,100.000,275.000,591.667,5.556,R
1650,0.020,1.200,0.330,141.667,97.222,275.000,619.444,27.778,R
1651,0.000,1.145,0.260,150.000,116.667,302.778,641.667,22.222,R
1652,-0.110,1.115,0.340,141.667,100.000,311.111,638.889,2.778,R
1653,-0.060,1.130,0.360,138.889,105.556,294.444,661.111,22.222,R
1654,-0.025,1.240,0.405,150.000,108.333,288.889,677.778,16.667,R
1655,0.045,1.260,0.375,141.667,97.222,280.556,661.111,16.667,R
1656,-0.020,1.220,0.355,127.778,100.000,291.667,669.444,8.333,R
1657,0.050,1.230,0.420,133.333,116.667,291.667,655.556,13.889,R
1658,0.065,1.180,0.380,144.444,113.889,288.889,630.556,25.000,R
1659,0.045,1.100,0.305,138.889,100.000,277.778,605.556,25.000,R
1660,-0.010,1.070,0.240,130.556,105.556,311.111,594.444,11.111,R
1661,-0.085,1.010,0.155,150.000,108.333,302.778,605.556,11.111,R
1662,-0.105,1.060,0.240,141.667,102.778,294.444,588.889,16.667,R
1663,0.000,1.150,0.265,133.333,102.778,308.333,591.667,2.778,R
1664,-0.055,1.150,0.265,141.667,94.444,277.778,625.000,33.333,R
1665,-0.135,0.975,0.125,138.889,52.778,261.111,616.667,8.333,R
1666,-0.215,0.875,0.100,127.778,94.444,275.000,616.667,0.000,R
1667,-0.160,1.055,0.220,127.778,91.667,280.556,638.889,22.222,R
1668,-0.105,1.150,0.080,122.222,97.222,269.444,630.556,8.333,R
1669,-0.110,1.030,0.095,130.556,116.667,288.889,641.667,11.111,R
1670,-0.210,1.040,0.365,133.333,88.889,291.667,633.333,8.333,R
1671,0.070,1.315,0.425,152.778,94.444,297.222,652.778,19.444,R
1672,0.085,1.310,0.435,150.000,88.889,291.667,680.556,27.778,R
1673,0.060,1.205,0.310,136.111,88.889,291.667,666.667,13.889,R
1674,-0.085,1.030,0.225,127.778,102.778,269.444,638.889,27.778,R
1675,-0.025,1.155,0.310,138.889,66.667,272.222,613.889,25.000,R
1676,-0.030,1.165,0.260,130.556,97.222,288.889,608.333,5.556,R
1677,-0.070,1.045,0.145,122.222,77.778,288.889,608.333,0.000,R
1678,-0.170,0.860,0.155,130.556,83.333,275.000,611.111,2.778,R
1679,-0.115,1.090,0.295,141.667,88.889,291.667,622.222,11.111,R
1680,-0.035,1.100,0.280,147.222,105.556,291.667,647.222,25.000,R
1681,-0.050,0.985,0.245,136.111,102.778,291.667,652.778,5.556,R
1682,-0.115,1.000,0.180,130.556,100.000,305.556,644.444,8.333,R
1683,-0.100,1.130,0.390,136.111,66.667,291.667,638.889,5.556,R
1684,0.120,1.155,0.470,141.667,75.000,294.444,638.889,0.000,R
1685,0.125,1.215,0.410,127.778,72.222,275.000,619.444,19.444,R
1686,0.005,1.150,0.260,130.556,111.111,272.222,619.444,0.000,R
1687,-0.030,1.155,0.410,127.778,102.778,291.667,602.778,16.667,R
1688,0.055,1.140,0.305,136.111,100.000,291.667,619.444,16.667,R
1689,-0.040,1.045,0.225,136.111,100.000,305.556,650.000,30.556,R
1690,-0.145,0.920,0.150,136.111,88.889,305.556,633.333,16.667,R
1691,-0.130,1.100,0.270,138.889,100.000,294.444,655.556,22.222,R
1692,-0.085,1.135,0.330,152.778,80.556,302.778,630.556,25.000,R
1693,-0.040,1.105,0.295,133.333,77.778,288.889,594.444,36.111,R
1694,-0.035,1.020,0.260,136.111,105.556,286.111,588.889,5.556,R
1695,-0.050,1.045,0.195,133.333,97.222,288.889,597.222,8.333,R
1696,-0.110,0.955,0.255,133.333,86.111,275.000,597.222,0.000,R
1697,0.040,1.170,0.420,147.222,77.778,288.889,616.667,19.444,R
1698,0.095,1.155,0.365,141.667,97.222,288.889,630.556,13.889,R
1699,-0.015,1.045,0.195,150.000,88.889,280.556,655.556,25.000,R
1700,-0.115,1.025,0.245,138.889,80.556,302.778,636.111,19.444,R
1701,-0.040,1.020,0.195,138.889,94.444,294.444,669.444,33.333,R
1702,-0.140,0.995,0.045,141.667,88.889,280.556,697.222,27.778,R
1703,-0.295,0.795,0.015,138.889,102.778,288.889,666.667,30.556,R
1704,-0.125,1.080,0.275,133.333,102.778,272.222,650.000,16.667,R
1705,-0.095,1.095,0.240,136.111,108.333,277.778,683.333,33.333,R
1706,-0.115,1.265,-0.035,138.889,72.222,261.111,702.778,19.444,N
1707,-0.180,1.070,-0.185,141.667,88.889,280.556,686.111,16.667,N
1708,-0.215,1.300,0.040,141.667,88.889,300.000,697.222,11.111,N
1709,0.030,1.290,-0.095,158.333,88.889,316.667,719.444,22.222,N
1710,-0.075,1.425,-0.015,147.222,77.778,291.667,688.889,30.556,N
1711,-0.060,1.535,0.025,147.222,75.000,275.000,733.333,44.444,N
1712,-0.005,1.445,0.075,133.333,80.556,275.000,686.111,47.222,N
1713,-0.010,1.410,-0.115,130.556,83.333,277.778,680.556,5.556,N
1714,-0.150,1.425,0.030,130.556,77.778,269.444,647.222,33.333,N
1715,0.025,1.635,0.110,138.889,77.778,291.667,638.889,8.333,N
1716,0.065,1.550,0.090,147.222,80.556,302.778,683.333,44.444,N
1717,-0.005,1.490,0.100,147.222,77.778,291.667,747.222,63.889,N
1718,0.055,1.510,0.070,136.111,63.889,288.889,738.889,8.333,N
1719,-0.085,1.375,0.080,147.222,86.111,294.444,694.444,44.444,N
1720,0.075,1.635,0.125,138.889,66.667,261.111,672.222,22.222,N
1721,0.110,1.495,0.110,144.444,75.000,269.444,675.000,2.778,N
1722,0.145,1.445,0.280,133.333,61.111,275.000,655.556,19.444,N
1723,0.295,1.255,0.170,127.778,63.889,213.889,658.333,2.778,N
1724,-0.195,1.465,0.150,180.556,105.556,272.222,613.889,44.444,N
1725,0.405,2.230,0.895,147.222,61.111,266.667,625.000,11.111,N
1726,0.840,2.255,0.825,138.889,63.889,213.889,666.667,41.667,N
1727,0.545,1.855,0.630,136.111,61.111,261.111,691.667,25.000,N
1728,0.220,1.870,0.485,141.667,69.444,283.333,694.444,2.778,N
1729,0.270,1.630,0.360,144.444,88.889,236.111,711.111,16.667,N
1730,0.130,1.440,0.110,130.556,91.667,241.667,691.667,19.444,N
1731,-0.175,1.285,-0.275,133.333,80.556,272.222,658.333,33.333,N
1732,-0.075,1.380,-0.075,130.556,77.778,227.778,636.111,22.222,N
1733,-0.075,1.630,-0.025,144.444,69.444,308.333,661.111,25.000,N
1734,-0.085,1.660,-0.015,122.222,77.778,266.667,666.667,5.556,N
1735,-0.120,1.545,-0.040,138.889,75.000,297.222,680.556,13.889,N
1736,-0.085,1.450,0.045,141.667,80.556,319.444,650.000,30.556,N
1737,0.145,1.915,0.235,141.667,75.000,275.000,672.222,22.222,N
1738,0.200,1.955,0.295,127.778,61.111,219.444,686.111,13.889,N
1739,0.100,1.820,0.185,127.778,83.333,280.556,666.667,19.444,N
1740,0.130,1.875,0.285,127.778,80.556,288.889,652.778,13.889,N
1741,0.180,1.755,0.095,127.778,80.556,277.778,663.889,11.111,N
1742,-0.170,1.575,0.150,136.111,80.556,327.778,647.222,16.667,N
1743,-0.025,1.525,-0.060,136.111,72.222,258.333,641.667,5.556,N
1744,-0.500,0.705,-0.635,1125775.000,105.556,297.222,663.889,22.222,N
1745,-0.185,1.890,0.190,150.000,80.556,319.444,686.111,22.222,N
1746,0.105,2.055,0.350,136.111,83.333,288.889,669.444,16.667,N
1747,0.255,2.185,0.465,130.556,61.111,250.000,652.778,16.667,N
1748,0.505,2.190,0.465,136.111,66.667,272.222,633.333,19.444,N
1749,0.305,1.960,0.230,119.444,72.222,269.444,625.000,8.333,N
1750,0.065,1.910,0.295,130.556,100.000,238.889,633.333,8.333,N
1751,0.400,2.190,0.460,130.556,83.333,288.889,644.444,11.111,N
1752,0.370,2.050,0.400,147.222,80.556,283.333,680.556,36.111,N
1753,0.170,1.885,0.015,147.222,83.333,308.333,711.111,30.556,N
1754,-0.005,1.910,0.100,147.222,83.333,291.667,680.556,30.556,N
1755,0.090,1.930,0.190,133.333,66.667,277.778,686.111,5.556,N
1756,0.115,1.930,0.110,130.556,111.111,291.667,683.333,2.778,N
1757,0.030,1.850,0.105,130.556,75.000,277.778,694.444,11.111,N
1758,0.045,1.705,0.235,127.778,88.889,250.000,663.889,30.556,N
1759,0.200,1.910,0.230,136.111,72.222,252.778,644.444,19.444,N
1760,0.105,1.760,0.050,125.000,80.556,280.556,622.222,22.222,N
1761,-0.060,1.620,0.045,130.556,72.222,311.111,638.889,16.667,N
1762,0.140,1.805,0.190,147.222,91.667,275.000,663.889,25.000,N
1763,0.070,1.720,0.145,147.222,113.889,297.222,650.000,13.889,N
1764,-0.155,1.485,-0.145,147.222,80.556,280.556,669.444,19.444,N
1765,-0.280,1.595,0.135,138.889,69.444,275.000,661.111,8.333,N
1766,-0.080,1.610,-0.005,127.778,72.222,275.000,633.333,27.778,N
1767,-0.035,1.570,-0.135,136.111,77.778,263.889,652.778,19.444,N
1768,-0.220,1.530,-0.165,130.556,100.000,277.778,652.778,0.000,N
1769,-0.050,1.675,0.030,125.000,66.667,219.444,663.889,11.111,N
1770,-0.245,1.410,-0.145,136.111,100.000,291.667,705.556,41.667,N
1771,-0.370,1.175,-0.245,130.556,66.667,286.111,702.778,2.778,N
1772,-0.355,1.415,-0.070,136.111,66.667,283.333,680.556,22.222,N
1773,-0.065,1.495,0.130,141.667,80.556,288.889,677.778,2.778,N
1774,-0.095,1.535,-0.125,147.222,77.778,280.556,666.667,11.111,N
1775,-0.285,1.400,-0.050,127.778,83.333,244.444,630.556,36.111,N
1776,-0.020,1.710,0.165,133.333,61.111,252.778,627.778,2.778,N
1777,0.135,1.640,0.190,136.111,63.889,255.556,636.111,8.333,N
1778,0.010,1.625,-0.130,138.889,63.889,269.444,636.111,0.000,N
1779,-0.205,1.485,-0.025,136.111,77.778,275.000,644.444,8.333,N
1780,0.035,1.835,0.200,138.889,80.556,319.444,669.444,25.000,N
1781,0.150,1.805,0.175,147.222,75.000,288.889,708.333,38.889,N
1782,-0.110,1.465,-0.245,152.778,80.556,272.222,725.000,16.667,N
1783,-0.170,1.680,0.135,138.889,94.444,277.778,683.333,41.667,N
1784,0.095,1.605,0.130,116.667,72.222,266.667,655.556,27.778,N
1785,0.045,1.685,0.025,130.556,66.667,236.111,661.111,5.556,N
1786,-0.180,1.490,-0.050,130.556,80.556,288.889,641.667,19.444,N
1787,0.045,1.870,0.175,136.111,80.556,291.667,638.889,2.778,N
1788,0.155,1.785,0.225,141.667,102.778,255.556,658.333,19.444,N
1789,0.105,1.740,0.005,133.333,69.444,255.556,694.444,36.111,N
1790,-0.080,1.670,0.145,150.000,80.556,305.556,680.556,13.889,N
1791,0.260,1.875,0.190,136.111,83.333,255.556,688.889,8.333,N
1792,0.125,1.855,0.070,130.556,58.333,258.333,672.222,16.667,N
1793,-0.100,1.675,-0.105,133.333,80.556,294.444,688.889,16.667,N
1794,-0.090,1.795,0.185,138.889,69.444,258.333,655.556,33.333,N
1795,0.110,1.805,0.115,130.556,72.222,275.000,652.778,2.778,N
1796,-0.090,1.550,-0.170,130.556,77.778,291.667,652.778,0.000,N
1797,-0.270,1.410,-0.105,130.556,72.222,294.444,677.778,25.000,N
1798,-0.050,1.625,-0.200,141.667,102.778,175.000,713.889,36.111,N
1799,-0.500,0.630,-0.615,1162405.556,80.556,294.444,705.556,8.333,N
1800,-0.525,1.375,-0.015,138.889,75.000,300.000,663.889,41.667,N
1801,0.075,1.745,0.345,130.556,77.778,291.667,638.889,25.000,N
1802,0.320,1.760,0.350,130.556,75.000,272.222,616.667,22.222,N
1803,0.160,1.275,0.365,122.222,113.889,286.111,591.667,25.000,R
1804,-0.010,1.175,0.315,130.556,97.222,286.111,588.889,2.778,R
1805,-0.040,1.220,0.150,144.444,100.000,291.667,616.667,27.778,R
1806,-0.165,1.065,0.030,130.556,111.111,288.889,619.444,2.778,R
1807,-0.235,0.995,0.070,141.667,80.556,277.778,644.444,25.000,R
1808,-0.130,1.180,0.225,136.111,91.667,294.444,661.111,16.667,R
1809,-0.080,1.280,0.270,147.222,102.778,294.444,694.444,33.333,R
1810,-0.035,1.175,0.195,141.667,100.000,275.000,691.667,2.778,R
1811,-0.105,1.195,0.325,138.889,102.778,297.222,650.000,41.667,R
1812,0.105,1.030,0.345,158.333,69.444,263.889,658.333,8.333,R
1813,0.135,1.355,0.470,133.333,108.333,277.778,644.444,13.889,R
1814,0.235,1.440,0.525,130.556,94.444,280.556,613.889,30.556,R
1815,0.190,1.345,0.605,130.556,100.000,291.667,608.333,5.556,R
1816,0.275,1.550,0.650,133.333,102.778,308.333,619.444,11.111,R
1817,0.305,1.450,0.610,147.222,94.444,305.556,652.778,33.333,R
1818,0.190,1.290,0.435,147.222,111.111,302.778,661.111,8.333,R
1819,0.035,1.180,0.475,144.444,102.778,294.444,647.222,13.889,R
1820,0.225,1.475,0.565,127.778,100.000,275.000,633.333,13.889,R
1821,0.240,1.420,0.480,127.778,100.000,277.778,616.667,16.667,R
1822,0.090,1.080,0.310,136.111,102.778,277.778,625.000,8.333,R
1823,0.040,1.385,0.535,130.556,97.222,288.889,627.778,2.778,R
1824,0.225,1.410,0.485,130.556,116.667,300.000,655.556,27.778,R
1825,0.180,1.265,0.360,141.667,102.778,294.444,672.222,16.667,R
1826,0.025,1.240,0.475,141.667,94.444,294.444,663.889,8.333,R
1827,0.210,1.480,0.540,130.556,100.000,308.333,691.667,27.778,R
1828,0.205,1.395,0.475,138.889,108.333,302.778,675.000,16.667,R
1829,0.080,1.240,0.315,141.667,105.556,291.667,683.333,8.333,R
1830,-0.030,1.175,0.425,138.889,94.444,277.778,652.778,30.556,R
1831,0.125,1.220,0.420,125.000,69.444,275.000,630.556,22.222,R
1832,0.080,1.235,0.320,125.000,102.778,261.111,619.444,11.111,R
1833,-0.075,0.940,0.205,138.889,97.222,272.222,613.889,5.556,R
1834,-0.050,1.180,0.440,138.889,105.556,302.778,636.111,22.222,R
1835,0.135,1.305,0.465,130.556,97.222,305.556,655.556,19.444,R
1836,0.140,1.230,0.305,138.889,105.556,294.444,708.333,52.778,R
1837,-0.055,1.095,0.310,144.444,102.778,294.444,688.889,19.444,R
1838,0.055,1.290,0.425,138.889,100.000,291.667,683.333,5.556,R
1839,0.100,1.325,0.420,136.111,100.000,288.889,675.000,8.333,R
1840,-0.005,1.150,0.185,130.556,97.222,275.000,661.111,13.889,R
1841,-0.115,1.180,0.300,130.556,83.333,275.000,650.000,11.111,R
1842,0.065,1.370,0.460,125.000,94.444,280.556,661.111,11.111,R
1843,0.110,1.305,0.365,144.444,97.222,288.889,655.556,5.556,R
1844,0.000,1.135,0.400,133.333,105.556,308.333,672.222,16.667,R
1845,0.165,1.400,0.590,136.111,97.222,291.667,672.222,0.000,R
1846,0.200,1.290,0.455,136.111,105.556,305.556,680.556,8.333,R
1847,0.020,1.240,0.185,127.778,100.000,291.667,691.667,11.111,R
1848,-0.210,1.175,0.260,136.111,113.889,286.111,672.222,19.444,R
1849,-0.010,1.225,0.345,125.000,94.444,272.222,675.000,2.778,R
1850,0.005,1.255,0.270,127.778,94.444,283.333,669.444,5.556,R
1851,-0.140,1.175,0.185,133.333,100.000,294.444,669.444,0.000,R
1852,-0.105,1.190,0.330,138.889,97.222,288.889,658.333,11.111,R
1853,-0.010,1.225,0.325,144.444,105.556,311.111,708.333,50.000,R
1854,-0.030,1.285,0.220,150.000,83.333,288.889,719.444,11.111,R
1855,-0.095,1.190,0.300,147.222,100.000,305.556,680.556,38.889,R
1856,-0.015,1.275,0.375,138.889,100.000,288.889,638.889,41.667,R
1857,0.075,1.410,0.465,130.556,102.778,277.778,611.111,27.778,R
1858,0.140,1.375,0.480,138.889,91.667,272.222,591.667,19.444,R
1859,0.080,1.295,0.250,138.889,91.667,277.778,600.000,8.333,R
1860,-0.145,1.065,0.225,141.667,94.444,277.778,619.444,19.444,R
1861,0.045,1.380,0.445,133.333,105.556,308.333,641.667,22.222,R
1862,0.045,1.335,0.345,147.222,100.000,291.667,683.333,41.667,R
1863,-0.100,1.160,0.190,136.111,116.667,294.444,702.778,19.444,R
1864,-0.105,1.190,0.345,136.111,105.556,305.556,666.667,36.111,R
1865,0.075,1.320,0.405,152.778,105.556,294.444,686.111,19.444,R
1866,-0.005,1.260,0.205,133.333,83.333,275.000,677.778,8.333,R
1867,-0.190,0.985,0.230,127.778,97.222,272.222,611.111,66.667,R
1868,-0.025,1.335,0.400,127.778,97.222,272.222,605.556,5.556,R
1869,0.065,1.315,0.420,138.889,102.778,280.556,608.333,2.778,R
1870,0.080,1.190,0.330,127.778,100.000,294.444,636.111,27.778,R
1871,-0.005,1.270,0.395,144.444,113.889,291.667,652.778,16.667,R
1872,0.055,1.265,0.425,147.222,102.778,311.111,652.778,0.000,R
1873,0.045,1.320,0.385,147.222,100.000,308.333,683.333,30.556,R
1874,0.005,1.225,0.265,144.444,111.111,288.889,713.889,30.556,R
1875,-0.130,1.115,0.280,147.222,102.778,291.667,652.778,61.111,R
1876,0.060,1.390,0.470,138.889,91.667,275.000,641.667,11.111,R
1877,0.135,1.385,0.445,133.333,100.000,291.667,658.333,16.667,R
1878,0.060,1.225,0.355,138.889,97.222,288.889,677.778,19.444,R
1879,0.040,1.370,0.495,141.667,111.111,288.889,669.444,8.333,R
1880,0.155,1.365,0.475,133.333,100.000,305.556,702.778,33.333,R
1881,0.060,1.260,0.210,144.444,100.000,291.667,711.111,8.333,R
1882,-0.090,1.130,0.350,130.556,100.000,308.333,700.000,11.111,R
1883,0.120,1.430,0.475,136.111,116.667,291.667,708.333,8.333,R
1884,0.100,1.315,0.370,130.556,77.778,272.222,694.444,13.889,R
1885,-0.050,1.210,0.290,133.333,97.222,286.111,666.667,27.778,R
1886,-0.010,1.390,0.405,130.556,102.778,291.667,652.778,13.889,R
1887,0.055,1.370,0.320,144.444,100.000,280.556,647.222,5.556,R
1888,-0.045,1.195,0.165,133.333,113.889,288.889,655.556,8.333,R
1889,-0.170,1.025,0.195,147.222,102.778,305.556,663.889,8.333,R
1890,-0.005,1.305,0.340,147.222,102.778,311.111,713.889,50.000,R
1891,-0.020,1.340,0.275,138.889,88.889,291.667,725.000,11.111,R
1892,-0.135,1.120,0.220,141.667,105.556,288.889,702.778,22.222,R
1893,-0.035,1.375,0.425,133.333,102.778,300.000,647.222,55.556,R
1894,0.075,1.350,0.365,136.111,105.556,280.556,666.667,19.444,R
1895,-0.025,1.195,0.240,119.444,97.222,286.111,663.889,2.778,R
1896,-0.125,1.130,0.335,141.667,100.000,291.667,644.444,19.444,R
1897,0.085,1.280,0.435,141.667,100.000,308.333,663.889,19.444,R
1898,0.105,1.295,0.380,138.889,94.444,288.889,713.889,50.000,R
1899,-0.055,1.125,0.205,144.444,83.333,294.444,686.111,27.778,R
1900,-0.125,1.235,0.370,136.111,116.667,305.556,675.000,11.111,R
