id,Pamp,Ramp,Tamp,PR,QRS,QT,RRI,dRRI,label
1,-0.145,-0.935,0.180,27.778,5.556,236.111,427.778,186.111,V
2,-0.230,0.850,-0.105,111.111,116.667,394.444,669.444,241.667,N
3,-0.055,1.005,-0.065,63.889,111.111,388.889,597.222,72.222,N
4,-0.045,1.040,-0.015,116.667,116.667,391.667,602.778,5.556,N
5,-0.005,1.005,-0.080,166.667,113.889,355.556,800.000,197.222,N
6,-0.050,0.950,-0.035,44.444,88.889,375.000,644.444,155.556,N
7,0.000,1.030,-0.040,44.444,91.667,288.889,583.333,61.111,N
8,-0.050,0.955,-0.080,72.222,94.444,327.778,613.889,30.556,N
9,-0.090,0.920,-0.120,141.667,100.000,355.556,719.444,105.556,N
10,-0.130,0.880,-0.145,44.444,88.889,325.000,669.444,50.000,N
11,-0.120,0.885,-0.150,91.667,100.000,388.889,661.111,8.333,N
12,-0.110,0.885,-0.165,158.333,108.333,327.778,719.444,58.333,N
13,-0.125,0.910,-0.185,197.222,97.222,291.667,605.556,113.889,N
14,-0.145,0.880,-0.200,47.222,97.222,291.667,583.333,22.222,N
15,-0.180,-1.000,0.285,77.778,0.000,202.778,463.889,119.444,V
16,-0.245,0.710,-0.190,38.889,86.111,380.556,861.111,397.222,N
17,-0.140,0.905,-0.155,80.556,116.667,394.444,638.889,222.222,N
18,-0.160,0.960,-0.155,102.778,97.222,358.333,594.444,44.444,N
19,-0.160,0.870,-0.200,180.556,111.111,341.667,638.889,44.444,N
20,-0.160,0.870,-0.160,108.333,100.000,388.889,830.556,191.667,N
21,-0.160,0.945,-0.190,138.889,100.000,372.222,663.889,166.667,N
22,-0.200,0.905,-0.205,100.000,116.667,358.333,744.444,80.556,N
23,-0.200,0.875,-0.285,97.222,97.222,377.778,547.222,197.222,N
24,-0.190,0.860,-0.120,97.222,113.889,372.222,733.333,186.111,N
25,-0.145,0.980,-0.135,119.444,113.889,372.222,755.556,22.222,N
26,-0.060,-0.590,0.145,30.556,5.556,186.111,463.889,291.667,V
27,-0.200,0.740,-0.145,183.333,108.333,372.222,580.556,116.667,N
28,-0.120,0.930,-0.100,55.556,102.778,327.778,575.000,5.556,N
29,-0.075,0.910,-0.095,75.000,102.778,327.778,666.667,91.667,N
30,-0.075,1.050,-0.095,122.222,94.444,380.556,630.556,36.111,N
31,-0.100,0.985,-0.125,69.444,113.889,388.889,563.889,66.667,N
32,-0.115,0.870,-0.165,108.333,86.111,377.778,625.000,61.111,N
33,-0.060,-0.480,0.135,22.222,8.333,225.000,758.333,133.333,F
34,-0.150,0.925,-0.125,172.222,111.111,322.222,788.889,30.556,N
35,-0.115,0.905,-0.150,52.778,88.889,380.556,750.000,38.889,N
36,-0.150,0.920,-0.290,61.111,97.222,308.333,575.000,175.000,N
37,-0.275,0.735,-0.210,44.444,94.444,375.000,630.556,55.556,N
38,-0.135,0.890,-0.195,63.889,102.778,358.333,866.667,236.111,N
39,-0.130,0.790,-0.115,55.556,105.556,394.444,730.556,136.111,N
40,-0.060,0.940,-0.095,52.778,102.778,344.444,613.889,116.667,N
41,-0.135,0.770,-0.220,119.444,102.778,375.000,966.667,352.778,N
42,-0.220,0.805,-0.180,72.222,116.667,405.556,697.222,269.444,N
43,-0.200,0.825,-0.240,63.889,100.000,338.889,700.000,2.778,N
44,-0.225,0.840,-0.275,63.889,94.444,338.889,561.111,138.889,N
45,-0.275,-0.920,0.095,30.556,11.111,222.222,333.333,227.778,V
46,-0.295,0.655,-0.275,63.889,116.667,391.667,986.111,652.778,N
47,-0.230,0.815,-0.240,55.556,91.667,377.778,675.000,311.111,N
48,-0.245,0.795,-0.255,177.778,113.889,311.111,702.778,27.778,N
49,-0.260,0.845,-0.280,155.556,105.556,361.111,677.778,25.000,N
50,-0.275,0.810,-0.370,116.667,113.889,352.778,580.556,97.222,N
51,-0.370,-0.930,0.030,63.889,2.778,219.444,361.111,219.444,V
52,-0.270,0.750,-0.275,47.222,97.222,372.222,786.111,425.000,N
53,-0.280,0.825,-0.250,147.222,111.111,322.222,630.556,155.556,N
54,-0.270,0.845,-0.260,61.111,91.667,361.111,513.889,116.667,N
55,-0.240,0.730,-0.240,55.556,105.556,322.222,697.222,183.333,N
56,-0.220,0.815,-0.245,161.111,86.111,375.000,752.778,55.556,N
57,-0.165,0.875,-0.100,83.333,100.000,388.889,705.556,47.222,N
58,-0.060,1.110,-0.020,125.000,102.778,361.111,611.111,94.444,N
59,0.025,1.050,0.040,91.667,100.000,397.222,700.000,88.889,N
60,0.075,1.190,0.050,97.222,91.667,372.222,605.556,94.444,N
61,0.050,1.080,0.055,161.111,102.778,341.667,797.222,191.667,N
62,0.065,1.105,0.025,52.778,102.778,380.556,638.889,158.333,N
63,0.020,1.090,-0.005,152.778,113.889,336.111,636.111,2.778,N
64,-0.010,1.020,-0.035,52.778,86.111,344.444,636.111,0.000,N
65,-0.015,1.040,-0.060,80.556,100.000,330.556,644.444,8.333,N
66,-0.030,1.055,-0.030,116.667,97.222,361.111,697.222,52.778,N
67,-0.005,1.065,-0.055,161.111,108.333,352.778,630.556,66.667,N
68,-0.055,1.030,-0.020,130.556,116.667,394.444,705.556,75.000,N
69,-0.015,1.025,-0.020,47.222,94.444,383.333,663.889,41.667,N
70,0.205,1.030,-0.075,58.333,113.889,402.778,425.000,238.889,V
71,0.015,0.995,0.000,63.889,102.778,341.667,725.000,300.000,N
72,0.005,0.995,-0.060,55.556,88.889,311.111,727.778,2.778,N
73,-0.055,0.950,-0.065,58.333,111.111,355.556,738.889,11.111,N
74,-0.060,0.970,-0.070,55.556,102.778,327.778,741.667,2.778,N
75,-0.065,1.090,-0.100,136.111,113.889,375.000,563.889,177.778,N
76,-0.065,0.925,-0.120,61.111,91.667,300.000,711.111,147.222,N
77,-0.090,1.025,-0.115,130.556,113.889,358.333,650.000,61.111,N
78,-0.090,0.965,-0.070,52.778,97.222,358.333,638.889,11.111,N
79,-0.070,-0.785,0.370,30.556,8.333,183.333,347.222,291.667,V
80,-0.110,0.900,-0.095,86.111,113.889,388.889,702.778,355.556,N
81,-0.090,0.985,-0.060,38.889,88.889,375.000,555.556,147.222,N
82,-0.060,1.025,-0.070,97.222,97.222,375.000,588.889,33.333,N
83,-0.085,0.950,-0.155,52.778,100.000,341.667,741.667,152.778,N
84,-0.100,0.960,-0.070,55.556,102.778,391.667,666.667,75.000,N
85,-0.045,1.075,-0.050,147.222,105.556,338.889,655.556,11.111,N
86,-0.030,1.040,-0.100,66.667,94.444,322.222,505.556,150.000,N
87,-0.045,0.990,-0.030,133.333,113.889,358.333,986.111,480.556,N
88,-0.080,1.000,-0.105,119.444,88.889,375.000,552.778,433.333,N
89,-0.075,1.015,-0.045,55.556,102.778,391.667,550.000,2.778,N
90,-0.045,1.070,-0.035,191.667,108.333,397.222,538.889,11.111,N
91,0.010,1.040,0.000,55.556,97.222,388.889,561.111,22.222,N
92,0.000,1.045,0.005,127.778,111.111,388.889,675.000,113.889,N
93,0.010,1.050,-0.040,105.556,100.000,322.222,758.333,83.333,N
94,-0.020,1.055,-0.040,66.667,116.667,358.333,727.778,30.556,N
95,-0.095,0.895,-0.085,180.556,113.889,322.222,716.667,11.111,N
96,-0.095,0.960,0.000,52.778,100.000,352.778,855.556,138.889,N
97,0.110,0.815,-0.105,144.444,94.444,341.667,705.556,150.000,N
98,0.070,1.195,0.065,94.444,94.444,369.444,702.778,2.778,N
99,0.070,1.090,0.285,102.778,116.667,405.556,688.889,13.889,N
100,0.420,1.415,0.425,58.333,86.111,358.333,705.556,16.667,N
101,0.385,1.355,0.235,116.667,100.000,319.444,661.111,44.444,N
102,0.155,1.105,-0.025,197.222,97.222,322.222,747.222,86.111,N
103,-0.150,0.695,-0.300,191.667,94.444,294.444,744.444,2.778,N
104,-0.350,0.620,-0.395,94.444,113.889,388.889,622.222,122.222,N
105,-0.395,0.635,-0.520,197.222,97.222,294.444,550.000,72.222,N
106,-0.455,-1.170,-0.140,27.778,11.111,219.444,383.333,166.667,V
107,-0.520,0.535,-0.465,127.778,116.667,355.556,883.333,500.000,N
108,-0.470,0.560,-0.495,163.889,113.889,325.000,713.889,169.444,N
109,-0.465,0.620,-0.420,147.222,113.889,394.444,569.444,144.444,N
110,-0.310,0.850,-0.280,102.778,100.000,375.000,572.222,2.778,N
111,-0.255,0.735,-0.280,72.222,100.000,341.667,736.111,163.889,N
112,-0.235,0.660,-0.185,63.889,94.444,375.000,922.222,186.111,N
113,-0.080,0.965,-0.075,63.889,116.667,325.000,705.556,216.667,N
114,-0.070,1.030,-0.085,197.222,105.556,325.000,594.444,111.111,N
115,-0.085,1.030,-0.080,161.111,113.889,327.778,686.111,91.667,N
116,-0.085,0.900,-0.040,55.556,102.778,380.556,758.333,72.222,N
117,-0.020,1.085,0.000,55.556,102.778,358.333,647.222,111.111,N
118,-0.025,1.065,-0.020,63.889,111.111,338.889,797.222,150.000,N
119,-0.035,1.065,0.040,155.556,102.778,361.111,741.667,55.556,N
120,0.060,1.170,0.010,100.000,100.000,325.000,691.667,50.000,N
121,0.015,1.060,-0.080,88.889,102.778,358.333,772.222,80.556,N
122,-0.040,1.005,-0.005,61.111,100.000,305.556,688.889,83.333,N
123,0.000,1.135,-0.020,150.000,100.000,327.778,688.889,0.000,N
124,-0.005,1.060,0.005,119.444,102.778,358.333,822.222,133.333,N
125,-0.015,1.050,-0.020,61.111,94.444,355.556,675.000,147.222,N
126,0.055,1.210,0.070,150.000,116.667,391.667,652.778,22.222,N
127,0.035,1.150,0.015,141.667,102.778,372.222,755.556,102.778,N
128,0.030,1.110,-0.035,63.889,97.222,341.667,541.667,213.889,N
129,0.030,1.045,0.035,52.778,83.333,344.444,758.333,216.667,N
130,0.075,1.155,0.040,47.222,83.333,305.556,591.667,166.667,N
131,0.100,1.145,0.090,75.000,102.778,372.222,777.778,186.111,N
132,0.085,1.130,0.045,194.444,100.000,305.556,652.778,125.000,N
133,0.055,1.215,-0.005,119.444,113.889,338.889,525.000,127.778,N
134,-0.025,1.035,-0.045,58.333,102.778,327.778,588.889,63.889,N
135,-0.065,1.000,-0.130,111.111,111.111,358.333,702.778,113.889,N
136,-0.095,0.920,-0.145,83.333,100.000,327.778,772.222,69.444,N
137,-0.080,0.935,-0.145,41.667,86.111,294.444,708.333,63.889,N
138,-0.105,0.965,-0.115,63.889,113.889,325.000,741.667,33.333,N
139,-0.085,0.950,-0.145,50.000,100.000,305.556,736.111,5.556,N
140,-0.105,0.965,-0.150,175.000,113.889,333.333,722.222,13.889,N
141,-0.140,1.010,-0.120,141.667,113.889,338.889,691.667,30.556,N
142,-0.115,0.910,-0.240,63.889,94.444,372.222,630.556,61.111,N
143,-0.235,0.860,-0.265,66.667,113.889,405.556,538.889,91.667,N
144,-0.220,0.850,-0.240,58.333,116.667,391.667,750.000,211.111,N
145,-0.240,-0.945,0.115,91.667,0.000,238.889,425.000,325.000,V
146,0.115,-0.870,0.190,175.000,5.556,213.889,416.667,8.333,V
147,-0.195,0.730,-0.065,72.222,100.000,394.444,894.444,477.778,N
148,-0.090,1.010,-0.045,97.222,94.444,358.333,608.333,286.111,N
149,-0.010,1.000,0.025,44.444,91.667,375.000,700.000,91.667,N
150,0.010,1.045,0.015,61.111,116.667,327.778,702.778,2.778,N
151,0.040,1.075,0.040,72.222,97.222,388.889,625.000,77.778,N
152,0.055,1.105,0.035,52.778,100.000,308.333,677.778,52.778,N
153,0.060,1.160,0.040,111.111,111.111,375.000,644.444,33.333,N
154,0.030,1.140,0.010,50.000,86.111,377.778,580.556,63.889,N
155,0.025,1.035,0.000,75.000,108.333,394.444,783.333,202.778,N
156,0.015,1.030,-0.010,61.111,83.333,375.000,733.333,50.000,N
157,0.035,1.035,-0.015,41.667,88.889,308.333,716.667,16.667,N
158,-0.025,1.090,-0.035,116.667,111.111,355.556,655.556,61.111,N
159,0.000,1.000,-0.015,44.444,94.444,286.111,647.222,8.333,N
160,-0.010,1.045,-0.025,186.111,113.889,319.444,691.667,44.444,N
161,-0.025,1.035,-0.055,47.222,97.222,308.333,597.222,94.444,N
162,0.000,1.020,0.000,44.444,83.333,327.778,763.889,166.667,N
163,0.025,1.105,-0.050,41.667,86.111,294.444,597.222,166.667,N
164,-0.070,0.895,-0.145,72.222,86.111,313.889,777.778,180.556,N
165,-0.125,0.975,-0.115,183.333,113.889,336.111,763.889,13.889,N
166,-0.075,1.000,-0.085,55.556,94.444,319.444,602.778,161.111,N
167,-0.055,1.050,-0.050,150.000,102.778,325.000,580.556,22.222,N
168,-0.035,1.035,-0.060,119.444,116.667,341.667,666.667,86.111,N
169,-0.100,0.945,-0.070,163.889,116.667,325.000,747.222,80.556,N
170,-0.105,0.985,-0.125,169.444,105.556,344.444,705.556,41.667,N
171,-0.120,0.970,-0.150,138.889,102.778,372.222,736.111,30.556,N
172,-0.175,0.865,-0.175,55.556,102.778,316.667,697.222,38.889,N
173,-0.135,0.965,-0.130,47.222,94.444,375.000,644.444,52.778,N
174,-0.140,0.915,-0.185,147.222,113.889,341.667,666.667,22.222,N
175,-0.190,0.950,-0.235,100.000,102.778,391.667,555.556,111.111,N
176,-0.200,0.890,-0.250,50.000,88.889,330.556,533.333,22.222,N
177,-0.225,0.925,-0.185,113.889,108.333,338.889,661.111,127.778,N
178,-0.205,0.950,-0.235,111.111,108.333,372.222,547.222,113.889,N
179,-0.230,0.845,-0.230,183.333,116.667,308.333,638.889,91.667,N
180,-0.205,0.890,-0.190,83.333,116.667,341.667,566.667,72.222,N
181,-0.170,0.925,-0.245,94.444,108.333,325.000,694.444,127.778,N
182,-0.220,0.780,-0.275,52.778,88.889,383.333,925.000,230.556,N
183,-0.220,0.905,-0.170,116.667,113.889,358.333,663.889,261.111,N
184,0.100,-1.240,0.290,33.333,5.556,216.667,655.556,8.333,V
185,0.290,-0.725,0.210,175.000,8.333,216.667,388.889,266.667,V
186,-0.170,0.825,-0.130,69.444,113.889,402.778,844.444,455.556,N
187,0.105,-1.190,0.425,38.889,0.000,188.889,436.111,408.333,V
188,-0.105,1.025,-0.145,72.222,88.889,377.778,847.222,411.111,N
189,0.045,-1.280,0.325,41.667,2.778,225.000,438.889,408.333,V
190,-0.175,0.890,-0.095,72.222,111.111,383.333,861.111,422.222,N
191,-0.070,0.980,-0.090,75.000,86.111,377.778,705.556,155.556,N
192,-0.090,0.155,-0.005,130.556,94.444,311.111,536.111,169.444,V
193,-0.160,0.830,-0.190,191.667,100.000,391.667,661.111,125.000,N
194,-0.150,0.255,0.040,108.333,86.111,275.000,505.556,155.556,V
195,-0.170,0.940,-0.155,55.556,102.778,394.444,730.556,225.000,N
196,-0.140,0.930,-0.165,172.222,113.889,316.667,680.556,50.000,N
197,0.300,-0.720,0.045,38.889,2.778,194.444,633.333,47.222,V
198,-0.035,1.055,-0.075,47.222,97.222,341.667,675.000,41.667,N
199,-0.050,0.960,-0.085,52.778,97.222,341.667,758.333,83.333,N
200,0.235,-0.900,0.120,33.333,0.000,188.889,558.333,200.000,V
201,-0.070,-0.895,0.310,30.556,8.333,219.444,608.333,50.000,V
202,-0.185,0.925,-0.230,197.222,116.667,333.333,877.778,269.444,N
203,-0.225,0.890,-0.190,133.333,113.889,322.222,700.000,177.778,N
204,-0.205,0.860,-0.215,88.889,113.889,375.000,630.556,69.444,N
205,-0.180,0.920,-0.160,75.000,97.222,391.667,561.111,69.444,N
206,0.050,0.660,-0.155,58.333,116.667,308.333,444.444,116.667,V
207,-0.110,0.920,-0.130,52.778,91.667,347.222,886.111,441.667,N
208,-0.120,0.955,-0.140,116.667,97.222,386.111,811.111,75.000,N
209,-0.110,0.950,-0.115,52.778,102.778,391.667,752.778,58.333,N
210,-0.105,0.965,-0.090,69.444,116.667,338.889,700.000,52.778,N
211,-0.080,1.020,-0.105,136.111,102.778,372.222,686.111,13.889,N
212,-0.135,0.975,-0.135,41.667,91.667,358.333,736.111,50.000,N
213,-0.145,0.950,-0.175,86.111,94.444,380.556,550.000,186.111,N
214,-0.185,0.865,-0.185,169.444,97.222,336.111,811.111,261.111,N
215,-0.175,0.905,-0.185,50.000,94.444,355.556,752.778,58.333,N
216,-0.115,0.895,-0.160,58.333,86.111,344.444,788.889,36.111,N
217,-0.115,1.025,-0.105,119.444,102.778,394.444,677.778,111.111,N
218,-0.100,0.905,-0.150,55.556,88.889,344.444,852.778,175.000,N
219,-0.115,1.015,-0.110,61.111,113.889,341.667,691.667,161.111,N
220,-0.110,0.995,-0.095,130.556,97.222,372.222,700.000,8.333,N
221,-0.090,0.970,-0.130,41.667,91.667,377.778,680.556,19.444,N
222,-0.130,0.915,-0.120,158.333,108.333,400.000,830.556,150.000,N
223,-0.095,0.965,-0.100,138.889,100.000,388.889,780.556,50.000,N
224,-0.090,0.970,-0.115,55.556,100.000,336.111,852.778,72.222,N
225,-0.070,1.005,-0.120,44.444,83.333,344.444,636.111,216.667,N
226,-0.100,1.040,-0.130,177.778,100.000,375.000,602.778,33.333,N
227,-0.110,0.970,-0.095,97.222,94.444,372.222,652.778,50.000,N
228,-0.125,0.890,-0.115,58.333,83.333,341.667,861.111,208.333,N
229,-0.120,0.915,-0.130,191.667,94.444,305.556,700.000,161.111,N
230,-0.115,0.970,-0.150,161.111,111.111,311.111,733.333,33.333,N
231,-0.140,0.920,-0.145,38.889,86.111,294.444,697.222,36.111,N
232,-0.180,0.900,-0.195,105.556,88.889,377.778,800.000,102.778,N
233,-0.190,0.870,-0.235,50.000,100.000,341.667,758.333,41.667,N
234,-0.200,0.905,-0.270,127.778,111.111,394.444,711.111,47.222,N
235,-0.290,0.835,-0.340,38.889,86.111,377.778,677.778,33.333,N
236,-0.325,0.780,-0.340,102.778,116.667,375.000,633.333,44.444,N
237,-0.290,0.820,-0.250,72.222,97.222,388.889,702.778,69.444,N
238,-0.235,0.885,-0.205,138.889,113.889,333.333,666.667,36.111,N
239,-0.155,0.965,-0.175,55.556,102.778,394.444,747.222,80.556,N
240,-0.155,0.960,-0.205,88.889,100.000,341.667,586.111,161.111,N
241,-0.180,0.925,-0.260,44.444,86.111,322.222,738.889,152.778,N
242,-0.210,0.895,-0.245,58.333,86.111,327.778,633.333,105.556,N
243,-0.180,0.830,-0.175,58.333,100.000,308.333,930.556,297.222,N
244,-0.130,1.000,-0.115,80.556,113.889,338.889,577.778,352.778,N
245,-0.100,1.030,-0.110,69.444,116.667,344.444,750.000,172.222,N
246,-0.105,1.055,-0.115,130.556,94.444,338.889,663.889,86.111,N
247,-0.190,0.875,-0.140,72.222,111.111,397.222,672.222,8.333,N
248,-0.095,0.975,-0.125,72.222,86.111,377.778,569.444,102.778,N
249,-0.100,1.065,-0.150,52.778,94.444,322.222,550.000,19.444,N
250,-0.160,0.920,-0.190,130.556,113.889,394.444,705.556,155.556,N
251,-0.170,0.885,-0.100,50.000,88.889,102.778,708.333,2.778,N
252,-0.150,0.735,-0.360,155.556,77.778,86.111,705.556,2.778,N
253,-0.435,0.685,-0.490,97.222,102.778,308.333,736.111,30.556,N
254,-0.455,0.870,-0.425,144.444,116.667,375.000,633.333,102.778,N
255,-0.330,0.825,-0.300,41.667,83.333,311.111,644.444,11.111,N
256,-0.235,0.975,-0.110,44.444,83.333,358.333,619.444,25.000,N
257,-0.060,1.055,-0.025,61.111,113.889,377.778,655.556,36.111,N
258,-0.025,1.000,-0.080,58.333,86.111,338.889,744.444,88.889,N
259,-0.035,1.120,-0.025,50.000,100.000,358.333,641.667,102.778,N
260,-0.010,1.110,-0.005,63.889,100.000,341.667,744.444,102.778,N
261,-0.035,1.100,-0.080,58.333,94.444,341.667,663.889,80.556,N
262,-0.065,1.135,0.120,130.556,111.111,394.444,636.111,27.778,N
263,0.140,1.050,0.040,130.556,97.222,375.000,758.333,122.222,N
264,0.085,1.165,-0.040,188.889,97.222,380.556,694.444,63.889,N
265,0.060,0.865,0.070,72.222,116.667,405.556,836.111,141.667,N
266,0.045,1.175,0.035,133.333,97.222,341.667,616.667,219.444,N
267,0.025,1.150,-0.090,138.889,100.000,355.556,686.111,69.444,N
268,-0.060,0.965,-0.125,41.667,91.667,341.667,783.333,97.222,N
269,-0.050,1.080,-0.120,194.444,102.778,308.333,800.000,16.667,N
270,-0.050,1.100,-0.200,144.444,97.222,363.889,641.667,158.333,N
271,-0.185,1.000,-0.090,44.444,80.556,352.778,730.556,88.889,N
272,-0.180,0.945,-0.160,150.000,116.667,338.889,894.444,163.889,N
273,-0.140,1.050,-0.280,102.778,111.111,122.222,550.000,344.444,N
274,-0.305,0.860,-0.230,91.667,113.889,363.889,713.889,163.889,N
275,-0.095,1.050,0.035,50.000,83.333,386.111,700.000,13.889,N
276,0.165,1.170,0.120,172.222,102.778,347.222,669.444,30.556,N
277,0.095,1.200,0.140,150.000,102.778,344.444,738.889,69.444,N
278,0.195,1.330,0.125,63.889,88.889,100.000,777.778,38.889,N
279,0.160,1.205,0.140,61.111,97.222,291.667,675.000,102.778,N
280,0.200,1.230,0.085,41.667,86.111,308.333,563.889,111.111,N
281,0.090,1.135,0.020,194.444,86.111,319.444,713.889,150.000,N
282,-0.025,1.145,-0.175,161.111,72.222,191.667,716.667,2.778,N
283,-0.375,0.525,-0.485,197.222,97.222,375.000,622.222,94.444,N
284,-0.415,0.590,-0.505,188.889,113.889,125.000,616.667,5.556,N
285,-0.575,0.595,-0.190,161.111,94.444,386.111,625.000,8.333,N
286,-0.220,0.825,-0.185,41.667,77.778,344.444,738.889,113.889,N
287,0.035,1.105,-0.045,41.667,88.889,372.222,761.111,22.222,N
288,0.005,1.145,-0.295,61.111,105.556,316.667,680.556,80.556,N
289,-0.340,0.840,-0.295,130.556,97.222,322.222,713.889,33.333,N
290,-0.225,0.985,-0.180,61.111,102.778,388.889,650.000,63.889,N
291,-0.125,1.010,-0.080,58.333,102.778,391.667,711.111,61.111,N
292,-0.050,1.105,-0.045,94.444,97.222,375.000,622.222,88.889,N
293,-0.015,1.225,-0.010,113.889,111.111,391.667,616.667,5.556,N
294,-0.020,1.170,0.040,105.556,88.889,363.889,575.000,41.667,N
295,0.040,-0.700,0.520,27.778,11.111,208.333,355.556,219.444,V
296,0.105,-0.555,0.310,197.222,2.778,180.556,475.000,119.444,V
297,-0.010,1.125,0.070,161.111,111.111,361.111,925.000,450.000,N
298,0.055,1.270,0.020,183.333,116.667,338.889,625.000,300.000,N
299,0.015,1.170,-0.010,191.667,86.111,377.778,622.222,2.778,N
300,0.010,1.140,-0.040,186.111,91.667,366.667,577.778,44.444,N
301,-0.015,1.075,-0.055,63.889,113.889,305.556,663.889,86.111,N
302,-0.100,1.000,-0.095,172.222,100.000,375.000,691.667,27.778,N
303,-0.060,0.835,-0.115,152.778,116.667,388.889,780.556,88.889,N
304,-0.160,0.960,-0.235,55.556,100.000,322.222,713.889,66.667,N
305,-0.220,0.920,-0.195,58.333,102.778,361.111,608.333,105.556,N
306,-0.195,-0.855,0.315,30.556,8.333,205.556,338.889,269.444,V
307,-0.190,0.830,-0.245,191.667,108.333,391.667,661.111,322.222,N
308,-0.255,0.780,-0.230,130.556,111.111,372.222,669.444,8.333,N
309,-0.245,0.815,-0.245,97.222,113.889,391.667,569.444,100.000,N
310,-0.260,0.890,-0.235,94.444,111.111,394.444,563.889,5.556,N
311,-0.235,0.230,-0.160,150.000,80.556,241.667,505.556,58.333,a
312,-0.230,0.865,-0.170,52.778,105.556,377.778,819.444,313.889,N
313,-0.180,0.955,-0.175,47.222,100.000,361.111,744.444,75.000,N
314,-0.140,1.030,-0.150,58.333,88.889,377.778,625.000,119.444,N
315,-0.125,1.115,-0.110,119.444,116.667,369.444,661.111,36.111,N
316,-0.095,1.140,-0.090,138.889,100.000,344.444,588.889,72.222,N
317,-0.100,1.080,-0.095,91.667,83.333,375.000,702.778,113.889,N
318,-0.100,1.060,-0.135,58.333,94.444,308.333,550.000,152.778,N
319,-0.100,1.155,-0.095,158.333,113.889,336.111,530.556,19.444,N
320,-0.080,1.090,-0.060,152.778,113.889,319.444,713.889,183.333,N
321,-0.080,1.080,-0.095,97.222,94.444,372.222,661.111,52.778,N
322,-0.130,1.000,-0.165,188.889,116.667,336.111,672.222,11.111,N
323,-0.160,0.950,-0.205,97.222,97.222,338.889,677.778,5.556,N
324,-0.180,0.930,-0.210,80.556,94.444,372.222,680.556,2.778,N
325,-0.220,1.000,-0.220,125.000,105.556,355.556,613.889,66.667,N
326,-0.220,0.945,-0.240,175.000,102.778,308.333,497.222,116.667,N
327,-0.215,0.915,-0.135,133.333,113.889,344.444,861.111,363.889,N
328,-0.155,1.055,-0.125,125.000,100.000,375.000,672.222,188.889,N
329,-0.095,1.010,-0.075,41.667,86.111,377.778,663.889,8.333,N
330,0.000,1.135,-0.015,41.667,86.111,325.000,708.333,44.444,N
331,0.020,1.195,0.115,88.889,91.667,355.556,691.667,16.667,N
332,0.115,-0.605,0.450,27.778,19.444,213.889,344.444,347.222,V
333,-0.045,0.945,-0.120,122.222,97.222,366.667,880.556,536.111,N
334,-0.065,0.980,0.125,58.333,94.444,363.889,783.333,97.222,N
335,0.165,1.025,0.185,141.667,86.111,275.000,561.111,222.222,N
336,0.070,0.830,-0.105,41.667,83.333,294.444,716.667,155.556,N
337,-0.125,1.060,-0.085,75.000,113.889,372.222,641.667,75.000,N
338,-0.070,1.020,0.065,94.444,91.667,325.000,619.444,22.222,N
339,0.045,1.245,-0.080,91.667,105.556,380.556,811.111,191.667,N
340,-0.095,0.755,0.120,180.556,88.889,197.222,766.667,44.444,N
341,-0.180,0.885,-0.190,127.778,75.000,391.667,702.778,63.889,N
342,0.050,1.060,0.025,150.000,72.222,336.111,591.667,111.111,N
343,0.170,1.170,-0.170,169.444,94.444,402.778,727.778,136.111,N
344,-0.185,1.035,-0.015,197.222,83.333,330.556,752.778,25.000,N
345,0.615,1.185,0.380,36.111,72.222,258.333,694.444,58.333,N
346,0.380,-1.420,0.590,127.778,2.778,211.111,361.111,333.333,V
347,0.070,1.100,0.050,147.222,88.889,355.556,761.111,400.000,N
348,-0.040,1.145,-0.085,113.889,100.000,383.333,566.667,194.444,N
349,-0.055,1.140,-0.085,100.000,108.333,375.000,733.333,166.667,N
350,-0.040,1.120,0.050,80.556,113.889,355.556,755.556,22.222,N
351,0.160,1.160,0.115,86.111,94.444,111.111,733.333,22.222,N
352,-0.270,0.815,-0.295,55.556,86.111,261.111,700.000,33.333,N
353,-0.120,1.065,-0.025,183.333,108.333,141.667,666.667,33.333,N
354,0.000,0.910,0.005,138.889,55.556,358.333,725.000,58.333,N
355,0.185,1.295,0.380,113.889,100.000,319.444,658.333,66.667,N
356,0.265,1.430,0.300,36.111,75.000,327.778,622.222,36.111,N
357,0.235,-0.630,0.685,27.778,5.556,202.778,572.222,50.000,V
358,0.070,1.110,0.080,127.778,69.444,283.333,1069.444,497.222,N
359,0.035,0.930,0.000,91.667,88.889,372.222,758.333,311.111,N
360,0.215,1.145,0.095,105.556,91.667,372.222,766.667,8.333,N
361,0.040,1.105,0.080,61.111,100.000,383.333,583.333,183.333,N
362,-0.105,0.890,-0.140,127.778,72.222,300.000,725.000,141.667,N
363,-0.195,1.015,-0.245,130.556,100.000,344.444,680.556,44.444,N
364,-0.275,0.825,-0.275,69.444,80.556,380.556,669.444,11.111,N
365,-0.230,0.940,-0.230,119.444,97.222,372.222,616.667,52.778,N
366,-0.245,0.970,-0.305,119.444,102.778,391.667,602.778,13.889,N
367,-0.300,0.760,-0.275,72.222,105.556,325.000,669.444,66.667,N
368,-0.250,0.900,-0.245,180.556,113.889,341.667,788.889,119.444,N
369,-0.160,0.975,-0.170,44.444,94.444,277.778,830.556,41.667,N
370,-0.100,0.985,-0.110,44.444,97.222,308.333,736.111,94.444,N
371,-0.090,1.080,-0.140,50.000,91.667,302.778,569.444,166.667,N
372,-0.135,1.010,-0.205,83.333,97.222,386.111,616.667,47.222,N
373,-0.150,0.910,-0.150,41.667,83.333,361.111,741.667,125.000,N
374,-0.115,0.995,-0.180,75.000,102.778,322.222,733.333,8.333,N
375,-0.140,0.980,-0.110,111.111,97.222,380.556,669.444,63.889,N
376,-0.120,1.065,-0.080,119.444,100.000,375.000,625.000,44.444,N
377,-0.080,1.000,-0.155,44.444,94.444,322.222,694.444,69.444,N
378,-0.180,0.905,-0.160,119.444,97.222,369.444,838.889,144.444,N
379,-0.180,0.975,-0.140,83.333,116.667,405.556,733.333,105.556,N
380,-0.140,0.200,-0.135,88.889,116.667,277.778,436.111,297.222,V
381,-0.195,0.935,-0.175,105.556,86.111,375.000,702.778,266.667,N
382,-0.165,1.005,-0.140,41.667,83.333,375.000,552.778,150.000,N
383,-0.090,1.030,0.155,130.556,111.111,372.222,686.111,133.333,N
384,0.155,-0.680,0.410,30.556,11.111,222.222,350.000,336.111,V
385,0.005,1.025,0.010,163.889,116.667,361.111,783.333,433.333,N
386,0.035,1.150,-0.020,119.444,97.222,386.111,708.333,75.000,N
387,-0.035,0.975,-0.115,88.889,91.667,380.556,733.333,25.000,N
388,-0.115,0.975,-0.120,63.889,113.889,355.556,811.111,77.778,N
389,-0.105,0.975,-0.130,52.778,88.889,363.889,638.889,172.222,N
390,-0.130,0.940,-0.120,100.000,116.667,322.222,947.222,308.333,N
391,-0.115,1.005,-0.170,111.111,94.444,355.556,644.444,302.778,N
392,-0.160,0.955,-0.185,61.111,100.000,377.778,819.444,175.000,N
393,-0.150,0.930,-0.200,50.000,100.000,330.556,733.333,86.111,N
394,-0.180,0.935,-0.160,152.778,94.444,338.889,716.667,16.667,N
395,-0.130,0.920,-0.145,97.222,111.111,388.889,830.556,113.889,N
396,-0.130,1.005,-0.165,102.778,100.000,372.222,625.000,205.556,N
397,-0.165,0.345,-0.110,113.889,100.000,258.333,444.444,180.556,a
398,-0.185,0.820,-0.235,94.444,86.111,358.333,863.889,419.444,N
399,-0.285,0.665,-0.330,44.444,80.556,308.333,683.333,180.556,N
400,-0.320,0.775,-0.335,144.444,111.111,344.444,663.889,19.444,N
401,-0.280,0.780,-0.250,80.556,113.889,405.556,708.333,44.444,N
402,-0.215,0.940,-0.225,100.000,100.000,377.778,683.333,25.000,N
403,-0.180,0.865,-0.210,188.889,116.667,338.889,852.778,169.444,N
404,-0.200,0.895,-0.220,100.000,100.000,380.556,494.444,358.333,N
405,-0.215,0.885,-0.240,141.667,86.111,341.667,627.778,133.333,N
406,-0.275,0.795,-0.230,186.111,116.667,355.556,777.778,150.000,N
407,-0.145,0.905,-0.115,138.889,102.778,325.000,688.889,88.889,N
408,-0.035,1.135,-0.015,147.222,113.889,341.667,705.556,16.667,N
409,0.005,1.145,0.040,113.889,94.444,372.222,719.444,13.889,N
410,0.050,1.120,0.025,69.444,94.444,333.333,569.444,150.000,N
411,0.085,1.165,0.015,83.333,100.000,388.889,647.222,77.778,N
412,0.035,1.015,0.045,77.778,91.667,358.333,797.222,150.000,N
413,0.065,0.255,0.135,94.444,72.222,294.444,480.556,316.667,V
414,-0.060,0.935,-0.105,197.222,116.667,361.111,686.111,205.556,N
415,-0.090,0.940,-0.140,61.111,83.333,377.778,730.556,44.444,N
416,-0.120,0.990,-0.150,88.889,88.889,361.111,608.333,122.222,N
417,-0.180,0.940,-0.190,122.222,83.333,375.000,555.556,52.778,N
418,-0.185,0.880,-0.190,52.778,100.000,338.889,697.222,141.667,N
419,-0.165,0.930,-0.210,66.667,97.222,372.222,644.444,52.778,N
420,-0.200,0.930,-0.210,86.111,100.000,388.889,672.222,27.778,N
421,-0.210,0.835,-0.260,83.333,97.222,355.556,730.556,58.333,N
422,-0.200,0.875,-0.215,44.444,83.333,322.222,758.333,27.778,N
423,-0.195,0.980,-0.210,147.222,100.000,327.778,688.889,69.444,N
424,-0.195,0.885,-0.185,63.889,94.444,375.000,763.889,75.000,N
425,-0.165,0.945,-0.185,97.222,94.444,369.444,586.111,177.778,N
426,-0.180,0.900,-0.205,47.222,94.444,322.222,650.000,63.889,N
427,-0.200,0.975,-0.210,147.222,113.889,375.000,700.000,50.000,N
428,-0.240,0.900,-0.200,125.000,111.111,377.778,797.222,97.222,N
429,-0.190,0.900,-0.175,41.667,88.889,327.778,830.556,33.333,N
430,-0.170,0.995,-0.150,52.778,102.778,388.889,644.444,186.111,N
431,-0.150,1.025,-0.145,130.556,94.444,358.333,641.667,2.778,N
432,-0.150,0.980,-0.135,50.000,100.000,391.667,658.333,16.667,N
433,-0.110,0.985,-0.085,97.222,94.444,338.889,777.778,119.444,N
434,-0.075,1.015,-0.065,77.778,91.667,338.889,680.556,97.222,N
435,-0.060,1.085,-0.080,105.556,91.667,369.444,575.000,105.556,N
436,-0.070,1.060,-0.090,130.556,116.667,397.222,627.778,52.778,N
437,0.005,-0.755,0.355,30.556,16.667,238.889,408.333,219.444,V
438,-0.105,0.880,-0.140,50.000,94.444,336.111,811.111,402.778,N
439,-0.130,0.905,-0.155,58.333,100.000,338.889,741.667,69.444,N
440,-0.155,0.970,-0.160,83.333,116.667,394.444,625.000,116.667,N
441,-0.135,0.965,-0.160,80.556,94.444,341.667,580.556,44.444,N
442,-0.135,1.010,-0.160,66.667,97.222,386.111,586.111,5.556,N
443,-0.155,0.940,-0.170,166.667,113.889,322.222,683.333,97.222,N
444,-0.145,0.910,-0.165,191.667,86.111,327.778,591.667,91.667,N
445,-0.165,-0.795,0.265,30.556,16.667,211.111,325.000,266.667,V
446,-0.205,0.785,-0.175,169.444,113.889,352.778,955.556,630.556,N
447,-0.155,0.855,-0.200,63.889,94.444,322.222,508.333,447.222,N
448,-0.145,0.940,-0.170,44.444,97.222,325.000,619.444,111.111,N
449,-0.160,0.920,-0.190,88.889,100.000,388.889,672.222,52.778,N
450,-0.190,0.895,-0.190,161.111,111.111,341.667,675.000,2.778,N
451,-0.155,0.860,-0.165,191.667,83.333,375.000,613.889,61.111,N
452,-0.135,1.035,-0.125,55.556,100.000,341.667,661.111,47.222,N
453,-0.130,0.965,-0.175,83.333,94.444,352.778,697.222,36.111,N
454,-0.205,0.845,-0.195,38.889,86.111,375.000,705.556,8.333,N
455,-0.160,0.940,-0.170,75.000,102.778,308.333,716.667,11.111,N
456,-0.135,0.935,-0.195,105.556,91.667,386.111,633.333,83.333,N
457,-0.155,0.890,-0.145,61.111,111.111,341.667,738.889,105.556,N
458,-0.115,0.980,-0.105,50.000,97.222,338.889,755.556,16.667,N
459,-0.075,1.090,-0.085,111.111,111.111,341.667,644.444,111.111,N
460,-0.085,0.975,-0.065,58.333,113.889,308.333,650.000,5.556,N
461,0.000,1.080,0.015,75.000,91.667,358.333,747.222,97.222,N
462,0.025,1.155,0.030,105.556,88.889,330.556,633.333,113.889,N
463,0.045,1.170,0.005,86.111,94.444,355.556,577.778,55.556,N
464,0.055,1.100,0.100,111.111,108.333,388.889,691.667,113.889,N
465,0.090,1.200,0.040,97.222,97.222,377.778,586.111,105.556,N
466,0.075,1.135,-0.015,77.778,94.444,341.667,580.556,5.556,N
467,0.010,1.015,-0.015,108.333,86.111,372.222,663.889,83.333,N
468,0.040,1.085,-0.020,52.778,88.889,313.889,863.889,200.000,N
469,-0.015,0.990,-0.050,44.444,94.444,308.333,722.222,141.667,N
470,0.010,1.020,0.030,44.444,86.111,377.778,583.333,138.889,N
471,0.055,1.140,-0.010,191.667,88.889,275.000,547.222,36.111,N
472,0.015,1.125,-0.090,116.667,100.000,355.556,494.444,52.778,N
473,-0.070,0.925,-0.070,119.444,102.778,391.667,816.667,322.222,N
474,-0.045,1.015,-0.080,47.222,88.889,311.111,741.667,75.000,N
475,-0.100,0.960,-0.180,102.778,97.222,322.222,644.444,97.222,N
476,-0.165,0.870,-0.080,122.222,105.556,386.111,652.778,8.333,N
477,-0.080,-0.830,0.215,27.778,13.889,208.333,361.111,291.667,V
478,-0.150,0.870,-0.135,102.778,116.667,375.000,833.333,472.222,N
479,-0.130,0.915,-0.200,55.556,100.000,388.889,669.444,163.889,N
480,-0.180,1.030,-0.145,116.667,116.667,358.333,647.222,22.222,N
481,-0.140,0.945,-0.160,163.889,113.889,341.667,580.556,66.667,N
482,-0.125,0.950,-0.175,102.778,102.778,391.667,705.556,125.000,N
483,-0.170,0.845,-0.200,69.444,113.889,341.667,963.889,258.333,N
484,-0.190,0.905,-0.240,97.222,97.222,344.444,697.222,266.667,N
485,-0.200,0.920,-0.175,52.778,102.778,358.333,638.889,58.333,N
486,-0.105,0.980,-0.100,133.333,116.667,341.667,880.556,241.667,N
487,-0.130,0.965,-0.140,69.444,88.889,383.333,652.778,227.778,N
488,-0.150,0.960,-0.135,169.444,113.889,338.889,683.333,30.556,N
489,-0.105,1.000,-0.095,88.889,102.778,394.444,636.111,47.222,N
490,-0.065,1.025,-0.070,161.111,108.333,322.222,688.889,52.778,N
491,-0.035,1.035,-0.055,58.333,88.889,361.111,647.222,41.667,N
492,0.510,0.985,-0.140,58.333,113.889,352.778,494.444,152.778,V
493,-0.095,0.935,-0.065,91.667,86.111,344.444,838.889,344.444,N
494,-0.035,1.055,-0.095,47.222,97.222,305.556,572.222,266.667,N
495,-0.060,1.025,-0.040,44.444,94.444,372.222,630.556,58.333,N
496,-0.050,0.915,-0.105,166.667,111.111,319.444,941.667,311.111,N
497,-0.070,0.970,-0.100,150.000,116.667,325.000,847.222,94.444,N
498,-0.085,1.035,-0.110,52.778,100.000,388.889,702.778,144.444,N
499,-0.115,0.935,-0.120,177.778,113.889,358.333,694.444,8.333,N
500,-0.130,0.980,-0.135,47.222,94.444,336.111,766.667,72.222,N
501,-0.120,0.975,-0.155,83.333,97.222,322.222,686.111,80.556,N
502,-0.130,0.895,-0.205,50.000,94.444,355.556,783.333,97.222,N
503,-0.190,0.900,-0.185,122.222,86.111,361.111,638.889,144.444,N
504,-0.160,0.915,-0.180,77.778,111.111,388.889,675.000,36.111,N
505,-0.200,0.900,-0.220,44.444,88.889,305.556,650.000,25.000,N
506,-0.180,0.910,-0.180,75.000,86.111,380.556,611.111,38.889,N
507,-0.180,0.955,-0.210,69.444,100.000,325.000,613.889,2.778,N
508,-0.185,0.895,-0.195,125.000,88.889,363.889,855.556,241.667,N
509,-0.175,0.950,-0.210,158.333,102.778,355.556,647.222,208.333,N
510,-0.180,0.900,-0.210,44.444,83.333,322.222,669.444,22.222,N
511,-0.180,0.915,-0.205,44.444,97.222,383.333,650.000,19.444,N
512,-0.180,0.930,-0.170,166.667,116.667,338.889,825.000,175.000,N
513,-0.190,0.915,-0.180,172.222,113.889,405.556,752.778,72.222,N
514,-0.155,0.960,-0.165,66.667,94.444,372.222,594.444,158.333,N
515,-0.150,0.935,-0.185,113.889,94.444,377.778,730.556,136.111,N
516,-0.175,0.935,-0.155,50.000,97.222,341.667,702.778,27.778,N
517,-0.110,0.985,-0.160,52.778,100.000,338.889,822.222,119.444,N
518,-0.165,0.930,-0.175,55.556,105.556,322.222,769.444,52.778,N
519,-0.130,0.955,-0.140,88.889,91.667,358.333,666.667,102.778,N
520,-0.090,0.985,-0.095,44.444,94.444,302.778,691.667,25.000,N
521,-0.060,1.060,-0.045,77.778,83.333,294.444,763.889,72.222,N
522,-0.045,1.085,-0.085,47.222,91.667,300.000,686.111,77.778,N
523,-0.070,1.025,-0.115,166.667,113.889,338.889,652.778,33.333,N
524,-0.120,0.950,-0.160,55.556,91.667,327.778,638.889,13.889,N
525,-0.140,1.010,-0.115,61.111,113.889,344.444,722.222,83.333,N
526,-0.135,1.025,-0.100,172.222,111.111,369.444,794.444,72.222,N
527,-0.085,1.020,-0.140,77.778,83.333,375.000,555.556,238.889,N
528,-0.125,0.905,-0.145,183.333,116.667,338.889,691.667,136.111,N
529,-0.005,-0.780,0.315,25.000,11.111,213.889,391.667,300.000,V
530,-0.105,0.920,-0.135,97.222,113.889,391.667,822.222,430.556,N
531,-0.115,1.010,-0.185,77.778,94.444,375.000,597.222,225.000,N
532,-0.180,0.905,-0.165,175.000,116.667,344.444,650.000,52.778,N
533,-0.155,1.005,-0.135,166.667,113.889,352.778,722.222,72.222,N
534,-0.125,0.980,-0.175,125.000,97.222,372.222,722.222,0.000,N
535,-0.160,0.845,-0.210,86.111,83.333,361.111,763.889,41.667,N
536,-0.190,0.860,-0.210,88.889,100.000,380.556,750.000,13.889,N
537,-0.160,0.855,-0.215,61.111,80.556,322.222,908.333,158.333,N
538,-0.190,0.775,-0.200,58.333,113.889,391.667,986.111,77.778,N
539,-0.170,0.930,-0.160,197.222,113.889,322.222,700.000,286.111,N
540,-0.180,1.025,-0.165,147.222,113.889,375.000,716.667,16.667,N
541,-0.155,0.900,-0.205,75.000,97.222,338.889,725.000,8.333,N
542,-0.170,0.945,-0.165,63.889,113.889,388.889,727.778,2.778,N
543,-0.145,0.995,-0.150,186.111,113.889,355.556,752.778,25.000,N
544,-0.150,1.010,-0.170,88.889,116.667,388.889,666.667,86.111,N
545,-0.140,1.015,-0.145,127.778,111.111,358.333,808.333,141.667,N
546,-0.145,0.870,-0.190,44.444,91.667,302.778,819.444,11.111,N
547,-0.170,0.945,-0.160,61.111,83.333,372.222,711.111,108.333,N
548,-0.165,0.995,-0.210,86.111,94.444,369.444,558.333,152.778,N
549,-0.145,0.940,-0.180,75.000,102.778,355.556,808.333,250.000,N
550,-0.140,1.015,-0.140,119.444,94.444,369.444,727.778,80.556,N
551,-0.105,1.005,-0.125,55.556,100.000,322.222,702.778,25.000,N
552,-0.100,1.010,-0.115,83.333,116.667,325.000,761.111,58.333,N
553,-0.115,1.030,-0.115,41.667,83.333,358.333,641.667,119.444,N
554,-0.105,0.970,-0.115,69.444,116.667,358.333,677.778,36.111,N
555,-0.100,1.050,-0.140,63.889,111.111,305.556,577.778,100.000,N
556,-0.120,1.045,-0.105,113.889,102.778,358.333,666.667,88.889,N
557,-0.105,1.035,-0.125,66.667,100.000,388.889,672.222,5.556,N
558,-0.100,0.970,-0.145,80.556,113.889,391.667,913.889,241.667,N
559,-0.115,1.030,-0.185,86.111,97.222,375.000,669.444,244.444,N
560,-0.140,0.945,-0.170,88.889,94.444,336.111,788.889,119.444,N
561,-0.170,0.965,-0.170,161.111,100.000,322.222,688.889,100.000,N
562,-0.170,0.980,-0.180,136.111,88.889,344.444,677.778,11.111,N
563,-0.190,0.935,-0.185,36.111,88.889,363.889,680.556,2.778,N
564,-0.185,1.005,-0.185,163.889,113.889,372.222,630.556,50.000,N
565,-0.200,0.990,-0.160,119.444,102.778,361.111,719.444,88.889,N
566,-0.155,0.940,-0.160,52.778,100.000,336.111,702.778,16.667,N
567,-0.115,1.000,-0.125,41.667,86.111,313.889,736.111,33.333,N
568,-0.085,0.895,-0.120,77.778,105.556,388.889,986.111,250.000,N
569,-0.100,1.045,-0.145,116.667,94.444,369.444,675.000,311.111,N
570,-0.115,0.965,-0.165,44.444,91.667,302.778,694.444,19.444,N
571,-0.150,0.970,-0.175,183.333,113.889,311.111,702.778,8.333,N
572,-0.160,0.930,-0.175,72.222,83.333,375.000,608.333,94.444,N
573,-0.200,0.875,-0.190,177.778,111.111,372.222,822.222,213.889,N
574,-0.150,1.000,-0.150,50.000,100.000,375.000,788.889,33.333,N
575,-0.130,1.020,-0.115,186.111,116.667,355.556,766.667,22.222,N
576,-0.090,1.050,-0.115,102.778,86.111,375.000,702.778,63.889,N
577,-0.075,1.070,-0.075,125.000,94.444,355.556,808.333,105.556,N
578,-0.085,1.075,-0.095,94.444,94.444,372.222,750.000,58.333,N
579,-0.135,1.010,-0.135,108.333,105.556,336.111,763.889,13.889,N
580,-0.110,1.060,-0.110,105.556,83.333,375.000,530.556,233.333,N
581,-0.090,1.070,-0.100,158.333,102.778,327.778,633.333,102.778,N
582,-0.115,1.040,-0.135,172.222,100.000,358.333,700.000,66.667,N
583,-0.150,0.985,-0.180,180.556,113.889,375.000,661.111,38.889,N
584,-0.125,1.030,-0.115,166.667,94.444,338.889,797.222,136.111,N
585,-0.115,1.040,-0.200,163.889,111.111,338.889,766.667,30.556,N
586,-0.240,0.850,-0.220,166.667,113.889,355.556,752.778,13.889,N
587,-0.200,1.010,-0.170,116.667,97.222,327.778,730.556,22.222,N
588,-0.175,1.060,-0.180,133.333,113.889,402.778,686.111,44.444,N
589,-0.190,1.000,-0.195,155.556,97.222,308.333,622.222,63.889,N
590,-0.150,1.080,-0.110,125.000,100.000,355.556,686.111,63.889,N
591,-0.110,1.105,-0.175,122.222,100.000,391.667,583.333,102.778,N
592,-0.150,0.935,-0.150,102.778,100.000,388.889,797.222,213.889,N
593,-0.105,0.920,-0.120,97.222,100.000,391.667,808.333,11.111,N
594,-0.080,1.140,-0.110,105.556,100.000,352.778,644.444,163.889,N
595,-0.135,0.985,-0.120,50.000,80.556,361.111,711.111,66.667,N
596,-0.050,1.125,-0.080,50.000,97.222,305.556,580.556,130.556,N
597,-0.085,1.080,-0.175,72.222,102.778,327.778,608.333,27.778,N
598,-0.180,0.955,-0.220,83.333,113.889,402.778,594.444,13.889,N
599,-0.175,1.035,-0.205,41.667,86.111,275.000,558.333,36.111,N
600,-0.175,0.980,-0.235,52.778,97.222,338.889,577.778,19.444,N
601,-0.275,0.780,-0.280,194.444,111.111,341.667,908.333,330.556,N
602,-0.285,0.865,-0.345,127.778,97.222,369.444,719.444,188.889,N
603,-0.280,0.870,-0.275,61.111,91.667,358.333,750.000,30.556,N
604,-0.215,0.930,-0.165,113.889,97.222,375.000,650.000,100.000,N
605,-0.105,1.180,0.015,66.667,116.667,388.889,588.889,61.111,N
606,0.040,1.175,0.050,69.444,113.889,322.222,650.000,61.111,N
607,0.030,1.140,-0.095,86.111,97.222,352.778,650.000,0.000,N
608,-0.040,1.050,-0.075,94.444,83.333,383.333,611.111,38.889,N
609,-0.005,1.060,-0.065,58.333,86.111,361.111,897.222,286.111,N
610,-0.090,1.015,-0.135,66.667,88.889,341.667,747.222,150.000,N
611,-0.135,1.045,-0.205,122.222,102.778,325.000,616.667,130.556,N
612,-0.165,0.960,-0.140,147.222,111.111,355.556,738.889,122.222,N
613,-0.110,1.040,-0.170,94.444,86.111,338.889,713.889,25.000,N
614,-0.145,0.955,-0.185,47.222,97.222,308.333,688.889,25.000,N
615,-0.170,0.960,-0.215,83.333,100.000,391.667,586.111,102.778,N
616,-0.205,0.935,-0.210,50.000,94.444,366.667,597.222,11.111,N
617,-0.160,1.010,-0.210,80.556,94.444,358.333,583.333,13.889,N
618,-0.185,-1.180,0.390,63.889,2.778,205.556,447.222,136.111,V
619,0.390,-1.165,0.370,144.444,2.778,227.778,363.889,83.333,V
620,-0.105,-1.195,0.420,180.556,0.000,202.778,522.222,158.333,V
621,0.420,-1.210,0.300,127.778,0.000,202.778,330.556,191.667,V
622,0.300,-1.195,0.265,188.889,0.000,200.000,391.667,61.111,V
623,0.265,-1.190,0.355,191.667,2.778,202.778,394.444,2.778,V
624,-0.285,0.845,-0.200,83.333,100.000,388.889,736.111,341.667,N
625,-0.140,-0.920,0.010,30.556,22.222,222.222,383.333,352.778,V
626,-0.265,0.815,-0.195,50.000,102.778,344.444,886.111,502.778,N
627,-0.205,0.990,-0.170,83.333,94.444,352.778,647.222,238.889,N
628,-0.180,1.015,-0.185,83.333,113.889,388.889,566.667,80.556,N
629,-0.160,0.920,-0.185,52.778,100.000,372.222,716.667,150.000,N
630,-0.190,0.985,-0.160,72.222,111.111,386.111,802.778,86.111,N
631,-0.125,1.020,-0.120,111.111,97.222,377.778,741.667,61.111,N
632,-0.140,1.035,-0.155,177.778,111.111,338.889,669.444,72.222,N
633,-0.155,1.005,-0.185,50.000,100.000,313.889,619.444,50.000,N
634,-0.165,1.015,-0.140,125.000,113.889,336.111,691.667,72.222,N
635,-0.135,0.895,-0.125,125.000,111.111,350.000,1033.333,341.667,N
636,-0.135,1.035,-0.120,111.111,94.444,358.333,669.444,363.889,N
637,-0.025,1.140,-0.015,116.667,100.000,391.667,741.667,72.222,N
638,-0.025,1.065,-0.040,55.556,100.000,355.556,705.556,36.111,N
639,-0.060,1.125,-0.045,52.778,100.000,375.000,794.444,88.889,N
640,-0.055,1.060,-0.120,58.333,88.889,308.333,708.333,86.111,N
641,-0.070,1.075,-0.050,100.000,113.889,388.889,658.333,50.000,N
642,-0.075,1.055,-0.115,38.889,86.111,294.444,666.667,8.333,N
643,-0.085,1.055,-0.105,100.000,116.667,391.667,613.889,52.778,N
644,-0.135,1.030,-0.145,102.778,116.667,391.667,586.111,27.778,N
645,-0.165,1.015,-0.170,108.333,86.111,369.444,591.667,5.556,N
646,-0.185,0.975,-0.220,91.667,88.889,380.556,597.222,5.556,N
647,-0.170,0.915,-0.190,47.222,94.444,322.222,755.556,158.333,N
648,-0.170,1.030,-0.180,63.889,94.444,372.222,666.667,88.889,N
649,-0.140,0.875,-0.155,88.889,100.000,372.222,1111.111,444.444,N
650,-0.150,0.965,-0.215,50.000,94.444,383.333,725.000,386.111,N
651,-0.220,0.925,-0.160,38.889,86.111,361.111,741.667,16.667,N
652,-0.155,0.960,-0.205,108.333,86.111,325.000,716.667,25.000,N
653,-0.205,1.040,-0.180,80.556,94.444,383.333,558.333,158.333,N
654,-0.180,0.980,-0.175,169.444,111.111,372.222,672.222,113.889,N
655,-0.175,1.020,-0.195,97.222,94.444,372.222,727.778,55.556,N
656,-0.165,0.965,-0.145,83.333,116.667,405.556,786.111,58.333,N
657,-0.135,1.040,-0.155,50.000,94.444,322.222,716.667,69.444,N
658,-0.130,1.040,-0.155,94.444,88.889,375.000,644.444,72.222,N
659,-0.145,0.965,-0.210,44.444,94.444,372.222,736.111,91.667,N
660,-0.180,1.005,-0.155,86.111,88.889,330.556,622.222,113.889,N
661,-0.135,1.040,-0.100,61.111,113.889,305.556,644.444,22.222,N
662,-0.080,1.105,-0.085,88.889,100.000,375.000,644.444,0.000,N
663,-0.135,1.025,-0.120,130.556,113.889,388.889,758.333,113.889,N
664,-0.100,1.040,-0.135,55.556,102.778,344.444,725.000,33.333,N
665,-0.055,-0.740,0.370,30.556,19.444,225.000,397.222,327.778,V
666,-0.130,0.945,-0.155,125.000,94.444,355.556,791.667,394.444,N
667,-0.175,0.945,-0.200,175.000,111.111,316.667,647.222,144.444,N
668,-0.115,1.080,-0.085,91.667,91.667,380.556,650.000,2.778,N
669,-0.035,1.090,-0.030,47.222,97.222,358.333,708.333,58.333,N
670,-0.030,-0.745,0.290,30.556,16.667,208.333,350.000,358.333,V
671,-0.150,0.870,-0.115,66.667,100.000,375.000,683.333,333.333,N
672,-0.135,1.110,-0.115,122.222,88.889,347.222,625.000,58.333,N
673,-0.110,0.970,-0.155,177.778,97.222,341.667,819.444,194.444,N
674,-0.130,1.050,-0.095,138.889,102.778,375.000,761.111,58.333,N
675,-0.100,1.035,-0.120,61.111,100.000,327.778,738.889,22.222,N
676,-0.125,1.065,-0.150,69.444,102.778,391.667,591.667,147.222,N
677,-0.090,1.040,-0.050,38.889,86.111,294.444,555.556,36.111,N
678,-0.025,1.140,-0.030,108.333,86.111,327.778,650.000,94.444,N
679,-0.090,0.975,-0.155,80.556,94.444,386.111,725.000,75.000,N
680,-0.090,1.055,-0.060,111.111,86.111,372.222,777.778,52.778,N
681,-0.055,1.105,-0.150,108.333,91.667,358.333,600.000,177.778,N
682,-0.150,0.980,-0.240,58.333,83.333,372.222,550.000,50.000,N
683,-0.170,0.960,-0.135,86.111,94.444,386.111,677.778,127.778,N
684,-0.130,1.000,-0.140,197.222,116.667,344.444,694.444,16.667,N
685,-0.150,1.015,-0.215,100.000,116.667,341.667,686.111,8.333,N
686,-0.260,0.840,-0.240,97.222,116.667,405.556,750.000,63.889,N
687,-0.180,0.925,-0.175,72.222,86.111,375.000,838.889,88.889,N
688,-0.130,1.000,-0.125,44.444,80.556,311.111,688.889,150.000,N
689,-0.090,1.065,-0.055,113.889,97.222,361.111,669.444,19.444,N
690,0.010,1.125,0.020,66.667,94.444,319.444,741.667,72.222,N
691,0.060,1.120,-0.005,61.111,91.667,316.667,738.889,2.778,N
692,-0.015,1.070,-0.080,69.444,100.000,341.667,644.444,94.444,N
693,-0.060,0.980,-0.135,186.111,113.889,372.222,733.333,88.889,N
694,-0.085,0.925,-0.130,77.778,94.444,358.333,941.667,208.333,N
695,-0.110,0.200,0.010,111.111,91.667,291.667,469.444,472.222,V
696,-0.155,0.920,-0.025,88.889,88.889,372.222,691.667,222.222,N
697,-0.025,-0.885,0.190,27.778,2.778,197.222,366.667,325.000,V
698,-0.240,0.825,-0.240,172.222,113.889,402.778,700.000,333.333,N
699,-0.210,0.965,-0.185,50.000,97.222,355.556,727.778,27.778,N
700,-0.125,0.960,-0.125,66.667,116.667,344.444,730.556,2.778,N
701,-0.090,1.080,-0.115,183.333,113.889,355.556,588.889,141.667,N
702,-0.130,0.975,-0.185,52.778,86.111,327.778,655.556,66.667,N
703,-0.160,0.915,-0.215,75.000,86.111,375.000,750.000,94.444,N
704,-0.195,0.900,-0.225,50.000,97.222,305.556,725.000,25.000,N
705,-0.170,0.950,-0.230,52.778,88.889,294.444,588.889,136.111,N
706,-0.210,0.915,-0.205,66.667,113.889,338.889,680.556,91.667,N
707,-0.185,0.905,-0.200,75.000,86.111,375.000,625.000,55.556,N
708,-0.160,0.960,-0.185,52.778,100.000,336.111,694.444,69.444,N
709,-0.145,0.950,-0.180,44.444,97.222,325.000,841.667,147.222,N
710,-0.165,0.955,-0.220,88.889,100.000,322.222,694.444,147.222,N
711,-0.190,0.870,-0.185,111.111,108.333,325.000,952.778,258.333,N
712,-0.190,0.810,-0.215,111.111,113.889,375.000,1119.444,166.667,N
713,-0.200,0.940,-0.210,75.000,91.667,377.778,697.222,422.222,N
714,-0.190,0.915,-0.180,50.000,86.111,375.000,741.667,44.444,N
715,-0.180,0.945,-0.200,47.222,97.222,313.889,730.556,11.111,N
716,-0.165,0.945,-0.185,108.333,94.444,377.778,647.222,83.333,N
717,-0.165,0.990,-0.175,133.333,116.667,391.667,838.889,191.667,N
718,-0.165,0.995,-0.180,194.444,113.889,344.444,727.778,111.111,N
719,-0.155,1.060,-0.135,97.222,94.444,352.778,655.556,72.222,N
720,-0.150,1.030,-0.095,69.444,94.444,338.889,552.778,102.778,N
721,-0.095,-0.805,0.305,30.556,8.333,211.111,333.333,219.444,V
722,-0.160,0.935,-0.160,66.667,88.889,377.778,666.667,333.333,N
723,-0.155,1.015,-0.165,152.778,94.444,316.667,505.556,161.111,N
724,-0.155,0.965,-0.145,127.778,97.222,375.000,708.333,202.778,N
725,-0.175,0.890,-0.180,58.333,111.111,383.333,841.667,133.333,N
726,-0.170,0.960,-0.195,150.000,116.667,338.889,777.778,63.889,N
727,-0.185,0.945,-0.220,94.444,108.333,375.000,691.667,86.111,N
728,-0.165,0.985,-0.135,63.889,113.889,341.667,722.222,30.556,N
729,-0.150,1.040,-0.135,138.889,102.778,338.889,708.333,13.889,N
730,-0.140,1.015,-0.190,91.667,91.667,375.000,522.222,186.111,N
731,-0.185,0.850,-0.185,166.667,113.889,338.889,938.889,416.667,N
732,-0.170,0.965,-0.240,91.667,91.667,322.222,627.778,311.111,N
733,-0.200,-0.500,0.100,38.889,2.778,191.667,413.889,213.889,a
734,-0.205,0.845,-0.240,55.556,102.778,358.333,800.000,386.111,N
735,-0.270,0.880,-0.325,91.667,100.000,397.222,702.778,97.222,N
736,-0.245,0.865,-0.225,55.556,86.111,327.778,730.556,27.778,N
737,-0.200,0.935,-0.200,72.222,86.111,325.000,633.333,97.222,N
738,-0.190,0.905,-0.250,83.333,94.444,372.222,791.667,158.333,N
739,-0.250,0.860,-0.250,55.556,100.000,322.222,688.889,102.778,N
740,-0.210,0.990,-0.195,122.222,91.667,347.222,633.333,55.556,N
741,-0.185,1.040,-0.225,113.889,94.444,302.778,558.333,75.000,N
742,-0.185,0.955,-0.215,116.667,97.222,386.111,619.444,61.111,N
743,-0.165,1.020,-0.160,113.889,97.222,375.000,816.667,197.222,N
744,-0.160,1.015,-0.210,50.000,97.222,358.333,816.667,0.000,N
745,-0.265,0.845,-0.250,50.000,97.222,322.222,819.444,2.778,N
746,-0.215,0.970,-0.190,69.444,116.667,325.000,650.000,169.444,N
747,-0.175,0.995,-0.200,58.333,100.000,358.333,591.667,58.333,N
748,-0.185,0.990,-0.205,119.444,111.111,358.333,661.111,69.444,N
749,-0.145,0.945,-0.135,97.222,83.333,358.333,694.444,33.333,N
750,-0.150,1.045,-0.205,44.444,97.222,305.556,733.333,38.889,N
751,-0.200,0.895,-0.200,80.556,94.444,372.222,766.667,33.333,N
752,-0.115,1.035,-0.120,77.778,97.222,355.556,633.333,133.333,N
753,-0.065,1.095,-0.090,158.333,108.333,375.000,744.444,111.111,N
754,-0.105,0.935,-0.235,194.444,83.333,305.556,686.111,58.333,N
755,-0.080,-1.585,0.410,41.667,2.778,208.333,427.778,258.333,V
756,-0.210,1.020,-0.215,130.556,94.444,377.778,941.667,513.889,N
757,-0.015,-1.390,0.310,38.889,2.778,219.444,452.778,488.889,V
758,-0.265,0.780,-0.190,69.444,94.444,386.111,736.111,283.333,N
759,-0.145,1.030,-0.145,161.111,113.889,375.000,827.778,91.667,N
760,-0.135,1.040,-0.165,169.444,111.111,352.778,788.889,38.889,N
761,-0.180,0.905,-0.215,69.444,100.000,388.889,716.667,72.222,N
762,-0.165,1.050,-0.180,136.111,116.667,372.222,683.333,33.333,N
763,-0.170,1.010,-0.180,47.222,97.222,344.444,627.778,55.556,N
764,-0.130,1.080,-0.220,119.444,94.444,325.000,572.222,55.556,N
765,-0.215,0.865,-0.240,77.778,94.444,369.444,663.889,91.667,N
766,-0.220,0.910,-0.210,63.889,113.889,325.000,683.333,19.444,N
767,-0.220,0.980,-0.220,125.000,105.556,358.333,658.333,25.000,N
768,-0.165,0.990,-0.205,52.778,94.444,350.000,713.889,55.556,N
769,-0.145,0.930,-0.165,44.444,94.444,325.000,808.333,94.444,N
770,-0.160,1.030,-0.175,69.444,105.556,377.778,658.333,150.000,N
771,-0.120,1.060,-0.115,105.556,91.667,344.444,786.111,127.778,N
772,-0.110,1.030,-0.130,75.000,102.778,391.667,719.444,66.667,N
773,-0.120,1.055,-0.170,97.222,97.222,361.111,619.444,100.000,N
774,-0.135,0.835,-0.110,55.556,100.000,327.778,811.111,191.667,N
775,-0.045,1.130,-0.055,161.111,102.778,305.556,666.667,144.444,N
776,-0.025,1.125,-0.055,186.111,97.222,352.778,613.889,52.778,N
777,-0.040,1.110,-0.085,44.444,94.444,327.778,688.889,75.000,N
778,-0.055,1.155,-0.050,150.000,94.444,366.667,727.778,38.889,N
779,-0.045,1.085,-0.075,125.000,91.667,380.556,738.889,11.111,N
780,-0.050,1.110,-0.050,150.000,116.667,372.222,791.667,52.778,N
781,-0.030,1.105,-0.010,158.333,102.778,325.000,758.333,33.333,N
782,0.025,1.145,0.000,44.444,94.444,305.556,755.556,2.778,N
783,0.005,1.180,-0.035,127.778,94.444,338.889,666.667,88.889,N
784,-0.005,1.110,-0.035,41.667,83.333,294.444,630.556,36.111,N
785,-0.025,1.090,-0.045,63.889,116.667,377.778,769.444,138.889,N
786,-0.025,1.150,-0.060,175.000,102.778,375.000,794.444,25.000,N
787,-0.050,1.125,-0.095,125.000,100.000,355.556,650.000,144.444,N
788,-0.085,1.035,-0.105,91.667,88.889,377.778,683.333,33.333,N
789,-0.105,1.100,-0.085,111.111,91.667,355.556,605.556,77.778,N
790,-0.115,1.090,-0.035,136.111,102.778,344.444,591.667,13.889,N
791,-0.035,-0.820,0.330,27.778,5.556,202.778,330.556,261.111,V
792,-0.135,0.855,-0.160,69.444,113.889,405.556,919.444,588.889,N
793,-0.130,-0.015,0.125,83.333,38.889,219.444,594.444,325.000,F
794,-0.150,1.015,-0.130,133.333,113.889,391.667,802.778,208.333,N
795,-0.135,1.055,-0.115,58.333,111.111,352.778,672.222,130.556,N
796,-0.110,1.150,-0.110,163.889,102.778,361.111,627.778,44.444,N
797,-0.090,1.020,-0.115,75.000,100.000,388.889,722.222,94.444,N
798,-0.090,1.045,-0.110,44.444,94.444,383.333,727.778,5.556,N
799,-0.090,1.095,-0.125,86.111,97.222,369.444,602.778,125.000,N
800,-0.100,1.075,-0.135,83.333,94.444,383.333,547.222,55.556,N
801,-0.095,1.010,-0.085,55.556,91.667,377.778,705.556,158.333,N
802,-0.080,1.095,-0.075,197.222,116.667,372.222,713.889,8.333,N
803,-0.055,1.140,-0.045,119.444,102.778,377.778,716.667,2.778,N
804,-0.085,1.070,-0.070,108.333,108.333,394.444,755.556,38.889,N
805,-0.090,1.120,-0.100,138.889,86.111,380.556,633.333,122.222,N
806,-0.010,-0.560,0.295,30.556,11.111,225.000,630.556,2.778,F
807,-0.085,1.080,-0.125,188.889,97.222,341.667,686.111,55.556,N
808,-0.100,1.105,0.055,183.333,116.667,405.556,594.444,91.667,N
809,0.055,0.970,-0.175,58.333,113.889,336.111,405.556,188.889,V
810,-0.080,1.120,-0.020,147.222,116.667,358.333,827.778,422.222,N
811,-0.030,1.135,-0.080,47.222,91.667,288.889,613.889,213.889,N
812,-0.070,1.075,-0.080,138.889,91.667,377.778,694.444,80.556,N
813,-0.055,1.145,-0.060,66.667,94.444,366.667,661.111,33.333,N
814,-0.065,1.070,-0.100,69.444,102.778,391.667,736.111,75.000,N
815,-0.095,1.080,-0.155,127.778,91.667,369.444,641.667,94.444,N
816,-0.120,0.970,-0.105,72.222,88.889,377.778,727.778,86.111,N
817,-0.105,1.075,-0.110,166.667,116.667,338.889,677.778,50.000,N
818,-0.130,1.050,-0.150,102.778,113.889,388.889,683.333,5.556,N
819,-0.130,1.010,-0.035,63.889,116.667,369.444,630.556,52.778,N
820,-0.035,-0.815,0.355,27.778,19.444,208.333,338.889,291.667,V
821,-0.140,0.955,-0.175,191.667,111.111,352.778,686.111,347.222,N
822,-0.175,0.940,-0.215,61.111,111.111,355.556,655.556,30.556,N
823,-0.145,1.080,-0.115,47.222,97.222,375.000,752.778,97.222,N
824,-0.120,1.085,-0.060,186.111,100.000,358.333,672.222,80.556,N
825,-0.060,-0.805,0.275,27.778,13.889,208.333,338.889,333.333,V
826,-0.145,0.870,-0.100,72.222,100.000,391.667,897.222,558.333,N
827,-0.080,1.095,-0.150,91.667,102.778,397.222,602.778,294.444,N
828,-0.145,1.020,-0.140,88.889,91.667,361.111,630.556,27.778,N
829,-0.105,1.025,-0.120,44.444,83.333,372.222,688.889,58.333,N
830,-0.135,1.050,-0.180,63.889,97.222,325.000,619.444,69.444,N
831,-0.180,0.920,-0.165,144.444,116.667,377.778,750.000,130.556,N
832,-0.085,1.045,-0.120,105.556,97.222,391.667,775.000,25.000,N
833,-0.105,1.100,-0.175,119.444,100.000,358.333,666.667,108.333,N
834,-0.130,0.965,-0.140,88.889,86.111,375.000,586.111,80.556,N
835,-0.100,1.060,-0.080,100.000,94.444,352.778,627.778,41.667,N
836,-0.080,1.090,-0.120,80.556,97.222,380.556,694.444,66.667,N
837,-0.170,0.915,-0.185,94.444,113.889,391.667,733.333,38.889,N
838,-0.140,1.040,-0.090,72.222,102.778,375.000,611.111,122.222,N
839,-0.080,1.150,-0.065,116.667,94.444,383.333,613.889,2.778,N
840,-0.085,1.065,-0.130,125.000,94.444,347.222,622.222,8.333,N
841,-0.110,0.980,-0.195,72.222,88.889,330.556,733.333,111.111,N
842,-0.160,0.990,-0.190,138.889,100.000,358.333,700.000,33.333,N
843,-0.220,0.940,-0.245,80.556,94.444,372.222,705.556,5.556,N
844,-0.165,0.995,-0.235,77.778,88.889,277.778,597.222,108.333,N
845,-0.205,0.900,-0.185,152.778,116.667,338.889,675.000,77.778,N
846,-0.135,1.070,-0.115,136.111,116.667,338.889,566.667,108.333,N
847,-0.085,1.100,-0.075,97.222,91.667,355.556,661.111,94.444,N
848,-0.050,1.005,-0.125,50.000,88.889,330.556,877.778,216.667,N
849,-0.095,1.065,-0.165,180.556,116.667,341.667,758.333,119.444,N
850,-0.180,1.025,-0.145,166.667,113.889,372.222,733.333,25.000,N
851,-0.120,1.000,-0.135,138.889,102.778,358.333,758.333,25.000,N
852,-0.155,0.960,-0.160,175.000,91.667,322.222,769.444,11.111,N
853,-0.155,0.995,-0.190,113.889,97.222,375.000,675.000,94.444,N
854,-0.170,1.010,-0.170,113.889,113.889,358.333,613.889,61.111,N
855,-0.140,0.955,-0.155,88.889,91.667,330.556,691.667,77.778,N
856,-0.140,0.985,-0.145,116.667,97.222,372.222,711.111,19.444,N
857,-0.115,0.925,-0.155,55.556,102.778,361.111,908.333,197.222,N
858,-0.140,1.015,-0.200,111.111,97.222,355.556,691.667,216.667,N
859,-0.135,0.955,-0.195,44.444,94.444,305.556,713.889,22.222,N
860,-0.165,0.905,-0.230,47.222,97.222,322.222,752.778,38.889,N
861,-0.200,0.930,-0.235,61.111,102.778,308.333,711.111,41.667,N
862,-0.220,0.960,-0.200,127.778,108.333,383.333,652.778,58.333,N
863,-0.175,0.895,-0.160,63.889,113.889,325.000,952.778,300.000,N
864,-0.160,1.050,-0.175,166.667,113.889,341.667,686.111,266.667,N
865,-0.150,1.045,-0.175,38.889,91.667,363.889,619.444,66.667,N
866,-0.140,1.015,-0.170,77.778,113.889,402.778,694.444,75.000,N
867,-0.110,1.000,-0.140,91.667,97.222,363.889,813.889,119.444,N
868,-0.075,0.950,-0.105,52.778,100.000,344.444,994.444,180.556,N
869,-0.115,0.975,-0.140,175.000,113.889,369.444,866.667,127.778,N
870,-0.135,1.020,-0.115,86.111,105.556,394.444,766.667,100.000,N
871,-0.120,1.080,-0.090,72.222,100.000,388.889,719.444,47.222,N
872,-0.085,1.130,-0.120,88.889,91.667,380.556,613.889,105.556,N
873,-0.100,1.040,-0.120,55.556,86.111,344.444,719.444,105.556,N
874,-0.120,1.050,-0.120,127.778,86.111,375.000,869.444,150.000,N
875,-0.120,1.080,-0.140,61.111,97.222,311.111,736.111,133.333,N
876,-0.090,1.040,-0.160,83.333,113.889,336.111,638.889,97.222,N
877,-0.140,1.080,-0.130,113.889,113.889,305.556,550.000,88.889,N
878,-0.100,1.055,-0.135,125.000,91.667,341.667,641.667,91.667,N
879,-0.115,0.950,-0.095,105.556,100.000,388.889,847.222,205.556,N
880,-0.115,0.200,0.090,58.333,83.333,288.889,386.111,461.111,V
881,-0.165,0.955,-0.170,180.556,97.222,358.333,708.333,322.222,N
882,-0.130,1.055,-0.060,183.333,116.667,383.333,669.444,38.889,N
883,-0.060,-0.805,0.340,30.556,19.444,238.889,355.556,313.889,V
884,-0.145,0.945,-0.145,108.333,91.667,377.778,819.444,463.889,N
885,-0.150,0.990,-0.170,88.889,91.667,383.333,594.444,225.000,N
886,-0.120,0.440,0.100,155.556,86.111,308.333,702.778,108.333,V
887,-0.080,1.130,-0.105,102.778,100.000,369.444,830.556,127.778,N
888,-0.120,1.035,-0.180,75.000,100.000,391.667,555.556,275.000,N
889,-0.165,0.395,0.040,158.333,88.889,297.222,633.333,77.778,V
890,0.040,-0.810,0.275,144.444,19.444,200.000,386.111,247.222,V
891,-0.150,0.975,-0.180,50.000,97.222,341.667,702.778,316.667,N
892,-0.200,0.940,-0.220,108.333,105.556,355.556,711.111,8.333,N
893,-0.150,1.025,-0.180,108.333,86.111,311.111,666.667,44.444,N
894,-0.150,1.005,-0.040,158.333,105.556,352.778,700.000,33.333,N
895,-0.040,-0.845,0.255,30.556,2.778,211.111,330.556,369.444,V
896,-0.175,0.840,-0.120,77.778,86.111,361.111,938.889,608.333,N
897,-0.110,1.080,-0.120,75.000,102.778,394.444,597.222,341.667,N
898,-0.090,1.190,-0.090,55.556,100.000,308.333,533.333,63.889,N
899,-0.075,1.000,-0.115,69.444,91.667,361.111,463.889,69.444,N
900,-0.085,1.130,-0.070,113.889,111.111,375.000,641.667,177.778,N
901,-0.080,1.130,-0.110,113.889,113.889,388.889,786.111,144.444,N
902,-0.140,0.975,-0.170,69.444,102.778,361.111,772.222,13.889,N
903,-0.140,1.075,-0.135,180.556,116.667,341.667,777.778,5.556,N
904,-0.135,1.080,-0.110,175.000,102.778,325.000,747.222,30.556,N
905,-0.110,1.150,-0.130,152.778,100.000,341.667,577.778,169.444,N
906,-0.135,1.040,-0.135,136.111,108.333,369.444,713.889,136.111,N
907,-0.100,1.085,-0.125,75.000,83.333,375.000,555.556,158.333,N
908,-0.105,1.120,-0.150,69.444,100.000,325.000,594.444,38.889,N
909,-0.125,0.365,-0.075,83.333,69.444,255.556,447.222,147.222,a
910,-0.075,-0.830,0.190,119.444,5.556,219.444,336.111,111.111,V
911,-0.175,0.925,-0.165,186.111,116.667,388.889,866.667,530.556,N
912,-0.140,1.100,-0.155,119.444,97.222,383.333,702.778,163.889,N
913,-0.135,1.095,-0.155,158.333,108.333,363.889,686.111,16.667,N
914,-0.155,1.080,-0.145,105.556,88.889,377.778,733.333,47.222,N
915,-0.080,1.100,-0.110,38.889,86.111,280.556,666.667,66.667,N
916,-0.095,1.085,-0.155,75.000,91.667,344.444,602.778,63.889,N
917,-0.140,1.010,-0.220,61.111,111.111,322.222,705.556,102.778,N
918,-0.170,1.060,-0.105,180.556,116.667,347.222,733.333,27.778,N
919,-0.105,1.205,-0.120,155.556,102.778,355.556,608.333,125.000,N
920,-0.110,1.060,-0.115,94.444,102.778,394.444,722.222,113.889,N
921,-0.125,1.090,-0.165,55.556,102.778,341.667,711.111,11.111,N
922,-0.145,0.980,-0.140,94.444,86.111,375.000,855.556,144.444,N
923,-0.150,1.040,-0.165,52.778,94.444,352.778,772.222,83.333,N
924,-0.135,1.010,-0.140,58.333,83.333,377.778,677.778,94.444,N
925,-0.105,1.025,-0.150,41.667,88.889,272.222,700.000,22.222,N
926,-0.115,1.065,-0.125,55.556,97.222,336.111,727.778,27.778,N
927,-0.115,1.075,-0.130,80.556,94.444,338.889,813.889,86.111,N
928,-0.115,1.085,-0.175,72.222,105.556,394.444,655.556,158.333,N
929,-0.110,1.055,-0.090,88.889,111.111,386.111,933.333,277.778,N
930,-0.100,1.125,-0.115,77.778,97.222,380.556,588.889,344.444,N
931,-0.040,1.100,-0.080,50.000,97.222,383.333,705.556,116.667,N
932,-0.035,1.085,-0.085,44.444,94.444,308.333,727.778,22.222,N
933,-0.075,1.175,-0.080,97.222,94.444,341.667,636.111,91.667,N
934,-0.065,1.190,-0.080,94.444,113.889,377.778,547.222,88.889,N
935,-0.055,1.075,-0.110,66.667,94.444,302.778,655.556,108.333,N
936,-0.075,1.105,-0.155,144.444,94.444,358.333,711.111,55.556,N
937,-0.130,1.045,-0.160,58.333,83.333,341.667,750.000,38.889,N
938,-0.125,1.130,-0.155,100.000,94.444,300.000,675.000,75.000,N
939,-0.140,1.120,-0.165,97.222,113.889,391.667,580.556,94.444,N
940,-0.160,1.110,-0.165,125.000,105.556,358.333,608.333,27.778,N
941,-0.160,1.105,-0.170,111.111,113.889,394.444,541.667,66.667,N
942,-0.130,0.990,-0.170,80.556,80.556,302.778,700.000,158.333,N
943,-0.140,1.085,-0.145,47.222,97.222,386.111,602.778,97.222,N
944,-0.125,1.125,-0.155,180.556,111.111,322.222,530.556,72.222,N
945,-0.025,-0.825,0.330,30.556,13.889,205.556,405.556,125.000,V
946,-0.140,0.985,-0.150,58.333,88.889,380.556,705.556,300.000,N
947,-0.120,1.110,-0.165,119.444,116.667,391.667,644.444,61.111,N
948,-0.145,1.055,-0.170,61.111,83.333,322.222,627.778,16.667,N
949,-0.135,1.095,-0.085,155.556,94.444,350.000,691.667,63.889,N
950,-0.090,1.145,-0.085,97.222,94.444,372.222,541.667,150.000,N
951,-0.075,1.135,-0.115,52.778,94.444,319.444,538.889,2.778,N
952,-0.070,1.135,-0.100,88.889,88.889,363.889,619.444,80.556,N
953,-0.080,1.050,-0.080,58.333,80.556,375.000,688.889,69.444,N
954,-0.065,1.065,-0.105,47.222,97.222,308.333,722.222,33.333,N
955,-0.095,1.145,-0.085,180.556,116.667,377.778,736.111,13.889,N
956,-0.065,1.120,-0.110,44.444,94.444,302.778,663.889,72.222,N
957,-0.075,1.065,-0.095,55.556,91.667,350.000,727.778,63.889,N
958,-0.090,1.100,-0.090,100.000,94.444,383.333,677.778,50.000,N
959,-0.065,1.130,-0.100,163.889,113.889,344.444,677.778,0.000,N
960,-0.100,1.175,-0.160,97.222,100.000,311.111,538.889,138.889,N
961,-0.170,0.990,-0.175,147.222,111.111,391.667,577.778,38.889,N
962,-0.155,1.025,-0.155,47.222,91.667,372.222,650.000,72.222,N
963,-0.065,1.010,-0.115,50.000,97.222,355.556,991.667,341.667,N
964,-0.120,-0.710,0.245,127.778,0.000,236.111,658.333,333.333,V
965,-0.090,1.110,-0.110,169.444,116.667,405.556,872.222,213.889,N
966,-0.110,1.015,-0.165,144.444,97.222,327.778,813.889,58.333,N
967,-0.215,0.845,-0.170,55.556,102.778,391.667,827.778,13.889,N
968,-0.165,1.060,-0.130,94.444,100.000,358.333,636.111,191.667,N
969,-0.095,1.030,-0.160,61.111,91.667,269.444,652.778,16.667,N
970,-0.130,0.960,-0.125,105.556,86.111,308.333,691.667,38.889,N
971,-0.105,1.075,-0.135,133.333,100.000,322.222,700.000,8.333,N
972,-0.175,0.890,-0.225,61.111,83.333,338.889,875.000,175.000,N
973,-0.215,0.805,-0.170,50.000,97.222,308.333,772.222,102.778,N
974,-0.080,1.090,-0.085,47.222,97.222,327.778,697.222,75.000,N
975,-0.050,1.110,-0.085,150.000,116.667,322.222,655.556,41.667,N
976,-0.080,1.065,-0.165,155.556,102.778,355.556,652.778,2.778,N
977,-0.125,0.965,-0.130,58.333,100.000,372.222,655.556,2.778,N
978,-0.090,1.075,-0.080,161.111,86.111,291.667,633.333,22.222,N
979,-0.080,1.140,-0.140,66.667,83.333,291.667,527.778,105.556,N
980,-0.160,0.940,-0.175,47.222,94.444,319.444,661.111,133.333,N
981,-0.115,1.005,-0.105,38.889,88.889,325.000,658.333,2.778,N
982,-0.110,1.095,-0.140,144.444,116.667,366.667,652.778,5.556,N
983,-0.185,0.935,-0.210,191.667,102.778,347.222,802.778,150.000,N
984,-0.150,0.885,-0.145,44.444,88.889,361.111,747.222,55.556,N
985,-0.100,1.110,-0.110,52.778,86.111,358.333,647.222,100.000,N
986,-0.080,1.070,-0.085,113.889,94.444,308.333,641.667,5.556,N
987,-0.095,1.040,-0.170,141.667,100.000,325.000,694.444,52.778,N
988,-0.160,1.035,-0.040,102.778,113.889,372.222,561.111,133.333,N
989,-0.040,-0.865,0.320,30.556,2.778,202.778,344.444,216.667,V
990,-0.150,0.900,-0.155,169.444,116.667,388.889,908.333,563.889,N
991,-0.155,0.995,-0.195,136.111,86.111,308.333,766.667,141.667,N
992,-0.190,0.895,-0.170,113.889,116.667,358.333,844.444,77.778,N
993,-0.190,0.980,-0.230,108.333,86.111,311.111,725.000,119.444,N
994,-0.180,0.990,-0.190,58.333,111.111,361.111,622.222,102.778,N
995,-0.165,1.050,-0.180,52.778,102.778,394.444,558.333,63.889,N
996,-0.130,0.960,-0.130,50.000,91.667,330.556,800.000,241.667,N
997,-0.125,1.055,-0.125,133.333,111.111,405.556,716.667,83.333,N
998,-0.110,1.060,-0.150,52.778,100.000,319.444,602.778,113.889,N
999,-0.110,0.975,-0.145,66.667,97.222,375.000,827.778,225.000,N
1000,-0.135,0.995,-0.155,58.333,113.889,344.444,661.111,166.667,N
1001,-0.140,1.050,-0.190,144.444,91.667,305.556,566.667,94.444,N
1002,-0.180,0.970,-0.170,47.222,100.000,361.111,705.556,138.889,N
1003,-0.160,0.970,-0.180,55.556,88.889,294.444,625.000,80.556,N
1004,-0.185,-0.805,0.235,130.556,2.778,169.444,508.333,116.667,V
1005,-0.175,0.965,-0.180,116.667,116.667,375.000,786.111,277.778,N
1006,-0.180,0.975,-0.200,86.111,88.889,363.889,636.111,150.000,N
1007,-0.190,1.015,-0.155,136.111,113.889,355.556,750.000,113.889,N
1008,-0.160,0.930,-0.120,102.778,102.778,391.667,916.667,166.667,N
1009,-0.115,1.040,-0.135,55.556,83.333,325.000,652.778,263.889,N
1010,-0.090,1.000,-0.100,47.222,94.444,372.222,891.667,238.889,N
1011,-0.050,1.090,-0.070,47.222,94.444,352.778,719.444,172.222,N
1012,-0.035,1.095,-0.030,50.000,102.778,361.111,786.111,66.667,N
1013,0.085,-0.515,0.395,30.556,0.000,197.222,450.000,336.111,V
1014,-0.015,1.095,-0.020,63.889,102.778,327.778,744.444,294.444,N
1015,-0.010,1.155,-0.035,77.778,108.333,355.556,680.556,63.889,N
1016,0.015,1.070,-0.010,75.000,100.000,372.222,913.889,233.333,N
1017,-0.040,1.140,-0.070,175.000,100.000,305.556,733.333,180.556,N
1018,-0.045,1.160,-0.045,47.222,94.444,355.556,605.556,127.778,N
1019,0.000,1.075,-0.050,44.444,94.444,308.333,800.000,194.444,N
1020,-0.035,1.140,-0.035,52.778,94.444,305.556,655.556,144.444,N
1021,-0.020,1.085,-0.075,44.444,83.333,327.778,661.111,5.556,N
1022,-0.070,1.045,-0.075,175.000,88.889,341.667,697.222,36.111,N
1023,-0.055,1.105,-0.050,50.000,88.889,361.111,680.556,16.667,N
1024,-0.030,1.080,-0.085,136.111,102.778,388.889,700.000,19.444,N
1025,-0.085,1.070,-0.070,83.333,102.778,358.333,813.889,113.889,N
1026,-0.060,1.125,-0.060,119.444,100.000,352.778,683.333,130.556,N
1027,-0.045,1.055,-0.050,44.444,80.556,283.333,711.111,27.778,N
1028,-0.070,1.070,-0.085,47.222,88.889,366.667,652.778,58.333,N
1029,-0.105,1.045,-0.100,94.444,111.111,358.333,677.778,25.000,N
1030,-0.080,1.025,-0.100,38.889,83.333,311.111,663.889,13.889,N
1031,-0.100,1.050,-0.110,83.333,97.222,375.000,691.667,27.778,N
1032,-0.110,1.070,-0.120,102.778,88.889,344.444,672.222,19.444,N
1033,-0.125,1.050,-0.105,136.111,102.778,394.444,683.333,11.111,N
1034,-0.095,1.055,-0.095,161.111,111.111,358.333,675.000,8.333,N
1035,-0.050,1.120,-0.105,55.556,100.000,338.889,625.000,50.000,N
1036,-0.060,1.040,-0.090,47.222,94.444,377.778,725.000,100.000,N
1037,-0.105,1.010,-0.090,44.444,83.333,372.222,680.556,44.444,N
1038,-0.055,1.160,-0.055,130.556,113.889,358.333,605.556,75.000,N
1039,-0.065,1.090,-0.100,194.444,111.111,375.000,730.556,125.000,N
1040,-0.105,0.995,-0.180,122.222,102.778,391.667,644.444,86.111,N
1041,-0.125,0.985,-0.135,175.000,105.556,341.667,869.444,225.000,N
1042,-0.140,1.020,-0.165,63.889,116.667,358.333,775.000,94.444,N
1043,-0.175,0.985,-0.205,55.556,100.000,358.333,655.556,119.444,N
1044,-0.150,1.115,-0.130,50.000,97.222,358.333,577.778,77.778,N
1045,-0.090,1.100,-0.120,147.222,113.889,325.000,763.889,186.111,N
1046,-0.130,1.000,-0.220,38.889,88.889,311.111,741.667,22.222,N
1047,-0.205,0.935,-0.150,69.444,116.667,375.000,613.889,127.778,N
1048,-0.135,1.100,-0.140,122.222,97.222,358.333,638.889,25.000,N
1049,-0.140,0.990,-0.155,47.222,91.667,319.444,708.333,69.444,N
1050,-0.100,1.080,-0.075,47.222,97.222,341.667,650.000,58.333,N
1051,-0.060,1.105,-0.105,47.222,94.444,322.222,680.556,30.556,N
1052,-0.130,0.920,-0.135,163.889,97.222,377.778,750.000,69.444,N
1053,-0.100,1.105,-0.085,66.667,97.222,322.222,638.889,111.111,N
1054,-0.090,1.085,-0.140,55.556,91.667,313.889,672.222,33.333,N
1055,-0.130,1.005,-0.110,119.444,108.333,377.778,633.333,38.889,N
1056,-0.105,1.075,-0.135,111.111,88.889,358.333,672.222,38.889,N
1057,-0.095,1.030,-0.155,122.222,97.222,322.222,713.889,41.667,N
1058,-0.135,0.995,-0.125,50.000,97.222,355.556,641.667,72.222,N
1059,-0.065,1.170,-0.120,116.667,97.222,338.889,586.111,55.556,N
1060,-0.085,1.055,-0.085,138.889,102.778,358.333,688.889,102.778,N
1061,-0.090,1.015,-0.160,141.667,100.000,325.000,733.333,44.444,N
1062,-0.085,1.060,-0.080,144.444,105.556,380.556,686.111,47.222,N
1063,-0.065,1.065,-0.125,55.556,100.000,291.667,625.000,61.111,N
1064,-0.105,1.035,-0.195,122.222,97.222,305.556,622.222,2.778,N
1065,-0.200,0.885,-0.180,94.444,94.444,377.778,705.556,83.333,N
1066,-0.130,1.025,-0.125,108.333,83.333,327.778,697.222,8.333,N
1067,-0.140,1.070,-0.145,58.333,100.000,325.000,533.333,163.889,N
1068,-0.130,1.005,-0.200,161.111,111.111,355.556,622.222,88.889,N
1069,-0.165,0.965,0.000,50.000,91.667,336.111,586.111,36.111,N
1070,0.000,-0.795,0.165,41.667,5.556,211.111,344.444,241.667,V
1071,-0.135,0.990,-0.190,72.222,102.778,341.667,711.111,366.667,N
1072,-0.060,-0.810,0.270,27.778,13.889,238.889,427.778,283.333,V
1073,-0.205,0.865,-0.210,44.444,83.333,375.000,677.778,250.000,N
1074,-0.185,0.895,-0.205,61.111,91.667,338.889,733.333,55.556,N
1075,-0.190,0.985,-0.155,72.222,100.000,391.667,597.222,136.111,N
1076,-0.145,0.965,-0.150,80.556,116.667,325.000,708.333,111.111,N
1077,-0.130,0.950,-0.180,44.444,94.444,330.556,761.111,52.778,N
1078,-0.155,0.960,-0.165,88.889,105.556,394.444,780.556,19.444,N
1079,-0.135,0.990,-0.180,50.000,97.222,341.667,775.000,5.556,N
1080,-0.145,1.025,-0.130,50.000,94.444,322.222,688.889,86.111,N
1081,-0.085,1.080,-0.080,52.778,97.222,372.222,733.333,44.444,N
1082,-0.065,1.100,-0.080,94.444,80.556,308.333,558.333,175.000,N
1083,-0.105,0.965,-0.095,41.667,88.889,358.333,647.222,88.889,N
1084,-0.100,1.040,-0.165,63.889,94.444,325.000,605.556,41.667,N
1085,-0.170,0.910,-0.180,44.444,86.111,358.333,680.556,75.000,N
1086,-0.160,0.895,-0.195,55.556,86.111,358.333,947.222,266.667,N
1087,-0.160,0.995,-0.180,41.667,91.667,316.667,708.333,238.889,N
1088,-0.160,1.030,-0.190,108.333,102.778,338.889,611.111,97.222,N
1089,-0.180,0.930,-0.210,47.222,88.889,344.444,702.778,91.667,N
1090,-0.190,0.995,-0.230,47.222,97.222,316.667,675.000,27.778,N
1091,-0.175,0.885,-0.130,58.333,102.778,358.333,872.222,197.222,N
1092,-0.115,1.005,-0.150,69.444,86.111,325.000,713.889,158.333,N
1093,-0.140,0.945,-0.130,55.556,102.778,341.667,900.000,186.111,N
1094,-0.135,1.010,-0.160,83.333,116.667,358.333,761.111,138.889,N
1095,-0.140,1.065,-0.165,63.889,102.778,333.333,600.000,161.111,N
1096,-0.165,0.930,-0.165,52.778,88.889,344.444,788.889,188.889,N
1097,-0.175,1.000,-0.180,97.222,88.889,372.222,658.333,130.556,N
1098,-0.160,0.960,-0.175,177.778,94.444,311.111,766.667,108.333,N
1099,-0.135,0.990,-0.175,125.000,111.111,366.667,613.889,152.778,N
1100,-0.140,1.010,-0.145,66.667,113.889,338.889,691.667,77.778,N
1101,-0.155,1.010,-0.175,58.333,97.222,322.222,683.333,8.333,N
1102,-0.150,1.035,-0.145,152.778,116.667,372.222,669.444,13.889,N
1103,-0.160,1.095,-0.160,50.000,100.000,358.333,580.556,88.889,N
1104,-0.110,1.055,-0.110,102.778,102.778,358.333,686.111,105.556,N
1105,-0.095,1.035,-0.120,50.000,94.444,336.111,886.111,200.000,N
1106,-0.090,1.050,-0.095,55.556,86.111,341.667,688.889,197.222,N
1107,-0.105,1.080,-0.095,61.111,88.889,308.333,650.000,38.889,N
1108,-0.080,1.095,-0.090,169.444,102.778,330.556,627.778,22.222,N
1109,-0.075,1.035,-0.095,75.000,91.667,294.444,669.444,41.667,N
1110,-0.110,1.050,-0.155,122.222,86.111,311.111,650.000,19.444,N
1111,-0.165,0.990,-0.165,66.667,88.889,308.333,652.778,2.778,N
1112,-0.110,1.005,-0.160,55.556,91.667,375.000,683.333,30.556,N
1113,-0.130,1.055,-0.110,63.889,94.444,375.000,638.889,44.444,N
1114,-0.105,1.045,-0.125,50.000,86.111,341.667,819.444,180.556,N
1115,-0.130,1.010,-0.080,55.556,102.778,375.000,655.556,163.889,N
1116,-0.080,-0.785,0.375,27.778,13.889,208.333,355.556,300.000,V
1117,-0.100,0.935,-0.125,44.444,94.444,338.889,686.111,330.556,N
1118,-0.145,1.020,-0.185,38.889,86.111,325.000,725.000,38.889,N
1119,-0.200,0.960,-0.200,44.444,97.222,327.778,725.000,0.000,N
1120,-0.160,0.950,-0.170,111.111,111.111,352.778,816.667,91.667,N
1121,-0.145,1.055,-0.145,50.000,91.667,350.000,758.333,58.333,N
1122,-0.130,1.055,-0.160,175.000,80.556,305.556,658.333,100.000,N
1123,-0.155,0.980,-0.180,77.778,97.222,325.000,833.333,175.000,N
1124,-0.150,1.005,-0.175,102.778,97.222,325.000,708.333,125.000,N
1125,-0.115,1.120,-0.105,47.222,100.000,358.333,613.889,94.444,N
1126,-0.115,1.070,-0.135,169.444,113.889,405.556,602.778,11.111,N
1127,-0.135,1.015,-0.130,125.000,111.111,400.000,788.889,186.111,N
1128,-0.110,0.990,-0.075,138.889,111.111,352.778,713.889,75.000,N
1129,-0.065,1.125,-0.075,130.556,97.222,355.556,727.778,13.889,N
1130,-0.075,1.100,-0.135,177.778,113.889,344.444,697.222,30.556,N
1131,-0.130,1.050,-0.115,111.111,86.111,361.111,580.556,116.667,N
1132,-0.070,0.380,0.905,158.333,111.111,400.000,569.444,11.111,V
1133,-0.090,0.875,0.045,119.444,102.778,394.444,344.444,225.000,a
1134,-0.095,1.065,-0.180,44.444,94.444,308.333,372.222,27.778,N
1135,-0.165,0.930,-0.240,194.444,94.444,327.778,600.000,227.778,N
1136,-0.210,0.925,-0.250,191.667,86.111,375.000,616.667,16.667,N
1137,-0.250,0.930,-0.275,36.111,86.111,294.444,711.111,94.444,N
1138,-0.285,0.820,-0.245,108.333,100.000,341.667,686.111,25.000,N
1139,-0.090,1.115,-0.090,50.000,83.333,336.111,675.000,11.111,N
1140,-0.070,1.085,-0.125,122.222,100.000,325.000,625.000,50.000,N
1141,-0.110,1.005,-0.120,116.667,97.222,355.556,541.667,83.333,N
1142,-0.045,1.040,-0.020,55.556,91.667,366.667,655.556,113.889,N
1143,0.150,-0.605,0.285,36.111,5.556,202.778,547.222,108.333,V
1144,-0.130,0.985,-0.080,44.444,91.667,341.667,877.778,330.556,N
1145,0.165,-1.165,0.400,41.667,2.778,211.111,463.889,413.889,V
1146,-0.135,1.005,-0.205,133.333,97.222,377.778,680.556,216.667,N
1147,-0.190,0.865,-0.130,66.667,88.889,363.889,691.667,11.111,N
1148,-0.085,1.040,-0.110,61.111,94.444,358.333,716.667,25.000,N
1149,-0.085,1.040,-0.170,127.778,111.111,375.000,680.556,36.111,N
1150,-0.130,0.895,-0.145,63.889,94.444,372.222,719.444,38.889,N
1151,-0.110,1.015,-0.160,83.333,97.222,308.333,638.889,80.556,N
1152,-0.125,1.045,-0.175,66.667,97.222,386.111,647.222,8.333,N
1153,-0.190,0.890,-0.155,108.333,116.667,386.111,758.333,111.111,N
1154,-0.135,1.030,-0.135,122.222,102.778,358.333,580.556,177.778,N
1155,-0.120,1.005,-0.110,91.667,91.667,380.556,722.222,141.667,N
1156,-0.110,1.070,-0.135,119.444,116.667,355.556,594.444,127.778,N
1157,-0.100,1.050,-0.075,144.444,97.222,358.333,611.111,16.667,N
1158,-0.020,1.090,0.005,130.556,113.889,361.111,783.333,172.222,N
1159,0.005,1.080,-0.040,102.778,91.667,383.333,738.889,44.444,N
1160,-0.045,1.065,-0.065,111.111,94.444,327.778,808.333,69.444,N
1161,-0.090,0.990,-0.055,183.333,102.778,322.222,822.222,13.889,N
1162,-0.070,1.025,-0.070,77.778,83.333,372.222,777.778,44.444,N
1163,-0.080,1.055,-0.075,83.333,97.222,369.444,708.333,69.444,N
1164,-0.080,1.075,-0.085,130.556,113.889,363.889,608.333,100.000,N
1165,-0.055,1.080,-0.055,180.556,102.778,344.444,641.667,33.333,N
1166,-0.080,-1.170,0.495,194.444,0.000,222.222,691.667,50.000,V
1167,-0.105,0.910,-0.120,47.222,94.444,383.333,758.333,66.667,N
1168,-0.085,1.075,-0.075,130.556,116.667,377.778,683.333,75.000,N
1169,-0.080,1.060,-0.070,169.444,100.000,358.333,755.556,72.222,N
1170,-0.040,0.815,-0.075,138.889,108.333,380.556,736.111,19.444,N
1171,-0.060,0.980,-0.095,44.444,80.556,288.889,652.778,83.333,N
1172,-0.080,-0.965,0.370,47.222,0.000,208.333,411.111,241.667,V
1173,-0.050,-1.135,0.465,133.333,2.778,172.222,497.222,86.111,V
1174,-0.125,0.940,-0.150,91.667,88.889,380.556,658.333,161.111,N
1175,-0.120,0.995,-0.150,52.778,94.444,388.889,644.444,13.889,N
1176,-0.115,1.000,-0.130,127.778,94.444,375.000,658.333,13.889,N
1177,-0.120,1.035,-0.125,86.111,97.222,375.000,591.667,66.667,N
1178,-0.155,-0.595,0.205,69.444,8.333,202.778,583.333,8.333,V
1179,0.205,-0.890,0.620,105.556,16.667,358.333,302.778,280.556,V
1180,0.340,1.160,-0.185,147.222,100.000,322.222,361.111,58.333,N
1181,-0.125,0.125,0.040,58.333,69.444,361.111,475.000,113.889,V
1182,0.040,-0.745,0.260,27.778,5.556,188.889,355.556,119.444,V
1183,-0.145,0.850,-0.110,141.667,105.556,325.000,911.111,555.556,N
1184,-0.115,1.035,-0.105,72.222,88.889,361.111,630.556,280.556,N
1185,-0.080,0.960,-0.110,52.778,97.222,386.111,650.000,19.444,N
1186,-0.095,0.920,-0.120,55.556,88.889,347.222,788.889,138.889,N
1187,-0.110,1.050,-0.120,161.111,111.111,347.222,736.111,52.778,N
1188,-0.105,0.960,-0.120,55.556,88.889,383.333,691.667,44.444,N
1189,-0.105,0.980,-0.125,186.111,100.000,372.222,563.889,127.778,N
1190,-0.060,1.020,-0.055,141.667,102.778,327.778,825.000,261.111,N
1191,-0.055,1.015,-0.070,119.444,116.667,336.111,844.444,19.444,N
1192,-0.080,1.010,-0.100,47.222,94.444,375.000,644.444,200.000,N
1193,-0.080,1.060,-0.065,161.111,100.000,344.444,666.667,22.222,N
1194,-0.065,0.985,-0.100,41.667,86.111,311.111,777.778,111.111,N
1195,-0.115,1.030,-0.145,144.444,97.222,377.778,688.889,88.889,N
1196,-0.155,0.935,-0.155,66.667,97.222,375.000,936.111,247.222,N
1197,-0.125,1.000,-0.140,47.222,97.222,375.000,716.667,219.444,N
1198,-0.130,1.020,-0.100,63.889,111.111,305.556,686.111,30.556,N
1199,-0.090,1.080,-0.105,122.222,113.889,358.333,652.778,33.333,N
1200,-0.110,1.075,-0.080,138.889,108.333,327.778,719.444,66.667,N
1201,-0.090,1.090,-0.080,152.778,111.111,338.889,597.222,122.222,N
1202,-0.080,1.040,-0.090,141.667,105.556,375.000,741.667,144.444,N
1203,-0.100,1.065,-0.115,186.111,113.889,338.889,658.333,83.333,N
1204,-0.140,1.040,-0.100,108.333,111.111,377.778,708.333,50.000,N
1205,-0.125,1.005,-0.110,55.556,100.000,355.556,816.667,108.333,N
1206,-0.095,0.995,-0.100,127.778,108.333,352.778,733.333,83.333,N
1207,-0.055,1.075,-0.070,108.333,105.556,358.333,716.667,16.667,N
1208,-0.055,1.015,-0.100,41.667,86.111,288.889,633.333,83.333,N
1209,-0.140,1.020,-0.160,113.889,108.333,308.333,652.778,19.444,N
1210,-0.185,0.895,-0.175,108.333,100.000,391.667,697.222,44.444,N
1211,-0.155,0.995,-0.140,91.667,102.778,391.667,783.333,86.111,N
1212,-0.135,0.970,-0.175,50.000,94.444,372.222,727.778,55.556,N
1213,-0.150,0.935,-0.190,77.778,94.444,322.222,777.778,50.000,N
1214,-0.190,0.955,-0.205,130.556,116.667,397.222,633.333,144.444,N
1215,-0.155,1.090,-0.115,136.111,116.667,355.556,638.889,5.556,N
1216,-0.100,1.110,0.090,113.889,94.444,383.333,544.444,94.444,N
1217,0.130,-0.765,0.235,38.889,5.556,200.000,391.667,152.778,V
1218,-0.095,1.030,-0.125,127.778,113.889,347.222,641.667,250.000,N
1219,-0.120,1.040,-0.130,155.556,102.778,344.444,544.444,97.222,N
1220,-0.095,1.100,-0.085,130.556,113.889,388.889,738.889,194.444,N
1221,-0.065,1.085,-0.175,91.667,102.778,316.667,597.222,141.667,N
1222,-0.125,0.230,-0.010,38.889,69.444,247.222,430.556,166.667,V
1223,-0.060,-1.050,0.200,197.222,0.000,205.556,458.333,27.778,V
1224,-0.160,1.080,-0.140,94.444,108.333,388.889,813.889,355.556,N
1225,-0.150,0.975,-0.255,113.889,100.000,377.778,738.889,75.000,N
1226,-0.235,0.795,-0.145,80.556,91.667,377.778,747.222,8.333,N
1227,-0.100,1.115,-0.120,91.667,108.333,355.556,733.333,13.889,N
1228,-0.120,0.955,-0.190,58.333,91.667,277.778,666.667,66.667,N
1229,-0.150,0.900,-0.070,186.111,113.889,338.889,705.556,38.889,N
1230,-0.045,1.160,-0.060,130.556,111.111,391.667,711.111,5.556,N
1231,-0.085,1.000,-0.220,194.444,88.889,308.333,563.889,147.222,N
1232,-0.160,0.900,-0.100,113.889,83.333,358.333,705.556,141.667,N
1233,-0.055,1.025,-0.125,55.556,88.889,294.444,711.111,5.556,N
1234,-0.235,0.785,-0.425,194.444,91.667,383.333,727.778,16.667,N
1235,-0.410,0.495,-0.440,180.556,116.667,344.444,697.222,30.556,N
1236,-0.345,0.760,-0.290,61.111,111.111,325.000,744.444,47.222,N
1237,-0.270,0.980,-0.275,113.889,91.667,308.333,636.111,108.333,N
1238,-0.270,0.855,0.135,88.889,88.889,338.889,591.667,44.444,N
1239,0.320,-0.720,0.385,30.556,11.111,255.556,430.556,161.111,|
1240,-0.370,0.360,-0.330,75.000,91.667,388.889,241.667,188.889,N
1241,-0.210,1.020,-0.120,52.778,100.000,388.889,694.444,452.778,N
1242,-0.020,1.080,0.080,88.889,94.444,366.667,638.889,55.556,N
1243,0.235,1.245,0.175,88.889,86.111,344.444,916.667,277.778,N
1244,0.195,1.330,0.040,119.444,111.111,333.333,613.889,302.778,N
1245,0.030,0.975,-0.065,61.111,83.333,294.444,650.000,36.111,N
1246,-0.085,1.045,-0.135,125.000,108.333,363.889,672.222,22.222,N
1247,-0.130,1.005,-0.190,175.000,111.111,377.778,766.667,94.444,N
1248,-0.215,0.795,-0.205,105.556,100.000,391.667,711.111,55.556,N
1249,-0.135,1.005,-0.125,108.333,100.000,388.889,622.222,88.889,N
1250,-0.090,1.050,-0.130,44.444,91.667,372.222,752.778,130.556,N
1251,-0.095,0.995,-0.080,94.444,113.889,391.667,633.333,119.444,N
1252,0.305,0.830,-0.140,58.333,116.667,405.556,572.222,61.111,V
1253,-0.080,1.090,-0.135,86.111,94.444,352.778,755.556,183.333,N
1254,-0.135,0.385,-0.065,86.111,61.111,222.222,427.778,327.778,a
1255,-0.135,0.895,-0.130,158.333,105.556,338.889,641.667,213.889,N
1256,-0.090,1.030,-0.075,125.000,88.889,363.889,683.333,41.667,N
1257,-0.045,1.080,-0.105,66.667,113.889,325.000,708.333,25.000,N
1258,-0.050,1.005,-0.050,161.111,111.111,338.889,730.556,22.222,N
1259,-0.045,1.055,-0.070,58.333,102.778,327.778,763.889,33.333,N
1260,-0.070,1.075,-0.110,133.333,113.889,341.667,708.333,55.556,N
1261,-0.090,1.050,-0.155,94.444,91.667,358.333,694.444,13.889,N
1262,-0.135,1.005,-0.220,116.667,116.667,372.222,591.667,102.778,N
1263,-0.210,0.770,-0.230,58.333,105.556,327.778,925.000,333.333,N
1264,-0.160,0.965,-0.200,75.000,80.556,352.778,613.889,311.111,N
1265,-0.145,0.885,-0.190,63.889,94.444,308.333,688.889,75.000,N
1266,-0.135,1.000,-0.120,125.000,91.667,377.778,711.111,22.222,N
1267,-0.110,1.050,-0.115,163.889,116.667,358.333,658.333,52.778,N
1268,-0.105,1.020,-0.110,122.222,105.556,375.000,708.333,50.000,N
1269,-0.100,0.950,-0.125,144.444,111.111,375.000,752.778,44.444,N
1270,-0.115,1.030,-0.140,113.889,113.889,375.000,705.556,47.222,N
1271,-0.140,0.995,-0.185,100.000,97.222,375.000,733.333,27.778,N
1272,-0.185,0.325,-0.155,116.667,97.222,225.000,469.444,263.889,a
1273,-0.205,0.845,-0.210,52.778,97.222,322.222,719.444,250.000,N
1274,-0.205,0.705,-0.280,55.556,102.778,394.444,916.667,197.222,N
1275,-0.205,0.945,-0.225,141.667,111.111,394.444,708.333,208.333,N
1276,-0.220,0.900,-0.240,150.000,116.667,344.444,638.889,69.444,N
1277,-0.220,0.800,-0.240,66.667,80.556,338.889,700.000,61.111,N
1278,-0.200,0.950,-0.040,63.889,105.556,344.444,661.111,38.889,N
1279,0.015,1.070,0.135,80.556,94.444,375.000,636.111,25.000,N
1280,0.265,1.270,0.365,61.111,94.444,341.667,683.333,47.222,N
1281,0.400,1.325,0.325,197.222,97.222,291.667,702.778,19.444,N
1282,0.285,1.275,0.155,122.222,86.111,308.333,625.000,77.778,N
1283,0.070,1.055,-0.035,97.222,113.889,361.111,755.556,130.556,N
1284,-0.110,0.770,-0.230,105.556,100.000,386.111,744.444,11.111,N
1285,-0.270,0.715,-0.360,100.000,102.778,372.222,797.222,52.778,N
1286,-0.395,0.570,-0.465,175.000,88.889,325.000,655.556,141.667,N
1287,-0.430,0.585,-0.450,44.444,69.444,291.667,619.444,36.111,N
1288,-0.405,0.570,-0.395,61.111,83.333,372.222,716.667,97.222,N
1289,-0.365,0.800,-0.355,102.778,116.667,358.333,625.000,91.667,N
1290,-0.310,0.740,-0.295,50.000,86.111,363.889,650.000,25.000,N
1291,-0.210,0.810,-0.210,122.222,88.889,383.333,788.889,138.889,N
1292,-0.075,-1.555,0.425,41.667,2.778,211.111,483.333,305.556,V
1293,-0.210,0.850,-0.110,66.667,100.000,369.444,694.444,211.111,N
1294,-0.110,-0.765,0.220,30.556,11.111,208.333,358.333,336.111,V
1295,-0.195,0.875,-0.170,102.778,113.889,402.778,744.444,386.111,N
1296,-0.155,0.950,-0.160,50.000,100.000,325.000,683.333,61.111,N
1297,-0.160,0.920,-0.170,175.000,100.000,305.556,725.000,41.667,N
1298,-0.185,0.825,-0.195,147.222,113.889,308.333,838.889,113.889,N
1299,-0.205,1.005,-0.195,77.778,97.222,338.889,644.444,194.444,N
1300,-0.185,0.960,-0.195,52.778,97.222,375.000,688.889,44.444,N
1301,-0.140,0.960,-0.145,47.222,97.222,341.667,580.556,108.333,N
1302,-0.115,1.015,-0.145,66.667,97.222,352.778,672.222,91.667,N
1303,-0.105,1.010,-0.150,80.556,91.667,372.222,597.222,75.000,N
1304,-0.140,0.950,-0.135,63.889,94.444,375.000,733.333,136.111,N
1305,-0.090,0.950,-0.105,47.222,86.111,325.000,713.889,19.444,N
1306,-0.100,1.090,-0.085,130.556,116.667,375.000,691.667,22.222,N
1307,-0.075,1.075,-0.075,105.556,86.111,311.111,686.111,5.556,N
1308,-0.070,1.090,-0.060,102.778,113.889,369.444,677.778,8.333,N
1309,-0.060,1.090,-0.095,100.000,97.222,358.333,716.667,38.889,N
1310,-0.100,1.015,-0.130,183.333,116.667,341.667,686.111,30.556,N
1311,-0.130,1.025,-0.115,141.667,111.111,377.778,758.333,72.222,N
1312,-0.060,1.025,-0.045,44.444,86.111,297.222,802.778,44.444,N
1313,-0.020,1.105,-0.060,91.667,91.667,344.444,497.222,305.556,N
1314,-0.030,1.045,-0.030,52.778,100.000,311.111,661.111,163.889,N
1315,-0.055,0.995,-0.055,122.222,113.889,372.222,800.000,138.889,N
1316,-0.030,1.080,-0.010,175.000,100.000,325.000,622.222,177.778,N
1317,-0.020,1.160,-0.005,102.778,116.667,355.556,644.444,22.222,N
1318,0.000,1.085,-0.015,77.778,97.222,372.222,863.889,219.444,N
1319,0.005,0.990,-0.005,105.556,108.333,394.444,761.111,102.778,N
1320,0.035,1.130,0.025,47.222,97.222,322.222,572.222,188.889,N
1321,0.010,1.110,0.015,141.667,102.778,308.333,725.000,152.778,N
1322,-0.045,0.935,-0.110,158.333,86.111,291.667,886.111,161.111,N
1323,-0.135,0.985,-0.200,130.556,108.333,386.111,655.556,230.556,N
1324,-0.225,0.835,-0.255,47.222,94.444,288.889,683.333,27.778,N
1325,-0.250,0.910,-0.205,122.222,100.000,330.556,644.444,38.889,N
1326,-0.160,0.990,-0.115,97.222,111.111,391.667,688.889,44.444,N
1327,-0.090,1.080,-0.120,111.111,100.000,361.111,600.000,88.889,N
1328,-0.085,1.065,-0.080,152.778,113.889,341.667,672.222,72.222,N
1329,-0.100,1.045,-0.150,108.333,102.778,394.444,555.556,116.667,N
1330,-0.060,0.925,-0.055,58.333,86.111,313.889,869.444,313.889,N
1331,-0.020,1.160,-0.020,102.778,116.667,350.000,661.111,208.333,N
1332,0.010,1.220,-0.020,105.556,100.000,375.000,550.000,111.111,N
1333,-0.050,1.135,-0.050,69.444,102.778,361.111,700.000,150.000,N
1334,-0.065,1.050,-0.055,75.000,83.333,380.556,558.333,141.667,N
1335,-0.015,1.155,0.020,108.333,105.556,391.667,630.556,72.222,N
1336,0.045,0.480,0.130,125.000,83.333,263.889,616.667,13.889,F
1337,0.015,1.170,0.055,86.111,100.000,394.444,730.556,113.889,N
1338,0.050,1.150,-0.050,83.333,97.222,375.000,730.556,0.000,N
1339,-0.065,1.135,-0.115,113.889,116.667,391.667,630.556,100.000,N
1340,-0.115,0.990,-0.155,52.778,97.222,305.556,705.556,75.000,N
1341,-0.115,1.155,-0.060,111.111,113.889,361.111,658.333,47.222,N
1342,-0.045,1.075,-0.100,194.444,83.333,344.444,647.222,11.111,N
1343,-0.095,1.045,-0.140,125.000,83.333,341.667,733.333,86.111,N
1344,-0.120,0.860,-0.105,83.333,113.889,388.889,905.556,172.222,N
1345,-0.150,0.950,-0.225,52.778,94.444,386.111,738.889,166.667,N
1346,-0.200,0.940,-0.220,147.222,94.444,325.000,661.111,77.778,N
1347,-0.210,0.910,-0.155,86.111,86.111,380.556,672.222,11.111,N
1348,-0.125,1.030,-0.090,102.778,97.222,388.889,600.000,72.222,N
1349,-0.080,1.080,-0.075,111.111,111.111,372.222,611.111,11.111,N
1350,-0.080,1.105,-0.090,152.778,113.889,336.111,608.333,2.778,N
1351,-0.070,1.050,-0.060,111.111,86.111,361.111,552.778,55.556,N
1352,-0.050,1.105,-0.090,86.111,86.111,338.889,680.556,127.778,N
1353,-0.090,1.040,-0.170,130.556,113.889,394.444,591.667,88.889,N
1354,-0.180,0.970,-0.220,144.444,111.111,391.667,633.333,41.667,N
1355,-0.250,0.845,-0.250,125.000,91.667,375.000,777.778,144.444,N
1356,-0.205,0.845,-0.225,155.556,113.889,336.111,800.000,22.222,N
1357,-0.240,0.850,-0.300,63.889,94.444,288.889,641.667,158.333,N
1358,-0.290,0.780,-0.355,183.333,100.000,305.556,705.556,63.889,N
1359,-0.305,0.835,-0.270,122.222,113.889,355.556,669.444,36.111,N
1360,-0.255,0.950,-0.280,141.667,113.889,341.667,591.667,77.778,N
1361,-0.255,0.850,-0.305,77.778,100.000,375.000,769.444,177.778,N
1362,-0.295,0.890,-0.330,116.667,116.667,394.444,616.667,152.778,N
1363,-0.305,0.820,-0.255,58.333,105.556,372.222,825.000,208.333,N
1364,-0.255,0.110,-0.080,125.000,97.222,305.556,447.222,377.778,V
1365,-0.205,0.950,-0.200,166.667,116.667,361.111,794.444,347.222,N
1366,-0.175,0.920,-0.220,44.444,86.111,297.222,611.111,183.333,N
1367,-0.220,0.935,-0.225,102.778,100.000,375.000,644.444,33.333,N
1368,-0.195,0.945,-0.205,113.889,113.889,355.556,727.778,83.333,N
1369,-0.190,0.925,-0.265,91.667,83.333,344.444,694.444,33.333,N
1370,-0.265,-0.900,0.125,55.556,2.778,208.333,366.667,327.778,V
1371,-0.230,0.800,-0.225,88.889,102.778,394.444,663.889,297.222,N
1372,-0.265,0.880,-0.270,158.333,97.222,338.889,655.556,8.333,N
1373,-0.235,0.880,-0.240,97.222,100.000,388.889,688.889,33.333,N
1374,-0.225,0.870,-0.220,130.556,97.222,375.000,813.889,125.000,N
1375,-0.190,0.900,-0.195,66.667,100.000,322.222,691.667,122.222,N
1376,-0.140,1.040,-0.095,147.222,86.111,341.667,677.778,13.889,N
1377,-0.065,0.965,-0.025,88.889,86.111,375.000,794.444,116.667,N
1378,-0.010,1.145,0.015,86.111,102.778,336.111,561.111,233.333,N
1379,0.015,-0.680,0.385,30.556,2.778,191.667,322.222,238.889,V
1380,-0.075,0.915,-0.155,69.444,94.444,383.333,791.667,469.444,N
1381,-0.115,0.995,-0.150,163.889,113.889,355.556,716.667,75.000,N
1382,-0.155,0.920,-0.165,63.889,94.444,369.444,816.667,100.000,N
1383,-0.170,0.870,-0.235,191.667,91.667,311.111,705.556,111.111,N
1384,-0.165,0.835,-0.260,55.556,88.889,297.222,786.111,80.556,N
1385,-0.250,0.840,-0.270,44.444,94.444,375.000,605.556,180.556,N
1386,-0.275,0.900,-0.250,116.667,113.889,338.889,619.444,13.889,N
1387,-0.225,0.895,-0.195,100.000,102.778,358.333,672.222,52.778,N
1388,-0.180,0.900,-0.065,75.000,88.889,341.667,658.333,13.889,N
1389,-0.065,-0.695,0.280,30.556,22.222,227.778,338.889,319.444,V
1390,-0.060,0.970,0.000,75.000,97.222,386.111,1055.556,716.667,N
1391,0.015,1.135,0.015,108.333,102.778,372.222,769.444,286.111,N
1392,0.015,1.190,0.100,147.222,116.667,375.000,608.333,161.111,N
1393,0.100,-0.680,0.440,27.778,2.778,205.556,344.444,263.889,V
1394,-0.065,0.945,-0.095,102.778,97.222,352.778,830.556,486.111,N
1395,-0.095,1.060,-0.150,169.444,116.667,338.889,627.778,202.778,N
1396,-0.135,0.965,-0.180,191.667,83.333,369.444,608.333,19.444,N
1397,-0.195,0.945,-0.200,122.222,100.000,305.556,630.556,22.222,N
1398,-0.185,1.000,-0.205,119.444,88.889,363.889,516.667,113.889,N
1399,-0.175,0.970,-0.175,116.667,113.889,375.000,727.778,211.111,N
1400,-0.140,0.960,-0.180,91.667,83.333,372.222,741.667,13.889,N
1401,-0.145,1.010,-0.155,158.333,108.333,344.444,686.111,55.556,N
1402,-0.135,1.060,-0.215,100.000,100.000,372.222,541.667,144.444,N
1403,-0.210,0.825,-0.245,58.333,102.778,311.111,675.000,133.333,N
1404,-0.305,0.835,-0.430,155.556,113.889,355.556,677.778,2.778,N
1405,-0.435,0.620,-0.350,47.222,100.000,388.889,913.889,236.111,N
1406,-0.265,0.930,-0.120,80.556,105.556,361.111,608.333,305.556,N
1407,0.025,1.110,0.065,55.556,86.111,361.111,663.889,55.556,N
1408,0.115,1.255,0.090,88.889,111.111,402.778,616.667,47.222,N
1409,0.100,1.265,0.055,133.333,113.889,386.111,666.667,50.000,N
1410,0.025,1.130,-0.075,172.222,100.000,358.333,636.111,30.556,N
1411,-0.060,1.045,-0.105,61.111,83.333,375.000,702.778,66.667,N
1412,-0.075,1.010,-0.075,55.556,83.333,377.778,730.556,27.778,N
1413,-0.070,1.020,-0.060,63.889,94.444,369.444,725.000,5.556,N
1414,0.005,1.095,0.135,147.222,105.556,355.556,655.556,69.444,N
1415,0.235,1.305,0.235,116.667,108.333,202.778,527.778,127.778,N
1416,0.050,1.085,0.170,47.222,94.444,211.111,583.333,55.556,N
1417,0.680,1.590,0.370,77.778,75.000,141.667,1486.111,902.778,N
1418,0.510,-1.310,0.710,44.444,5.556,208.333,427.778,1058.333,V
1419,0.150,0.975,0.265,100.000,94.444,380.556,655.556,227.778,N
1420,0.280,1.145,0.115,180.556,100.000,361.111,705.556,50.000,N
1421,0.080,0.885,-0.145,163.889,116.667,158.333,633.333,72.222,N
1422,-0.260,0.455,-0.550,188.889,83.333,308.333,619.444,13.889,N
1423,-0.610,0.495,-0.585,133.333,102.778,388.889,530.556,88.889,N
1424,-0.575,0.280,-0.555,155.556,102.778,297.222,636.111,105.556,N
1425,-0.390,0.140,-0.370,63.889,97.222,375.000,841.667,205.556,N
1426,-0.345,0.655,-0.240,66.667,111.111,344.444,577.778,263.889,N
1427,-0.220,0.615,-0.170,61.111,91.667,366.667,644.444,66.667,N
1428,-0.105,1.000,0.045,75.000,75.000,369.444,763.889,119.444,N
1429,0.150,1.180,0.500,69.444,113.889,402.778,597.222,166.667,N
1430,0.190,0.520,0.455,100.000,75.000,238.889,350.000,247.222,a
1431,0.270,0.895,0.120,50.000,97.222,305.556,972.222,622.222,N
1432,0.320,-1.155,0.485,41.667,2.778,188.889,430.556,541.667,V
1433,-0.125,0.750,-0.290,183.333,113.889,375.000,855.556,425.000,N
1434,0.080,-1.595,0.090,41.667,2.778,225.000,475.000,380.556,V
1435,-0.345,0.575,-0.475,136.111,116.667,391.667,741.667,266.667,N
1436,-0.470,0.450,-0.495,72.222,111.111,386.111,752.778,11.111,N
1437,-0.475,0.590,-0.520,50.000,94.444,352.778,677.778,75.000,N
1438,-0.505,0.615,-0.495,102.778,116.667,388.889,586.111,91.667,N
1439,-0.430,0.650,-0.445,77.778,94.444,361.111,741.667,155.556,N
1440,-0.310,0.615,-0.370,58.333,97.222,388.889,750.000,8.333,N
1441,-0.320,0.785,-0.345,97.222,88.889,372.222,575.000,175.000,N
1442,-0.340,0.800,-0.370,77.778,113.889,302.778,700.000,125.000,N
1443,-0.290,0.850,-0.265,61.111,97.222,380.556,644.444,55.556,N
1444,-0.150,1.090,-0.110,88.889,94.444,380.556,850.000,205.556,N
1445,0.025,1.170,-0.125,130.556,116.667,405.556,658.333,191.667,N
1446,-0.090,1.075,-0.495,61.111,75.000,294.444,708.333,50.000,N
1447,-0.405,0.745,-0.540,141.667,97.222,108.333,705.556,2.778,N
1448,-0.445,0.540,-0.060,50.000,83.333,380.556,647.222,58.333,N
1449,-0.065,3.285,3.320,983761.111,0.000,983758.333,750.000,102.778,N
1450,-0.065,1.945,3.320,984427.778,0.000,983758.333,666.667,83.333,N
1451,0.560,0.845,0.050,194.444,86.111,88.889,561.111,105.556,N
1452,-0.370,0.145,-0.590,188.889,86.111,94.444,716.667,155.556,N
1453,-0.665,-0.065,-0.780,133.333,100.000,291.667,663.889,52.778,N
1454,-0.675,-0.080,-0.550,55.556,102.778,391.667,872.222,208.333,N
1455,-0.465,0.205,-0.475,91.667,97.222,386.111,736.111,136.111,N
1456,-0.415,0.300,-0.345,63.889,100.000,380.556,605.556,130.556,N
1457,-0.315,0.365,-0.365,166.667,116.667,294.444,686.111,80.556,N
1458,-0.355,0.405,-0.335,83.333,94.444,305.556,633.333,52.778,N
1459,-0.295,0.405,-0.280,47.222,91.667,291.667,666.667,33.333,N
1460,-0.295,0.480,-0.280,113.889,113.889,388.889,666.667,0.000,N
1461,-0.245,0.450,-0.240,119.444,113.889,369.444,652.778,13.889,N
1462,-0.235,0.470,-0.245,125.000,102.778,391.667,611.111,41.667,N
1463,-0.175,0.535,-0.195,111.111,111.111,391.667,816.667,205.556,N
1464,-0.230,0.390,-0.215,158.333,105.556,375.000,794.444,22.222,N
1465,-0.195,0.540,-0.165,69.444,97.222,380.556,708.333,86.111,N
1466,-0.075,0.750,-0.015,63.889,113.889,402.778,702.778,5.556,N
1467,0.055,0.815,0.090,108.333,111.111,372.222,613.889,88.889,N
1468,0.095,0.840,0.145,86.111,108.333,380.556,575.000,38.889,N
1469,0.165,0.830,0.120,147.222,111.111,355.556,658.333,83.333,N
1470,0.135,0.805,0.120,44.444,83.333,338.889,650.000,8.333,N
1471,0.120,0.855,0.055,144.444,102.778,361.111,733.333,83.333,N
1472,0.040,0.685,0.060,100.000,102.778,358.333,705.556,27.778,N
1473,0.055,0.800,-0.040,150.000,113.889,391.667,700.000,5.556,N
1474,-0.040,0.595,-0.100,66.667,97.222,272.222,700.000,0.000,N
1475,-0.050,-0.505,0.055,25.000,2.778,161.111,400.000,300.000,a
1476,-0.080,0.445,-0.130,47.222,91.667,350.000,747.222,347.222,N
1477,-0.110,0.595,-0.125,105.556,83.333,372.222,575.000,172.222,N
1478,-0.100,0.490,-0.160,72.222,94.444,283.333,719.444,144.444,N
1479,-0.095,0.235,-0.065,72.222,86.111,380.556,969.444,250.000,N
1480,-0.010,0.660,-0.060,86.111,80.556,338.889,775.000,194.444,N
1481,0.015,0.710,0.000,75.000,83.333,352.778,711.111,63.889,N
1482,0.030,0.370,0.020,72.222,97.222,372.222,944.444,233.333,N
1483,0.040,0.780,0.040,63.889,75.000,283.333,541.667,402.778,N
1484,0.090,0.810,0.035,150.000,113.889,291.667,688.889,147.222,N
1485,0.030,0.630,-0.025,169.444,113.889,308.333,716.667,27.778,N
1486,0.045,0.700,0.030,47.222,75.000,286.111,747.222,30.556,N
1487,0.025,0.750,-0.025,122.222,116.667,388.889,688.889,58.333,N
1488,-0.075,0.680,-0.075,186.111,102.778,386.111,786.111,97.222,N
1489,-0.065,0.630,0.010,183.333,116.667,327.778,691.667,94.444,N
1490,0.055,0.840,0.140,152.778,113.889,319.444,708.333,16.667,N
1491,0.155,0.805,0.100,69.444,86.111,291.667,616.667,91.667,N
1492,-0.025,0.555,-0.325,194.444,86.111,172.222,705.556,88.889,N
1493,-0.540,0.110,-0.655,161.111,88.889,352.778,666.667,38.889,N
1494,-0.610,0.075,-0.510,63.889,80.556,377.778,686.111,19.444,N
1495,-0.315,0.335,-0.215,50.000,100.000,322.222,722.222,36.111,N
1496,-0.135,0.540,-0.085,61.111,94.444,377.778,661.111,61.111,N
1497,-0.035,0.660,0.065,61.111,80.556,363.889,588.889,72.222,N
1498,0.065,-1.060,0.520,27.778,2.778,213.889,355.556,233.333,V
1499,0.010,0.425,-0.005,127.778,91.667,352.778,925.000,569.444,N
1500,0.460,-1.190,0.420,33.333,2.778,180.556,441.667,483.333,V
1501,0.015,0.590,-0.020,136.111,113.889,355.556,916.667,475.000,N
1502,0.450,-1.115,0.360,33.333,2.778,177.778,452.778,463.889,V
1503,0.020,0.645,-0.035,58.333,86.111,341.667,650.000,197.222,N
1504,-0.015,0.655,-0.045,144.444,113.889,394.444,641.667,8.333,N
1505,-0.035,-1.255,0.290,44.444,2.778,200.000,405.556,236.111,V
1506,-0.130,0.475,-0.075,175.000,100.000,325.000,722.222,316.667,N
1507,-0.075,1.135,-0.075,175.000,88.889,344.444,452.778,269.444,V
1508,-0.055,0.475,-0.110,63.889,83.333,275.000,705.556,252.778,N
1509,-0.100,0.520,-0.075,138.889,94.444,350.000,822.222,116.667,N
1510,-0.075,1.115,0.005,105.556,80.556,380.556,419.444,402.778,V
1511,-0.075,0.385,-0.100,125.000,102.778,355.556,905.556,486.111,N
1512,0.365,-1.315,0.195,36.111,2.778,177.778,444.444,461.111,V
1513,-0.150,0.405,-0.145,55.556,86.111,388.889,800.000,355.556,N
1514,0.325,-1.315,0.325,38.889,0.000,211.111,502.778,297.222,V
1515,-0.065,0.470,-0.120,152.778,116.667,372.222,661.111,158.333,N
1516,-0.140,0.510,-0.230,75.000,86.111,380.556,741.667,80.556,N
1517,-0.225,0.510,-0.215,100.000,97.222,388.889,608.333,133.333,N
1518,-0.185,0.515,-0.230,80.556,102.778,297.222,766.667,158.333,N
1519,-0.220,0.440,-0.245,88.889,105.556,372.222,775.000,8.333,N
1520,-0.255,0.415,-0.275,80.556,86.111,344.444,722.222,52.778,N
1521,-0.235,0.510,-0.170,138.889,116.667,388.889,588.889,133.333,N
1522,-0.125,0.610,-0.160,111.111,111.111,327.778,711.111,122.222,N
1523,-0.115,0.490,-0.125,94.444,80.556,325.000,786.111,75.000,N
1524,-0.050,0.625,-0.050,47.222,77.778,272.222,766.667,19.444,N
1525,-0.045,0.700,0.010,52.778,97.222,305.556,719.444,47.222,N
1526,0.005,0.685,-0.055,63.889,88.889,375.000,680.556,38.889,N
1527,0.025,0.705,0.040,47.222,83.333,291.667,716.667,36.111,N
1528,0.050,0.760,0.015,152.778,116.667,322.222,688.889,27.778,N
1529,-0.025,0.660,-0.055,130.556,111.111,358.333,730.556,41.667,N
1530,-0.050,0.770,-0.120,55.556,69.444,366.667,486.111,244.444,N
1531,-0.085,0.440,-0.125,152.778,91.667,333.333,655.556,169.444,N
1532,-0.155,0.535,-0.200,155.556,94.444,350.000,833.333,177.778,N
1533,-0.205,0.535,-0.190,105.556,102.778,391.667,736.111,97.222,N
1534,-0.185,0.470,-0.260,66.667,113.889,288.889,711.111,25.000,N
1535,-0.260,0.390,-0.245,100.000,100.000,344.444,783.333,72.222,N
1536,-0.185,0.170,-0.250,77.778,80.556,272.222,875.000,91.667,N
1537,-0.180,0.465,-0.170,63.889,94.444,305.556,722.222,152.778,N
1538,-0.145,0.550,-0.175,113.889,100.000,305.556,666.667,55.556,N
1539,-0.165,0.570,-0.210,161.111,100.000,344.444,747.222,80.556,N
1540,-0.155,0.425,-0.165,63.889,86.111,377.778,838.889,91.667,N
1541,-0.115,0.570,-0.155,69.444,86.111,313.889,605.556,233.333,N
1542,-0.150,0.495,0.000,144.444,113.889,400.000,725.000,119.444,N
1543,0.000,-1.260,0.200,27.778,5.556,194.444,372.222,352.778,V
1544,-0.165,0.310,-0.250,75.000,66.667,291.667,638.889,266.667,N
1545,-0.195,0.520,-0.155,55.556,102.778,308.333,666.667,27.778,N
1546,-0.065,1.385,-0.055,111.111,83.333,391.667,636.111,30.556,V
1547,-0.005,0.650,0.130,111.111,113.889,347.222,605.556,30.556,N
1548,0.130,-0.965,0.405,30.556,13.889,183.333,322.222,283.333,V
1549,-0.045,0.450,-0.115,50.000,80.556,383.333,697.222,375.000,N
1550,-0.020,0.570,-0.095,86.111,88.889,277.778,788.889,91.667,N
1551,-0.045,0.525,-0.125,97.222,97.222,361.111,808.333,19.444,N
1552,-0.105,0.545,-0.105,194.444,102.778,322.222,750.000,58.333,N
1553,-0.115,0.785,-0.160,113.889,102.778,394.444,516.667,233.333,N
1554,-0.210,0.335,-0.245,80.556,102.778,391.667,705.556,188.889,N
1555,0.225,-0.810,0.035,22.222,0.000,177.778,638.889,66.667,F
1556,-0.025,0.670,-0.005,144.444,105.556,325.000,602.778,36.111,N
1557,-0.025,0.735,-0.040,133.333,111.111,358.333,691.667,88.889,N
1558,-0.075,0.545,-0.130,172.222,86.111,311.111,822.222,130.556,N
1559,-0.130,0.100,-0.035,127.778,72.222,244.444,411.111,411.111,a
1560,-0.065,0.395,-0.050,158.333,108.333,327.778,658.333,247.222,N
1561,-0.035,0.635,-0.085,94.444,108.333,300.000,686.111,27.778,N
1562,-0.070,0.610,-0.115,161.111,116.667,361.111,722.222,36.111,N
1563,-0.125,0.515,-0.075,194.444,102.778,308.333,633.333,88.889,N
1564,-0.040,0.705,-0.035,141.667,111.111,355.556,525.000,108.333,N
1565,-0.040,0.580,-0.065,80.556,97.222,375.000,661.111,136.111,N
1566,-0.110,0.535,-0.190,116.667,86.111,375.000,722.222,61.111,N
1567,-0.080,0.590,-0.080,52.778,86.111,294.444,750.000,27.778,N
1568,-0.065,0.565,-0.075,158.333,113.889,366.667,872.222,122.222,N
1569,-0.075,0.560,-0.110,147.222,116.667,341.667,791.667,80.556,N
1570,-0.070,0.695,-0.030,100.000,116.667,375.000,716.667,75.000,N
1571,-0.025,0.660,-0.055,119.444,94.444,366.667,755.556,38.889,N
1572,-0.050,0.670,-0.120,144.444,86.111,355.556,738.889,16.667,N
1573,-0.110,0.545,-0.085,88.889,86.111,377.778,694.444,44.444,N
1574,-0.050,0.605,-0.090,127.778,113.889,361.111,627.778,66.667,N
1575,-0.075,0.695,-0.160,77.778,83.333,294.444,547.222,80.556,N
1576,-0.150,0.350,-0.170,125.000,94.444,358.333,669.444,122.222,N
1577,-0.115,0.535,-0.055,52.778,94.444,308.333,738.889,69.444,N
1578,-0.035,0.610,-0.090,113.889,113.889,319.444,713.889,25.000,N
1579,-0.080,0.415,-0.130,130.556,94.444,319.444,900.000,186.111,N
1580,-0.085,0.250,-0.085,63.889,80.556,291.667,947.222,47.222,N
1581,-0.060,0.535,-0.120,105.556,97.222,338.889,677.778,269.444,N
1582,-0.110,0.515,-0.200,72.222,80.556,361.111,666.667,11.111,N
1583,-0.140,0.560,-0.080,66.667,80.556,305.556,711.111,44.444,N
1584,-0.085,0.515,-0.140,94.444,94.444,341.667,797.222,86.111,N
1585,-0.145,-1.230,0.185,94.444,2.778,194.444,783.333,13.889,V
1586,-0.195,0.600,-0.100,163.889,108.333,388.889,700.000,83.333,N
1587,-0.090,0.500,-0.105,116.667,97.222,255.556,722.222,22.222,N
1588,0.015,0.765,-0.140,58.333,116.667,325.000,533.333,188.889,V
1589,-0.160,-0.885,0.170,163.889,2.778,205.556,847.222,313.889,F
1590,-0.115,0.540,-0.200,122.222,100.000,308.333,725.000,122.222,N
1591,-0.225,0.270,-0.275,41.667,91.667,308.333,655.556,69.444,N
1592,-0.160,-1.195,0.150,27.778,2.778,200.000,430.556,225.000,V
1593,-0.185,0.265,-0.210,175.000,100.000,338.889,936.111,505.556,N
1594,0.205,-1.450,0.085,36.111,2.778,197.222,494.444,441.667,V
1595,0.080,-1.195,0.215,188.889,2.778,197.222,405.556,88.889,V
1596,-0.190,-1.310,0.275,155.556,0.000,200.000,630.556,225.000,V
1597,-0.070,1.235,0.305,63.889,97.222,344.444,708.333,77.778,V
1598,-0.280,0.305,0.475,58.333,97.222,291.667,291.667,416.667,V
1599,0.120,-1.145,0.400,186.111,0.000,163.889,533.333,241.667,V
1600,-0.170,0.345,-0.240,144.444,97.222,336.111,825.000,291.667,N
1601,-0.240,0.695,-0.200,136.111,83.333,391.667,433.333,391.667,V
1602,-0.185,0.220,-0.220,63.889,97.222,338.889,1019.444,586.111,N
1603,0.250,-1.385,0.085,33.333,2.778,219.444,452.778,566.667,V
1604,-0.225,0.285,-0.245,105.556,100.000,383.333,705.556,252.778,N
1605,-0.215,0.405,-0.255,86.111,97.222,344.444,750.000,44.444,N
1606,-0.255,0.345,-0.250,88.889,100.000,377.778,786.111,36.111,N
1607,-0.190,-1.300,0.255,180.556,0.000,180.556,661.111,125.000,V
1608,-0.175,0.390,-0.215,50.000,86.111,313.889,766.667,105.556,N
1609,-0.200,-1.335,0.275,158.333,0.000,188.889,627.778,138.889,V
1610,-0.135,0.340,-0.125,69.444,97.222,338.889,877.778,250.000,N
1611,-0.020,-1.165,0.460,97.222,0.000,205.556,708.333,169.444,V
1612,-0.020,0.615,-0.070,108.333,100.000,372.222,811.111,102.778,N
1613,0.040,-0.425,0.050,19.444,0.000,180.556,713.889,97.222,F
1614,-0.080,0.445,-0.125,125.000,105.556,380.556,636.111,77.778,N
1615,-0.135,0.445,-0.155,55.556,86.111,258.333,716.667,80.556,N
1616,-0.170,0.485,-0.170,100.000,113.889,325.000,694.444,22.222,N
1617,-0.155,-1.155,0.245,144.444,5.556,194.444,713.889,19.444,V
1618,-0.135,0.550,-0.175,83.333,116.667,377.778,669.444,44.444,N
1619,-0.100,0.510,-0.110,122.222,100.000,375.000,641.667,27.778,N
1620,-0.100,0.565,-0.140,69.444,100.000,325.000,811.111,169.444,N
1621,-0.090,-0.805,0.120,197.222,0.000,202.778,744.444,66.667,F
1622,-0.075,0.660,-0.095,166.667,116.667,344.444,669.444,75.000,N
1623,-0.080,0.540,-0.095,180.556,113.889,344.444,633.333,36.111,N
1624,-0.085,-1.145,0.315,52.778,2.778,186.111,472.222,161.111,V
1625,-0.075,0.480,-0.105,83.333,91.667,369.444,630.556,158.333,N
1626,-0.105,-1.235,0.350,183.333,0.000,186.111,550.000,80.556,V
1627,-0.080,0.605,-0.080,150.000,113.889,372.222,766.667,216.667,N
1628,0.005,0.845,-0.095,58.333,116.667,333.333,508.333,258.333,V
1629,-0.175,0.385,-0.095,119.444,97.222,394.444,883.333,375.000,N
1630,-0.075,0.820,-0.035,83.333,97.222,308.333,444.444,438.889,V
1631,-0.050,-1.175,0.310,175.000,2.778,197.222,586.111,141.667,V
1632,-0.125,0.335,-0.165,105.556,86.111,308.333,902.778,316.667,N
1633,0.320,-1.305,0.180,33.333,2.778,188.889,458.333,444.444,V
1634,0.180,-1.045,0.360,150.000,5.556,188.889,336.111,122.222,V
1635,-0.030,0.275,-0.090,77.778,94.444,255.556,863.889,527.778,N
1636,-0.060,-1.100,0.355,194.444,5.556,211.111,700.000,163.889,V
1637,0.010,0.390,-0.155,161.111,100.000,355.556,1033.333,333.333,N
1638,0.175,-1.465,0.305,41.667,2.778,208.333,477.778,555.556,V
1639,-0.120,0.905,0.085,61.111,102.778,391.667,822.222,344.444,N
1640,0.370,1.355,0.220,69.444,100.000,325.000,958.333,136.111,N
1641,0.115,1.070,0.075,47.222,83.333,125.000,758.333,200.000,N
1642,0.075,1.215,-0.115,116.667,100.000,344.444,725.000,33.333,N
1643,0.045,-0.735,0.055,27.778,5.556,211.111,394.444,330.556,V
1644,-0.325,0.690,-0.255,116.667,113.889,372.222,627.778,233.333,N
1645,-0.140,0.920,-0.205,41.667,83.333,308.333,655.556,27.778,N
1646,-0.320,0.720,-0.400,191.667,102.778,338.889,813.889,158.333,N
1647,-0.185,0.920,-0.160,50.000,100.000,305.556,811.111,2.778,N
1648,-0.170,0.905,-0.295,194.444,94.444,308.333,711.111,100.000,N
1649,-0.240,0.905,-0.125,58.333,113.889,405.556,727.778,16.667,N
1650,-0.040,1.220,-0.105,113.889,116.667,394.444,744.444,16.667,N
1651,-0.090,1.015,-0.200,152.778,100.000,305.556,638.889,105.556,N
1652,-0.145,1.020,-0.020,52.778,102.778,361.111,663.889,25.000,N
1653,0.060,1.285,0.025,111.111,111.111,388.889,561.111,102.778,N
1654,0.035,1.200,-0.100,136.111,116.667,383.333,625.000,63.889,N
1655,-0.065,1.040,-0.070,144.444,100.000,372.222,808.333,183.333,N
1656,-0.015,1.200,-0.090,83.333,100.000,377.778,755.556,52.778,N
1657,-0.115,1.100,-0.220,77.778,83.333,372.222,747.222,8.333,N
1658,-0.210,0.955,-0.180,102.778,100.000,391.667,755.556,8.333,N
1659,-0.085,1.160,-0.130,111.111,113.889,358.333,777.778,22.222,N
1660,-0.115,1.105,-0.235,88.889,100.000,388.889,561.111,216.667,N
1661,-0.185,0.840,-0.170,44.444,86.111,377.778,672.222,111.111,N
1662,-0.100,1.090,-0.105,127.778,111.111,375.000,786.111,113.889,N
1663,-0.115,1.140,-0.215,141.667,100.000,391.667,747.222,38.889,N
1664,-0.110,0.965,-0.075,116.667,113.889,372.222,938.889,191.667,N
1665,-0.045,1.180,-0.135,100.000,97.222,325.000,616.667,322.222,N
1666,-0.110,1.085,-0.170,113.889,116.667,358.333,602.778,13.889,N
1667,-0.120,1.085,-0.060,97.222,94.444,375.000,561.111,41.667,N
1668,-0.030,1.195,-0.100,88.889,100.000,291.667,575.000,13.889,N
1669,-0.080,1.080,-0.130,127.778,105.556,352.778,808.333,233.333,N
1670,-0.060,1.130,-0.075,113.889,111.111,355.556,805.556,2.778,N
1671,-0.060,1.105,-0.085,180.556,113.889,361.111,647.222,158.333,N
1672,-0.075,1.105,-0.135,163.889,113.889,322.222,622.222,25.000,N
1673,-0.085,0.520,-0.055,161.111,113.889,300.000,725.000,102.778,F
1674,-0.090,1.135,-0.110,77.778,94.444,366.667,733.333,8.333,N
1675,-0.100,1.115,-0.100,147.222,113.889,327.778,638.889,94.444,N
1676,-0.085,1.085,-0.100,141.667,102.778,308.333,747.222,108.333,N
1677,-0.090,1.125,-0.115,186.111,113.889,355.556,708.333,38.889,N
1678,-0.045,1.065,-0.105,41.667,86.111,277.778,775.000,66.667,N
1679,-0.090,1.155,-0.100,102.778,97.222,386.111,775.000,0.000,N
1680,-0.075,1.155,-0.085,133.333,97.222,355.556,633.333,141.667,N
1681,-0.080,1.080,0.055,169.444,108.333,388.889,638.889,5.556,N
1682,0.055,-0.990,0.310,30.556,5.556,200.000,363.889,275.000,V
1683,-0.190,0.945,-0.260,55.556,91.667,383.333,769.444,405.556,N
1684,-0.240,0.920,-0.310,72.222,91.667,380.556,752.778,16.667,N
1685,-0.255,0.985,-0.260,105.556,100.000,355.556,783.333,30.556,N
1686,-0.225,1.040,-0.220,136.111,113.889,344.444,580.556,202.778,N
1687,-0.135,1.080,-0.115,111.111,111.111,358.333,841.667,261.111,N
1688,-0.115,1.150,-0.135,116.667,100.000,341.667,772.222,69.444,N
1689,-0.105,1.230,-0.085,119.444,97.222,377.778,602.778,169.444,N
1690,-0.070,1.155,-0.090,144.444,116.667,380.556,594.444,8.333,N
1691,-0.075,1.185,-0.045,119.444,113.889,369.444,758.333,163.889,N
1692,-0.020,1.225,-0.065,122.222,102.778,358.333,716.667,41.667,N
1693,-0.080,1.160,-0.100,108.333,102.778,375.000,738.889,22.222,N
1694,-0.085,1.140,-0.105,66.667,88.889,366.667,675.000,63.889,N
1695,-0.075,1.200,-0.120,113.889,111.111,372.222,616.667,58.333,N
1696,-0.100,1.155,-0.145,122.222,113.889,386.111,672.222,55.556,N
1697,-0.130,1.150,-0.185,86.111,91.667,380.556,583.333,88.889,N
1698,-0.125,1.055,-0.155,52.778,91.667,366.667,783.333,200.000,N
1699,-0.115,1.145,-0.140,163.889,113.889,338.889,697.222,86.111,N
1700,-0.110,1.130,-0.100,127.778,97.222,347.222,561.111,136.111,N
1701,-0.060,1.025,-0.065,47.222,97.222,308.333,638.889,77.778,N
1702,-0.030,1.105,-0.105,58.333,91.667,311.111,741.667,102.778,N
1703,-0.110,1.085,-0.140,125.000,102.778,355.556,652.778,88.889,N
1704,-0.110,1.035,0.415,183.333,116.667,380.556,658.333,5.556,N
1705,-0.075,0.400,0.160,72.222,72.222,227.778,325.000,333.333,a
1706,-0.095,1.015,-0.110,175.000,113.889,347.222,919.444,594.444,N
1707,-0.135,1.005,-0.215,91.667,86.111,375.000,700.000,219.444,N
1708,-0.100,1.110,-0.090,136.111,116.667,388.889,841.667,141.667,N
1709,-0.105,1.070,-0.140,172.222,94.444,300.000,652.778,188.889,N
1710,-0.110,0.975,0.045,130.556,97.222,358.333,694.444,41.667,N
1711,0.045,-0.800,0.280,30.556,11.111,216.667,350.000,344.444,V
1712,-0.045,1.055,-0.130,86.111,97.222,388.889,905.556,555.556,N
1713,-0.125,0.955,-0.250,61.111,94.444,375.000,725.000,180.556,N
1714,-0.145,1.020,-0.035,108.333,105.556,358.333,630.556,94.444,N
1715,-0.025,1.100,-0.145,158.333,86.111,325.000,636.111,5.556,N
1716,-0.165,0.980,-0.225,136.111,113.889,375.000,727.778,91.667,N
1717,-0.160,0.880,-0.120,58.333,91.667,350.000,722.222,5.556,N
1718,-0.050,1.100,-0.130,83.333,97.222,308.333,794.444,72.222,N
1719,-0.130,1.020,-0.225,152.778,102.778,344.444,686.111,108.333,N
1720,-0.180,0.895,-0.150,50.000,94.444,327.778,744.444,58.333,N
1721,-0.115,1.105,-0.170,102.778,116.667,333.333,672.222,72.222,N
1722,-0.215,1.010,-0.290,136.111,113.889,319.444,733.333,61.111,N
1723,-0.280,0.780,-0.260,116.667,102.778,361.111,863.889,130.556,N
1724,-0.190,1.000,-0.190,122.222,97.222,388.889,605.556,258.333,N
1725,-0.200,0.970,-0.265,111.111,102.778,391.667,769.444,163.889,N
1726,-0.265,0.895,-0.310,86.111,100.000,322.222,763.889,5.556,N
1727,-0.215,0.895,-0.170,47.222,80.556,327.778,708.333,55.556,N
1728,-0.135,1.125,-0.195,100.000,88.889,361.111,808.333,100.000,N
1729,-0.185,1.070,-0.185,144.444,116.667,361.111,761.111,47.222,N
1730,-0.170,1.075,-0.200,102.778,105.556,358.333,691.667,69.444,N
1731,-0.165,1.010,-0.085,55.556,105.556,347.222,783.333,91.667,N
1732,-0.045,1.170,-0.085,127.778,108.333,375.000,755.556,27.778,N
1733,-0.080,1.170,-0.120,130.556,116.667,363.889,786.111,30.556,N
1734,-0.110,1.190,-0.155,88.889,86.111,380.556,547.222,238.889,N
1735,-0.090,1.040,-0.180,94.444,91.667,377.778,752.778,205.556,N
1736,-0.110,1.000,-0.145,44.444,94.444,305.556,719.444,33.333,N
1737,-0.120,1.110,-0.145,88.889,91.667,330.556,625.000,94.444,N
1738,-0.130,1.095,-0.190,141.667,113.889,363.889,605.556,19.444,N
1739,-0.190,0.180,0.075,61.111,55.556,208.333,369.444,236.111,V
1740,-0.165,1.075,-0.185,80.556,100.000,377.778,852.778,483.333,N
1741,0.035,-1.450,0.435,38.889,0.000,194.444,475.000,377.778,V
1742,-0.140,0.260,-0.085,111.111,86.111,294.444,938.889,463.889,V
1743,-0.165,1.065,-0.205,88.889,94.444,355.556,894.444,44.444,N
1744,-0.160,0.985,-0.225,55.556,97.222,322.222,683.333,211.111,N
1745,-0.165,1.075,-0.185,155.556,113.889,338.889,702.778,19.444,N
1746,-0.175,1.110,-0.175,113.889,116.667,355.556,694.444,8.333,N
1747,-0.145,1.115,-0.190,69.444,100.000,338.889,686.111,8.333,N
1748,-0.160,1.035,-0.180,83.333,94.444,383.333,666.667,19.444,N
1749,-0.180,0.440,-0.095,80.556,72.222,269.444,427.778,238.889,a
1750,-0.110,1.000,-0.145,47.222,94.444,319.444,916.667,488.889,N
1751,-0.110,1.145,-0.145,166.667,100.000,358.333,738.889,177.778,N
1752,-0.110,1.140,-0.125,97.222,97.222,377.778,697.222,41.667,N
1753,-0.135,1.180,-0.150,108.333,111.111,341.667,594.444,102.778,N
1754,-0.125,1.145,-0.185,102.778,102.778,375.000,580.556,13.889,N
1755,-0.175,1.125,-0.170,111.111,86.111,325.000,605.556,25.000,N
1756,-0.165,1.160,-0.175,97.222,97.222,372.222,538.889,66.667,N
1757,-0.180,1.025,-0.195,52.778,100.000,308.333,625.000,86.111,N
1758,-0.200,1.110,-0.195,91.667,108.333,383.333,816.667,191.667,N
1759,-0.160,1.135,-0.160,86.111,91.667,383.333,747.222,69.444,N
1760,-0.135,1.155,-0.145,158.333,102.778,361.111,788.889,41.667,N
1761,-0.095,1.195,-0.085,133.333,116.667,372.222,894.444,105.556,N
1762,-0.070,1.235,-0.065,180.556,116.667,327.778,630.556,263.889,N
1763,-0.035,1.105,-0.035,41.667,83.333,377.778,594.444,36.111,N
1764,-0.035,1.160,-0.095,119.444,105.556,344.444,663.889,69.444,N
1765,-0.060,1.215,-0.095,161.111,108.333,325.000,608.333,55.556,N
1766,-0.090,1.105,-0.125,163.889,116.667,341.667,886.111,277.778,N
1767,-0.090,1.155,-0.075,127.778,116.667,391.667,683.333,202.778,N
1768,-0.080,1.155,-0.125,102.778,102.778,361.111,755.556,72.222,N
1769,-0.125,1.135,-0.165,130.556,113.889,358.333,761.111,5.556,N
1770,-0.185,1.025,-0.140,169.444,113.889,372.222,758.333,2.778,N
1771,-0.045,1.150,-0.140,94.444,83.333,375.000,688.889,69.444,N
1772,-0.105,1.080,-0.135,41.667,83.333,288.889,650.000,38.889,N
1773,-0.185,1.005,-0.280,133.333,116.667,322.222,691.667,41.667,N
1774,-0.110,1.005,-0.115,50.000,94.444,302.778,780.556,88.889,N
1775,-0.125,1.055,-0.195,55.556,97.222,336.111,758.333,22.222,N
1776,-0.135,1.010,-0.350,61.111,116.667,377.778,558.333,200.000,V
1777,-0.235,0.960,-0.095,61.111,105.556,366.667,766.667,208.333,N
1778,-0.070,0.975,-0.160,136.111,113.889,375.000,572.222,194.444,N
1779,-0.150,0.945,-0.210,197.222,94.444,325.000,644.444,72.222,N
1780,-0.160,0.910,-0.090,44.444,97.222,380.556,650.000,5.556,N
1781,-0.020,1.110,0.035,172.222,88.889,358.333,694.444,44.444,N
1782,0.035,-0.860,0.275,30.556,8.333,188.889,355.556,338.889,V
1783,-0.225,0.770,-0.235,41.667,91.667,311.111,627.778,272.222,N
1784,-0.185,0.895,-0.185,83.333,100.000,377.778,661.111,33.333,N
1785,-0.040,1.125,-0.075,50.000,97.222,355.556,719.444,58.333,N
1786,-0.135,1.015,-0.190,86.111,102.778,394.444,736.111,16.667,N
1787,-0.170,0.965,-0.160,175.000,86.111,325.000,672.222,63.889,N
1788,-0.140,1.050,-0.195,119.444,100.000,325.000,691.667,19.444,N
1789,-0.125,0.970,-0.090,72.222,102.778,394.444,705.556,13.889,N
1790,-0.070,1.050,-0.170,72.222,91.667,308.333,702.778,2.778,N
1791,-0.180,0.975,-0.250,66.667,100.000,288.889,711.111,8.333,N
1792,-0.230,0.955,-0.220,113.889,102.778,361.111,613.889,97.222,N
1793,-0.165,1.080,-0.130,133.333,116.667,358.333,619.444,5.556,N
1794,-0.160,1.030,-0.215,133.333,105.556,380.556,800.000,180.556,N
1795,-0.175,0.995,-0.240,75.000,88.889,383.333,911.111,111.111,N
1796,-0.235,0.985,-0.245,125.000,88.889,377.778,613.889,297.222,N
1797,-0.220,0.975,-0.180,125.000,102.778,358.333,602.778,11.111,N
1798,-0.195,1.050,0.015,111.111,94.444,341.667,586.111,16.667,N
1799,0.015,-1.000,0.170,30.556,8.333,186.111,336.111,250.000,V
1800,-0.260,0.890,-0.295,172.222,105.556,327.778,858.333,522.222,N
1801,-0.255,0.910,-0.285,50.000,97.222,386.111,594.444,263.889,N
1802,-0.250,0.905,-0.260,47.222,97.222,308.333,700.000,105.556,N
1803,-0.210,0.970,-0.230,44.444,97.222,327.778,730.556,30.556,N
1804,-0.160,0.970,-0.230,41.667,94.444,341.667,647.222,83.333,N
1805,-0.165,1.075,-0.175,88.889,94.444,386.111,827.778,180.556,N
1806,-0.160,0.975,-0.190,52.778,88.889,377.778,683.333,144.444,N
1807,-0.150,1.085,-0.170,113.889,97.222,386.111,597.222,86.111,N
1808,-0.155,1.045,-0.165,55.556,100.000,322.222,638.889,41.667,N
1809,-0.145,1.090,-0.165,136.111,88.889,294.444,700.000,61.111,N
1810,-0.150,1.085,-0.190,141.667,108.333,375.000,705.556,5.556,N
1811,-0.185,1.080,-0.170,136.111,113.889,372.222,627.778,77.778,N
1812,-0.140,1.035,-0.185,66.667,94.444,369.444,716.667,88.889,N
1813,-0.145,0.980,-0.185,191.667,102.778,325.000,688.889,27.778,N
1814,-0.110,1.055,-0.140,47.222,86.111,325.000,752.778,63.889,N
1815,-0.120,1.140,-0.145,130.556,116.667,358.333,705.556,47.222,N
1816,-0.120,1.055,-0.130,72.222,91.667,363.889,655.556,50.000,N
1817,-0.100,1.150,-0.105,102.778,116.667,372.222,583.333,72.222,N
1818,-0.060,1.160,-0.115,94.444,94.444,338.889,558.333,25.000,N
1819,0.115,-0.860,0.455,27.778,2.778,211.111,563.889,5.556,V
1820,-0.080,1.090,-0.110,50.000,105.556,358.333,980.556,416.667,N
1821,-0.110,0.705,-0.020,58.333,75.000,288.889,458.333,522.222,a
1822,-0.050,1.075,0.115,63.889,86.111,372.222,800.000,341.667,N
1823,0.115,-0.725,0.295,30.556,27.778,219.444,366.667,433.333,V
1824,-0.100,1.100,-0.075,150.000,113.889,375.000,702.778,336.111,N
1825,-0.065,1.155,-0.100,158.333,105.556,311.111,641.667,61.111,N
1826,-0.080,1.065,-0.090,63.889,116.667,388.889,611.111,30.556,N
1827,-0.040,1.120,-0.030,52.778,102.778,391.667,638.889,27.778,N
1828,-0.015,1.200,-0.030,138.889,91.667,302.778,700.000,61.111,N
1829,-0.020,1.185,-0.100,113.889,97.222,375.000,677.778,22.222,N
1830,-0.070,1.065,-0.050,169.444,94.444,333.333,686.111,8.333,N
1831,0.020,1.230,0.015,111.111,113.889,391.667,711.111,25.000,N
1832,0.000,1.265,-0.030,144.444,100.000,322.222,783.333,72.222,N
1833,-0.045,1.130,-0.050,94.444,97.222,361.111,816.667,33.333,N
1834,-0.005,1.205,0.005,116.667,100.000,358.333,741.667,75.000,N
1835,0.010,1.220,-0.030,155.556,111.111,333.333,619.444,122.222,N
1836,-0.060,1.145,-0.085,94.444,111.111,327.778,641.667,22.222,N
1837,-0.050,1.130,-0.015,183.333,116.667,372.222,741.667,100.000,N
1838,-0.075,1.140,-0.125,52.778,100.000,322.222,800.000,58.333,N
1839,-0.135,1.040,-0.140,72.222,105.556,361.111,752.778,47.222,N
1840,-0.090,1.115,-0.070,41.667,86.111,294.444,622.222,130.556,N
1841,-0.065,1.140,-0.095,136.111,113.889,355.556,694.444,72.222,N
1842,-0.110,0.985,-0.115,130.556,111.111,361.111,1144.444,450.000,N
1843,-0.050,1.115,-0.070,75.000,88.889,347.222,711.111,433.333,N
1844,-0.055,1.215,-0.100,150.000,116.667,325.000,608.333,102.778,N
1845,-0.090,1.095,-0.115,91.667,102.778,388.889,675.000,66.667,N
1846,-0.080,1.080,-0.085,47.222,97.222,338.889,675.000,0.000,N
1847,-0.025,1.190,-0.060,111.111,94.444,344.444,711.111,36.111,N
1848,-0.080,1.125,-0.125,94.444,97.222,377.778,752.778,41.667,N
1849,-0.125,1.110,-0.170,94.444,97.222,361.111,633.333,119.444,N
1850,-0.125,1.030,-0.135,80.556,97.222,361.111,719.444,86.111,N
1851,-0.090,1.145,-0.125,119.444,113.889,338.889,586.111,133.333,N
1852,-0.125,1.085,-0.145,91.667,102.778,388.889,711.111,125.000,N
1853,-0.120,1.095,-0.140,130.556,113.889,394.444,736.111,25.000,N
1854,-0.090,1.155,-0.085,41.667,83.333,308.333,816.667,80.556,N
1855,-0.090,1.100,-0.145,66.667,97.222,375.000,688.889,127.778,N
1856,-0.105,0.315,-0.135,58.333,111.111,319.444,541.667,147.222,V
1857,-0.135,1.075,-0.155,152.778,100.000,361.111,744.444,202.778,N
1858,-0.115,1.025,-0.200,63.889,97.222,308.333,661.111,83.333,N
1859,-0.130,1.125,-0.150,138.889,102.778,341.667,825.000,163.889,N
1860,-0.150,0.340,0.005,150.000,83.333,302.778,444.444,380.556,a
1861,0.005,-0.945,0.330,27.778,5.556,194.444,291.667,152.778,V
