id,Pamp,Ramp,Tamp,PR,QRS,QT,RRI,dRRI,label
1,-0.485,1.595,-0.370,188.889,72.222,383.333,1002.778,80.556,N
2,-0.460,1.295,-0.380,155.556,75.000,91.667,1161.111,158.333,N
3,-0.515,1.585,-0.430,180.556,80.556,375.000,966.667,194.444,N
4,-0.520,1.560,-0.395,158.333,72.222,391.667,972.222,5.556,N
5,-0.410,1.580,-0.190,147.222,69.444,391.667,1033.333,61.111,N
6,-0.280,1.600,-0.230,169.444,80.556,383.333,1016.667,16.667,N
7,-0.400,1.540,-0.340,186.111,83.333,400.000,947.222,69.444,N
8,-0.480,1.470,-0.340,172.222,80.556,383.333,919.444,27.778,N
9,-0.420,1.600,-0.105,186.111,80.556,405.556,1047.222,127.778,N
10,-0.120,1.645,-0.070,186.111,72.222,88.889,1038.889,8.333,N
11,-0.285,1.595,-0.315,186.111,80.556,369.444,930.556,108.333,N
12,-0.480,1.400,-0.410,172.222,83.333,388.889,988.889,58.333,N
13,-0.550,1.255,-0.470,186.111,83.333,405.556,944.444,44.444,N
14,-0.615,1.335,-0.560,186.111,77.778,402.778,905.556,38.889,N
15,-0.720,1.350,-0.590,166.667,75.000,391.667,877.778,27.778,N
16,-0.690,1.300,-0.535,191.667,75.000,386.111,933.333,55.556,N
17,-0.615,1.345,-0.470,166.667,72.222,386.111,1000.000,66.667,N
18,-0.510,1.425,-0.165,161.111,75.000,388.889,897.222,102.778,N
19,-0.215,1.785,-0.105,169.444,77.778,383.333,877.778,19.444,N
20,-0.295,1.405,-0.310,188.889,80.556,372.222,944.444,66.667,N
21,-0.475,1.415,-0.455,188.889,80.556,372.222,969.444,25.000,N
22,-0.550,1.435,-0.445,172.222,77.778,377.778,925.000,44.444,N
23,-0.390,1.535,-0.105,175.000,80.556,380.556,866.667,58.333,N
24,-0.225,1.650,-0.180,163.889,75.000,391.667,927.778,61.111,N
25,-0.350,1.415,-0.360,161.111,83.333,100.000,927.778,0.000,N
26,-0.530,1.230,-0.530,180.556,80.556,344.444,952.778,25.000,N
27,-0.600,1.330,-0.525,191.667,69.444,383.333,880.556,72.222,N
28,-0.645,1.430,-0.515,180.556,80.556,405.556,927.778,47.222,N
29,-0.635,1.200,-0.540,177.778,83.333,405.556,933.333,5.556,N
30,-0.630,1.210,-0.535,177.778,75.000,388.889,916.667,16.667,N
31,-0.585,1.255,-0.345,172.222,83.333,388.889,875.000,41.667,N
32,-0.345,1.535,-0.190,186.111,83.333,400.000,880.556,5.556,N
33,-0.370,1.595,-0.310,180.556,80.556,402.778,897.222,16.667,N
34,-0.485,1.500,-0.445,163.889,80.556,361.111,877.778,19.444,N
35,-0.610,1.305,-0.490,172.222,83.333,380.556,850.000,27.778,N
36,-0.620,1.405,-0.315,183.333,83.333,405.556,977.778,127.778,N
37,-0.215,1.710,-0.005,150.000,77.778,405.556,933.333,44.444,N
38,-0.185,1.620,-0.220,183.333,80.556,97.222,863.889,69.444,N
39,-0.545,1.330,-0.545,166.667,77.778,386.111,983.333,119.444,N
40,-0.735,1.100,-0.715,188.889,83.333,397.222,1061.111,77.778,N
41,-0.835,1.245,-0.745,191.667,72.222,383.333,941.667,119.444,N
42,-0.925,0.975,-0.860,158.333,83.333,369.444,1058.333,116.667,N
43,-0.940,1.000,-0.825,180.556,72.222,350.000,1138.889,80.556,N
44,-0.860,1.075,-0.705,169.444,80.556,352.778,1011.111,127.778,N
45,-0.750,1.415,-0.535,158.333,77.778,366.667,983.333,27.778,N
46,-0.510,1.450,-0.160,169.444,77.778,383.333,1047.222,63.889,N
47,-0.040,1.650,0.035,177.778,83.333,350.000,1044.444,2.778,N
48,-0.165,1.770,-0.155,166.667,72.222,383.333,986.111,58.333,N
49,-0.380,1.465,-0.375,166.667,83.333,100.000,1002.778,16.667,N
50,-0.560,1.355,-0.550,175.000,80.556,352.778,1044.444,41.667,N
51,-0.695,1.245,-0.545,188.889,66.667,347.222,986.111,58.333,N
52,-0.600,1.385,-0.450,155.556,80.556,400.000,961.111,25.000,N
53,-0.585,1.245,-0.490,163.889,72.222,383.333,977.778,16.667,N
54,-0.630,1.215,-0.590,180.556,80.556,377.778,977.778,0.000,N
55,-0.690,0.930,-0.615,180.556,83.333,377.778,872.222,105.556,N
56,-0.715,0.885,-0.565,175.000,77.778,380.556,891.667,19.444,N
57,-0.620,1.085,-0.405,169.444,83.333,394.444,933.333,41.667,N
58,-0.445,1.205,-0.345,172.222,80.556,383.333,933.333,0.000,N
59,-0.475,1.220,-0.390,177.778,77.778,386.111,833.333,100.000,N
60,-0.565,1.340,-0.435,180.556,83.333,394.444,869.444,36.111,N
61,-0.590,1.165,-0.495,191.667,69.444,388.889,955.556,86.111,N
62,-0.600,1.335,-0.545,194.444,77.778,386.111,936.111,19.444,N
63,-0.665,1.320,-0.550,161.111,83.333,391.667,972.222,36.111,N
64,-0.710,1.050,-0.575,158.333,80.556,394.444,997.222,25.000,N
65,-0.665,1.080,-0.550,172.222,80.556,380.556,947.222,50.000,N
66,-0.640,1.210,-0.450,161.111,80.556,391.667,894.444,52.778,N
67,-0.530,1.275,-0.425,180.556,83.333,397.222,919.444,25.000,N
68,-0.520,1.265,-0.485,191.667,75.000,388.889,1011.111,91.667,N
69,-0.575,1.280,-0.495,180.556,83.333,383.333,913.889,97.222,N
70,-0.535,1.420,-0.380,188.889,80.556,402.778,977.778,63.889,N
71,-0.445,1.290,-0.365,177.778,80.556,380.556,1022.222,44.444,N
72,-0.400,1.350,-0.340,183.333,83.333,377.778,1038.889,16.667,N
73,-0.395,1.580,-0.020,161.111,69.444,388.889,980.556,58.333,N
74,0.275,2.095,0.460,166.667,72.222,386.111,1005.556,25.000,N
75,0.275,1.805,0.235,188.889,72.222,91.667,997.222,8.333,N
76,-0.090,1.485,-0.215,194.444,69.444,88.889,933.333,63.889,N
77,-0.405,1.325,-0.415,191.667,77.778,388.889,872.222,61.111,N
78,-0.635,1.205,-0.595,191.667,75.000,380.556,905.556,33.333,N
79,-0.775,1.080,-0.675,177.778,77.778,377.778,908.333,2.778,N
80,-0.770,1.050,-0.660,197.222,69.444,380.556,886.111,22.222,N
81,-0.780,1.140,-0.625,183.333,77.778,400.000,861.111,25.000,N
82,-0.715,1.070,-0.595,180.556,83.333,380.556,891.667,30.556,N
83,-0.675,1.295,-0.600,194.444,69.444,347.222,1019.444,127.778,N
84,-0.650,1.295,-0.560,188.889,80.556,369.444,888.889,130.556,N
85,-0.635,1.395,-0.430,169.444,77.778,386.111,916.667,27.778,N
86,-0.555,1.395,-0.410,180.556,77.778,372.222,972.222,55.556,N
87,-0.470,1.390,-0.345,188.889,77.778,400.000,947.222,25.000,N
88,-0.445,1.485,-0.305,194.444,83.333,375.000,933.333,13.889,N
89,-0.405,1.495,-0.295,186.111,83.333,363.889,975.000,41.667,N
90,-0.410,1.415,-0.335,172.222,75.000,352.778,1069.444,94.444,N
91,-0.380,1.580,-0.305,180.556,80.556,377.778,952.778,116.667,N
92,-0.400,1.610,-0.235,191.667,72.222,391.667,950.000,2.778,N
93,-0.335,1.570,-0.210,183.333,69.444,388.889,961.111,11.111,N
94,-0.300,1.545,-0.225,177.778,77.778,369.444,966.667,5.556,N
95,-0.325,1.510,-0.215,188.889,80.556,394.444,905.556,61.111,N
96,-0.105,1.865,0.305,166.667,80.556,391.667,944.444,38.889,N
97,0.220,1.975,0.195,183.333,83.333,383.333,972.222,27.778,N
98,-0.055,1.570,-0.120,177.778,80.556,100.000,969.444,2.778,N
99,-0.410,1.290,-0.475,191.667,80.556,100.000,883.333,86.111,N
100,-0.675,1.090,-0.580,183.333,80.556,372.222,1025.000,141.667,N
101,-0.725,1.050,-0.620,175.000,77.778,383.333,958.333,66.667,N
102,-0.720,1.155,-0.580,166.667,80.556,383.333,900.000,58.333,N
103,-0.705,1.010,-0.600,188.889,72.222,394.444,1019.444,119.444,N
104,-0.500,1.140,-0.190,166.667,75.000,350.000,1041.667,22.222,N
105,-0.180,1.385,-0.140,172.222,77.778,94.444,877.778,163.889,N
106,-0.415,1.245,-0.450,180.556,83.333,372.222,908.333,30.556,N
107,-0.570,1.200,-0.440,177.778,83.333,386.111,1061.111,152.778,N
108,-0.500,1.205,-0.465,186.111,80.556,366.667,1047.222,13.889,N
109,-0.585,1.195,-0.575,186.111,75.000,366.667,900.000,147.222,N
110,-0.705,1.145,-0.610,172.222,80.556,383.333,1022.222,122.222,N
111,-0.655,1.085,-0.535,175.000,83.333,386.111,1097.222,75.000,N
112,-0.605,1.275,-0.535,177.778,77.778,344.444,938.889,158.333,N
113,-0.595,1.285,-0.465,183.333,77.778,375.000,938.889,0.000,N
114,-0.570,1.375,-0.360,186.111,66.667,386.111,1008.333,69.444,N
115,-0.120,1.645,0.080,169.444,75.000,347.222,1016.667,8.333,N
116,-0.005,1.675,0.090,152.778,77.778,358.333,888.889,127.778,N
117,-0.075,1.510,-0.070,186.111,80.556,100.000,927.778,38.889,N
118,-0.390,1.275,-0.450,183.333,80.556,100.000,994.444,66.667,N
119,-0.655,1.015,-0.635,161.111,80.556,388.889,913.889,80.556,N
120,-0.755,1.045,-0.645,175.000,77.778,388.889,841.667,72.222,N
121,-0.795,1.075,-0.615,177.778,77.778,400.000,883.333,41.667,N
122,-0.755,1.030,-0.605,194.444,80.556,397.222,955.556,72.222,N
123,-0.505,1.290,-0.155,166.667,83.333,383.333,902.778,52.778,N
124,-0.270,1.355,-0.210,155.556,69.444,383.333,886.111,16.667,N
125,-0.500,1.050,-0.530,191.667,66.667,383.333,966.667,80.556,N
126,-0.740,0.785,-0.705,177.778,83.333,380.556,986.111,19.444,N
127,-0.855,0.900,-0.760,172.222,72.222,380.556,894.444,91.667,N
128,-0.925,0.735,-0.830,186.111,80.556,397.222,955.556,61.111,N
129,-0.905,0.720,-0.775,180.556,83.333,383.333,1022.222,66.667,N
130,-0.800,1.230,-0.610,169.444,80.556,377.778,930.556,91.667,N
131,-0.525,1.355,-0.075,175.000,83.333,405.556,933.333,2.778,N
132,-0.125,1.645,-0.115,180.556,77.778,383.333,1066.667,133.333,N
133,-0.305,1.520,-0.330,183.333,80.556,375.000,1008.333,58.333,N
134,-0.500,1.600,-0.475,188.889,69.444,355.556,880.556,127.778,N
135,-0.620,1.370,-0.505,186.111,77.778,394.444,863.889,16.667,N
136,-0.660,1.410,-0.445,169.444,77.778,400.000,916.667,52.778,N
137,-0.485,1.575,-0.360,166.667,80.556,383.333,866.667,50.000,N
138,-0.575,1.540,-0.445,183.333,80.556,402.778,875.000,8.333,N
139,-0.640,1.425,-0.455,191.667,75.000,388.889,916.667,41.667,N
140,-0.580,1.425,-0.545,191.667,75.000,352.778,938.889,22.222,N
141,-0.665,1.390,-0.605,197.222,83.333,375.000,916.667,22.222,N
142,-0.695,1.565,-0.505,186.111,80.556,405.556,966.667,50.000,N
143,-0.610,1.525,-0.455,172.222,72.222,386.111,983.333,16.667,N
144,-0.520,1.465,-0.420,177.778,80.556,372.222,919.444,63.889,N
145,-0.515,1.650,-0.360,183.333,80.556,388.889,894.444,25.000,N
146,-0.370,1.895,-0.075,172.222,80.556,386.111,1027.778,133.333,N
147,-0.170,1.700,-0.125,172.222,69.444,88.889,991.667,36.111,N
148,-0.435,1.610,-0.460,194.444,77.778,383.333,911.111,80.556,N
149,-0.660,1.235,-0.580,161.111,66.667,377.778,958.333,47.222,N
150,-0.685,1.330,-0.560,152.778,83.333,375.000,1025.000,66.667,N
151,-0.570,1.620,-0.410,188.889,80.556,361.111,911.111,113.889,N
152,-0.485,1.810,-0.255,191.667,75.000,394.444,863.889,47.222,N
153,-0.385,1.660,-0.250,161.111,83.333,383.333,919.444,55.556,N
154,-0.305,1.765,-0.215,191.667,77.778,366.667,911.111,8.333,N
155,-0.315,1.640,-0.300,158.333,69.444,352.778,836.111,75.000,N
156,-0.435,1.650,-0.310,183.333,86.111,405.556,861.111,25.000,N
157,-0.455,1.705,-0.335,180.556,77.778,402.778,927.778,66.667,N
158,-0.400,1.645,-0.250,155.556,80.556,366.667,911.111,16.667,N
159,-0.330,1.835,-0.215,186.111,80.556,405.556,863.889,47.222,N
160,-0.300,1.835,-0.090,186.111,75.000,391.667,916.667,52.778,N
161,-0.210,1.735,-0.115,177.778,83.333,383.333,1108.333,191.667,N
162,-0.250,1.640,-0.220,186.111,75.000,363.889,983.333,125.000,N
163,-0.370,1.660,-0.255,186.111,80.556,402.778,927.778,55.556,N
164,-0.455,1.475,-0.400,183.333,80.556,100.000,1027.778,100.000,N
165,-0.500,1.610,-0.395,175.000,77.778,347.222,963.889,63.889,N
166,-0.495,1.705,-0.310,183.333,77.778,391.667,855.556,108.333,N
167,-0.425,1.585,-0.200,147.222,83.333,377.778,952.778,97.222,N
168,-0.060,1.915,-0.020,188.889,83.333,102.778,1108.333,155.556,N
169,-0.200,1.585,-0.235,180.556,83.333,100.000,958.333,150.000,N
170,-0.490,1.470,-0.410,169.444,69.444,383.333,947.222,11.111,N
171,-0.455,1.550,-0.250,194.444,83.333,388.889,1008.333,61.111,N
172,-0.370,1.650,-0.355,186.111,80.556,383.333,980.556,27.778,N
173,-0.505,1.460,-0.470,177.778,80.556,383.333,858.333,122.222,N
174,-0.595,1.590,-0.445,177.778,80.556,383.333,938.889,80.556,N
175,-0.590,1.355,-0.400,197.222,77.778,377.778,966.667,27.778,N
176,-0.435,1.565,-0.345,172.222,75.000,344.444,963.889,2.778,N
177,-0.470,1.665,-0.185,183.333,83.333,380.556,875.000,88.889,N
178,-0.295,1.630,-0.280,166.667,83.333,386.111,927.778,52.778,N
179,-0.535,1.600,-0.535,191.667,75.000,386.111,1027.778,100.000,N
180,-0.650,1.460,-0.570,186.111,69.444,391.667,925.000,102.778,N
181,-0.665,1.510,-0.495,163.889,69.444,380.556,841.667,83.333,N
182,-0.560,1.470,-0.390,175.000,83.333,405.556,983.333,141.667,N
183,-0.120,2.025,0.060,166.667,77.778,383.333,1058.333,75.000,N
184,-0.115,1.915,-0.170,186.111,77.778,97.222,922.222,136.111,N
185,-0.475,1.720,-0.470,175.000,80.556,391.667,950.000,27.778,N
186,-0.615,1.435,-0.555,188.889,75.000,391.667,1050.000,100.000,N
187,-0.570,1.555,-0.465,188.889,77.778,366.667,997.222,52.778,N
188,-0.470,1.650,-0.130,186.111,83.333,402.778,869.444,127.778,N
189,-0.185,1.715,-0.115,188.889,83.333,377.778,861.111,8.333,N
190,-0.325,1.600,-0.355,191.667,72.222,391.667,875.000,13.889,N
191,-0.520,1.500,-0.470,191.667,77.778,394.444,875.000,0.000,N
192,-0.600,1.350,-0.455,188.889,69.444,388.889,827.778,47.222,N
193,-0.590,1.510,-0.440,169.444,80.556,383.333,880.556,52.778,N
194,-0.525,1.615,-0.365,194.444,72.222,386.111,961.111,80.556,N
195,-0.505,1.670,-0.395,166.667,75.000,386.111,905.556,55.556,N
196,-0.505,1.730,-0.315,194.444,83.333,397.222,930.556,25.000,N
197,-0.455,1.525,-0.370,158.333,75.000,358.333,1197.222,266.667,N
198,-0.445,1.685,-0.360,183.333,80.556,366.667,1030.556,166.667,N
199,-0.495,1.520,-0.360,152.778,80.556,394.444,1033.333,2.778,N
200,-0.515,1.355,-0.460,180.556,83.333,375.000,1058.333,25.000,N
201,-0.535,1.530,-0.440,175.000,83.333,386.111,1061.111,2.778,N
202,-0.525,1.740,-0.385,166.667,77.778,386.111,994.444,66.667,N
203,-0.500,1.505,-0.440,177.778,83.333,380.556,1041.667,47.222,N
204,-0.485,1.505,-0.405,169.444,77.778,358.333,1027.778,13.889,N
205,-0.460,1.655,-0.375,180.556,66.667,361.111,983.333,44.444,N
206,-0.425,1.760,-0.305,158.333,77.778,400.000,1038.889,55.556,N
207,-0.395,1.750,-0.320,175.000,80.556,375.000,1027.778,11.111,N
208,-0.415,1.710,-0.350,166.667,75.000,377.778,1025.000,2.778,N
209,-0.420,1.800,-0.125,183.333,80.556,380.556,975.000,50.000,N
210,-0.085,1.695,0.010,183.333,83.333,100.000,994.444,19.444,N
211,-0.245,1.555,-0.245,183.333,80.556,97.222,1011.111,16.667,N
212,-0.445,1.600,-0.385,175.000,80.556,347.222,958.333,52.778,N
213,-0.520,1.650,-0.455,177.778,80.556,100.000,980.556,22.222,N
214,-0.625,1.425,-0.625,175.000,80.556,100.000,991.667,11.111,N
215,-0.615,1.465,-0.525,188.889,80.556,369.444,1008.333,16.667,N
216,-0.565,1.420,-0.470,183.333,83.333,377.778,927.778,80.556,N
217,-0.570,1.655,-0.455,152.778,80.556,375.000,936.111,8.333,N
218,-0.540,1.540,-0.505,188.889,83.333,372.222,1011.111,75.000,N
219,-0.570,1.475,-0.450,188.889,75.000,358.333,1002.778,8.333,N
220,-0.490,1.480,-0.365,194.444,80.556,375.000,922.222,80.556,N
221,-0.365,1.525,-0.170,158.333,75.000,391.667,944.444,22.222,N
222,-0.295,1.695,-0.290,180.556,83.333,102.778,1022.222,77.778,N
223,-0.495,1.485,-0.500,163.889,80.556,391.667,983.333,38.889,N
224,-0.605,1.570,-0.490,188.889,80.556,397.222,897.222,86.111,N
225,-0.610,1.590,-0.485,186.111,80.556,405.556,894.444,2.778,N
226,-0.575,1.470,-0.450,169.444,80.556,358.333,916.667,22.222,N
227,-0.535,1.640,-0.430,197.222,72.222,386.111,866.667,50.000,N
228,-0.545,1.650,-0.365,188.889,80.556,386.111,877.778,11.111,N
229,-0.505,1.470,-0.355,186.111,83.333,405.556,872.222,5.556,N
230,-0.495,1.560,-0.380,180.556,80.556,380.556,900.000,27.778,N
231,-0.480,1.590,-0.335,197.222,75.000,394.444,875.000,25.000,N
232,-0.415,1.785,-0.215,172.222,77.778,383.333,950.000,75.000,N
233,-0.415,1.700,-0.305,191.667,69.444,388.889,991.667,41.667,N
234,-0.500,1.530,-0.335,175.000,83.333,383.333,980.556,11.111,N
235,-0.225,1.890,0.100,161.111,72.222,380.556,891.667,88.889,N
236,-0.095,1.780,-0.070,188.889,69.444,86.111,933.333,41.667,N
237,-0.375,1.275,-0.400,183.333,80.556,97.222,886.111,47.222,N
238,-0.610,1.400,-0.570,186.111,69.444,388.889,847.222,38.889,N
239,-0.715,1.350,-0.580,175.000,83.333,383.333,877.778,30.556,N
240,-0.700,1.375,-0.510,188.889,83.333,405.556,880.556,2.778,N
241,-0.680,1.255,-0.500,188.889,77.778,386.111,825.000,55.556,N
242,-0.700,1.275,-0.555,197.222,83.333,386.111,830.556,5.556,N
243,-0.730,1.360,-0.620,194.444,80.556,402.778,877.778,47.222,N
244,-0.710,1.275,-0.430,186.111,83.333,405.556,833.333,44.444,N
245,-0.600,1.365,-0.335,155.556,83.333,405.556,805.556,27.778,N
246,-0.540,1.645,-0.295,158.333,77.778,400.000,836.111,30.556,N
247,-0.490,1.710,-0.330,191.667,66.667,391.667,866.667,30.556,N
248,-0.510,1.520,-0.305,177.778,83.333,394.444,852.778,13.889,N
249,-0.490,1.725,-0.310,158.333,75.000,397.222,952.778,100.000,N
250,-0.430,1.665,-0.275,188.889,83.333,405.556,997.222,44.444,N
251,-0.425,1.775,-0.275,186.111,80.556,405.556,961.111,36.111,N
252,-0.415,1.530,-0.295,194.444,72.222,383.333,1047.222,86.111,N
253,-0.420,1.420,-0.305,169.444,77.778,386.111,1005.556,41.667,N
254,-0.445,1.510,-0.365,166.667,80.556,394.444,930.556,75.000,N
255,-0.490,1.645,-0.375,175.000,80.556,377.778,977.778,47.222,N
256,-0.470,1.550,-0.340,183.333,80.556,405.556,905.556,72.222,N
257,-0.425,1.555,-0.285,161.111,72.222,391.667,847.222,58.333,N
258,-0.390,1.570,-0.235,183.333,83.333,400.000,830.556,16.667,N
259,-0.340,1.675,-0.185,183.333,80.556,405.556,891.667,61.111,N
260,-0.315,1.745,-0.175,172.222,80.556,394.444,991.667,100.000,N
261,-0.270,1.665,-0.175,155.556,83.333,402.778,958.333,33.333,N
262,-0.260,1.875,-0.170,188.889,77.778,400.000,961.111,2.778,N
263,-0.295,1.665,-0.240,175.000,80.556,97.222,1094.444,133.333,N
264,-0.360,1.625,-0.260,169.444,69.444,86.111,1113.889,19.444,N
265,-0.390,1.710,-0.310,177.778,80.556,350.000,1016.667,97.222,N
266,-0.425,1.705,-0.290,163.889,75.000,380.556,1025.000,8.333,N
267,-0.415,1.690,-0.320,183.333,75.000,91.667,1058.333,33.333,N
268,-0.470,1.540,-0.390,175.000,75.000,344.444,986.111,72.222,N
269,-0.490,1.665,-0.360,172.222,80.556,383.333,900.000,86.111,N
270,-0.440,1.590,-0.300,175.000,80.556,369.444,1011.111,111.111,N
271,-0.375,1.740,-0.255,158.333,69.444,388.889,1038.889,27.778,N
272,-0.325,1.790,-0.245,191.667,77.778,355.556,944.444,94.444,N
273,-0.370,1.650,-0.270,183.333,83.333,383.333,880.556,63.889,N
274,-0.385,1.760,-0.290,186.111,80.556,375.000,1005.556,125.000,N
275,-0.355,1.635,-0.250,183.333,83.333,375.000,997.222,8.333,N
276,-0.295,1.455,-0.135,191.667,77.778,380.556,888.889,108.333,N
277,-0.245,1.835,-0.115,197.222,77.778,394.444,925.000,36.111,N
278,-0.280,1.675,-0.180,191.667,72.222,391.667,963.889,38.889,N
279,-0.325,1.675,-0.275,188.889,80.556,369.444,897.222,66.667,N
280,-0.380,1.730,-0.280,191.667,72.222,350.000,847.222,50.000,N
281,-0.435,1.740,-0.300,188.889,77.778,380.556,947.222,100.000,N
282,-0.400,1.680,-0.280,169.444,77.778,94.444,1025.000,77.778,N
283,-0.340,1.615,-0.285,183.333,83.333,405.556,913.889,111.111,N
284,-0.355,1.560,-0.235,183.333,83.333,405.556,1000.000,86.111,N
285,-0.355,1.565,-0.275,183.333,83.333,375.000,1038.889,38.889,N
286,-0.415,1.620,-0.300,155.556,75.000,355.556,877.778,161.111,N
287,-0.400,1.700,-0.170,155.556,80.556,405.556,861.111,16.667,N
288,-0.020,2.015,0.320,158.333,80.556,402.778,930.556,69.444,N
289,0.250,1.960,0.210,197.222,72.222,380.556,911.111,19.444,N
290,-0.055,1.580,-0.100,177.778,83.333,100.000,855.556,55.556,N
291,-0.395,1.565,-0.350,166.667,77.778,94.444,886.111,30.556,N
292,-0.580,1.315,-0.505,194.444,77.778,386.111,930.556,44.444,N
293,-0.690,1.295,-0.560,161.111,72.222,380.556,900.000,30.556,N
294,-0.700,1.350,-0.520,169.444,80.556,383.333,972.222,72.222,N
295,-0.655,1.450,-0.515,191.667,80.556,355.556,1094.444,122.222,N
296,-0.620,1.410,-0.485,191.667,80.556,347.222,986.111,108.333,N
297,-0.610,1.555,-0.315,166.667,75.000,388.889,919.444,66.667,N
298,-0.425,1.730,-0.305,172.222,66.667,350.000,994.444,75.000,N
299,-0.450,1.520,-0.380,180.556,83.333,375.000,1055.556,61.111,N
300,-0.515,1.720,-0.400,166.667,77.778,347.222,958.333,97.222,N
301,-0.490,1.455,-0.345,180.556,83.333,405.556,941.667,16.667,N
302,-0.495,1.435,-0.365,175.000,80.556,386.111,994.444,52.778,N
303,-0.465,1.570,-0.350,166.667,83.333,386.111,930.556,63.889,N
304,-0.480,1.595,-0.305,191.667,83.333,402.778,880.556,50.000,N
305,-0.410,1.880,0.090,158.333,77.778,400.000,944.444,63.889,N
306,0.130,1.930,0.250,155.556,69.444,86.111,1066.667,122.222,N
307,-0.075,1.675,-0.105,191.667,66.667,86.111,1063.889,2.778,N
308,-0.455,1.600,-0.430,188.889,75.000,388.889,972.222,91.667,N
309,-0.625,1.380,-0.550,180.556,83.333,383.333,952.778,19.444,N
310,-0.685,1.275,-0.520,175.000,80.556,372.222,938.889,13.889,N
311,-0.615,1.300,-0.495,183.333,83.333,405.556,869.444,69.444,N
312,-0.610,1.420,-0.380,163.889,80.556,388.889,880.556,11.111,N
313,-0.550,1.470,-0.390,183.333,83.333,400.000,855.556,25.000,N
314,-0.545,1.460,-0.450,194.444,83.333,397.222,933.333,77.778,N
315,-0.530,1.645,-0.410,194.444,75.000,391.667,911.111,22.222,N
316,-0.520,1.735,-0.320,191.667,80.556,400.000,922.222,11.111,N
317,-0.490,1.720,-0.330,175.000,66.667,388.889,1008.333,86.111,N
318,-0.435,1.685,-0.340,180.556,80.556,377.778,1027.778,19.444,N
319,-0.450,1.810,-0.310,191.667,77.778,402.778,936.111,91.667,N
320,-0.540,1.555,-0.395,163.889,63.889,380.556,1008.333,72.222,N
321,-0.560,1.475,-0.430,175.000,77.778,383.333,1075.000,66.667,N
322,-0.450,1.640,-0.305,188.889,77.778,388.889,1027.778,47.222,N
323,-0.370,1.755,-0.185,188.889,83.333,405.556,925.000,102.778,N
324,-0.300,1.900,-0.145,172.222,83.333,388.889,986.111,61.111,N
325,-0.265,1.960,-0.170,177.778,80.556,350.000,1075.000,88.889,N
326,-0.225,1.770,-0.155,183.333,83.333,377.778,972.222,102.778,N
327,-0.285,1.920,-0.110,172.222,80.556,405.556,900.000,72.222,N
328,-0.255,1.915,-0.140,163.889,66.667,83.333,944.444,44.444,N
329,-0.285,1.860,-0.235,180.556,75.000,94.444,986.111,41.667,N
330,-0.320,1.775,-0.240,186.111,66.667,358.333,908.333,77.778,N
331,-0.340,1.735,-0.185,177.778,83.333,388.889,888.889,19.444,N
332,-0.225,1.925,0.055,155.556,80.556,402.778,947.222,58.333,N
333,-0.030,1.865,0.015,186.111,80.556,100.000,930.556,16.667,N
334,-0.225,1.890,-0.220,169.444,80.556,388.889,888.889,41.667,N
335,-0.400,1.775,-0.275,163.889,77.778,386.111,927.778,38.889,N
336,-0.465,1.515,-0.415,172.222,80.556,380.556,944.444,16.667,N
337,-0.585,1.530,-0.545,191.667,77.778,372.222,905.556,38.889,N
338,-0.690,1.355,-0.505,188.889,80.556,400.000,911.111,5.556,N
339,-0.635,1.460,-0.490,169.444,72.222,386.111,1008.333,97.222,N
340,-0.535,1.530,-0.430,163.889,75.000,355.556,1033.333,25.000,N
341,-0.490,1.635,-0.370,191.667,77.778,386.111,905.556,127.778,N
342,-0.475,1.710,-0.295,188.889,83.333,386.111,941.667,36.111,N
343,-0.385,1.825,-0.280,180.556,80.556,380.556,1066.667,125.000,N
344,-0.335,1.810,-0.190,186.111,77.778,372.222,908.333,158.333,N
345,-0.315,1.975,-0.115,163.889,80.556,394.444,913.889,5.556,N
346,-0.250,2.010,-0.130,183.333,80.556,377.778,950.000,36.111,N
347,-0.235,1.895,-0.140,158.333,77.778,94.444,980.556,30.556,N
348,-0.250,1.845,-0.145,180.556,80.556,375.000,891.667,88.889,N
349,-0.295,1.830,-0.145,163.889,72.222,383.333,919.444,27.778,N
350,-0.310,1.955,-0.195,161.111,75.000,391.667,963.889,44.444,N
351,-0.360,1.805,-0.260,161.111,80.556,363.889,994.444,30.556,N
352,-0.350,1.745,-0.220,166.667,75.000,383.333,877.778,116.667,N
353,-0.350,1.735,-0.180,172.222,77.778,380.556,969.444,91.667,N
354,-0.345,1.890,-0.215,172.222,72.222,386.111,991.667,22.222,N
355,-0.345,1.845,-0.210,180.556,77.778,375.000,886.111,105.556,N
356,-0.375,1.775,-0.200,158.333,72.222,394.444,852.778,33.333,N
357,-0.360,1.715,-0.240,188.889,69.444,383.333,930.556,77.778,N
358,-0.360,1.820,-0.265,183.333,83.333,375.000,980.556,50.000,N
359,-0.370,1.595,-0.245,155.556,63.889,350.000,886.111,94.444,N
360,-0.375,1.810,-0.210,188.889,83.333,402.778,894.444,8.333,N
361,-0.360,1.790,-0.290,180.556,80.556,405.556,1066.667,172.222,N
362,-0.380,1.630,-0.315,161.111,72.222,358.333,1041.667,25.000,N
363,-0.425,1.670,-0.315,194.444,83.333,386.111,911.111,130.556,N
364,-0.450,1.570,-0.345,186.111,80.556,377.778,947.222,36.111,N
365,-0.470,1.650,-0.380,191.667,72.222,383.333,950.000,2.778,N
366,-0.450,1.400,-0.335,186.111,80.556,405.556,919.444,30.556,N
367,-0.410,1.565,-0.300,183.333,75.000,372.222,836.111,83.333,N
368,-0.420,1.660,-0.235,191.667,83.333,405.556,930.556,94.444,N
369,-0.370,1.690,-0.280,183.333,80.556,97.222,1102.778,172.222,N
370,-0.390,1.610,-0.290,169.444,72.222,88.889,950.000,152.778,N
371,-0.415,1.750,-0.265,147.222,80.556,402.778,880.556,69.444,N
372,-0.425,1.635,-0.295,183.333,80.556,383.333,963.889,83.333,N
373,-0.335,1.500,-0.165,155.556,80.556,397.222,1016.667,52.778,N
374,-0.265,1.715,-0.190,161.111,72.222,352.778,872.222,144.444,N
375,-0.370,1.715,-0.120,188.889,83.333,405.556,880.556,8.333,N
376,-0.140,1.840,-0.055,177.778,80.556,388.889,966.667,86.111,N
377,-0.235,1.380,-0.240,177.778,63.889,83.333,947.222,19.444,N
378,-0.490,1.455,-0.500,166.667,80.556,388.889,852.778,94.444,N
379,-0.670,1.350,-0.550,161.111,77.778,394.444,886.111,33.333,N
380,-0.695,1.070,-0.565,191.667,83.333,402.778,958.333,72.222,N
381,-0.680,1.370,-0.580,172.222,77.778,388.889,888.889,69.444,N
382,-0.700,1.320,-0.535,180.556,83.333,383.333,838.889,50.000,N
383,-0.595,1.365,-0.390,172.222,83.333,386.111,900.000,61.111,N
384,-0.505,1.365,-0.435,161.111,72.222,380.556,955.556,55.556,N
385,-0.560,1.310,-0.515,163.889,72.222,352.778,900.000,55.556,N
386,-0.655,1.445,-0.540,188.889,77.778,375.000,852.778,47.222,N
387,-0.665,1.410,-0.565,194.444,77.778,388.889,919.444,66.667,N
388,-0.690,1.330,-0.605,183.333,80.556,388.889,1038.889,119.444,N
389,-0.680,1.385,-0.570,166.667,77.778,350.000,1000.000,38.889,N
390,-0.635,1.495,-0.450,172.222,83.333,377.778,908.333,91.667,N
391,-0.510,1.550,-0.395,177.778,75.000,375.000,1072.222,163.889,N
392,-0.445,1.420,-0.370,172.222,83.333,383.333,1025.000,47.222,N
393,-0.440,1.430,-0.355,155.556,77.778,366.667,913.889,111.111,N
394,-0.445,1.465,-0.295,158.333,75.000,388.889,944.444,30.556,N
395,-0.375,1.720,-0.265,186.111,80.556,402.778,1025.000,80.556,N
396,-0.370,1.625,-0.265,163.889,72.222,386.111,913.889,111.111,N
397,-0.395,1.540,-0.270,166.667,75.000,383.333,833.333,80.556,N
398,-0.420,1.680,-0.280,172.222,80.556,380.556,911.111,77.778,N
399,-0.415,1.630,-0.310,163.889,80.556,391.667,988.889,77.778,N
400,-0.390,1.535,-0.330,177.778,80.556,380.556,880.556,108.333,N
401,-0.450,1.705,-0.265,191.667,80.556,402.778,869.444,11.111,N
402,-0.435,1.565,-0.325,183.333,83.333,402.778,1000.000,130.556,N
403,-0.410,1.525,-0.315,175.000,77.778,350.000,1061.111,61.111,N
404,-0.405,1.470,-0.250,188.889,80.556,402.778,916.667,144.444,N
405,-0.350,1.560,-0.240,183.333,80.556,405.556,963.889,47.222,N
406,-0.435,1.460,-0.345,172.222,72.222,383.333,1111.111,147.222,N
407,-0.475,1.455,-0.420,180.556,80.556,375.000,955.556,155.556,N
408,-0.560,1.540,-0.415,180.556,80.556,405.556,869.444,86.111,N
409,-0.570,1.635,-0.440,166.667,77.778,386.111,986.111,116.667,N
410,-0.435,1.670,-0.130,161.111,83.333,386.111,1066.667,80.556,N
411,-0.185,1.765,-0.100,188.889,75.000,352.778,927.778,138.889,N
412,-0.260,1.620,-0.170,177.778,72.222,377.778,844.444,83.333,N
413,-0.340,1.755,-0.280,186.111,75.000,394.444,983.333,138.889,N
414,-0.465,1.670,-0.370,183.333,80.556,386.111,1022.222,38.889,N
415,-0.515,1.570,-0.430,191.667,83.333,369.444,991.667,30.556,N
416,-0.535,1.665,-0.345,177.778,77.778,383.333,938.889,52.778,N
417,-0.490,1.745,-0.355,177.778,80.556,394.444,1030.556,91.667,N
418,-0.435,1.625,-0.350,177.778,80.556,380.556,1105.556,75.000,N
419,-0.400,1.845,-0.025,180.556,80.556,402.778,980.556,125.000,N
420,0.010,1.870,0.190,180.556,83.333,405.556,894.444,86.111,N
421,-0.010,1.760,0.005,175.000,80.556,100.000,997.222,102.778,N
422,-0.270,1.665,-0.295,172.222,77.778,94.444,961.111,36.111,N
423,-0.480,1.505,-0.445,188.889,80.556,372.222,883.333,77.778,N
424,-0.600,1.440,-0.450,188.889,80.556,402.778,858.333,25.000,N
425,-0.605,1.295,-0.480,175.000,80.556,386.111,933.333,75.000,N
426,-0.590,1.360,-0.460,197.222,77.778,386.111,958.333,25.000,N
427,-0.580,1.280,-0.475,172.222,80.556,377.778,875.000,83.333,N
428,-0.590,1.535,-0.400,172.222,80.556,388.889,897.222,22.222,N
429,-0.495,1.630,-0.255,186.111,77.778,400.000,983.333,86.111,N
430,-0.315,1.805,-0.260,180.556,83.333,100.000,1050.000,66.667,N
431,-0.405,1.650,-0.340,172.222,80.556,375.000,941.667,108.333,N
432,-0.500,1.565,-0.410,177.778,83.333,383.333,1036.111,94.444,N
433,-0.510,1.670,-0.400,172.222,77.778,377.778,1066.667,30.556,N
434,-0.495,1.375,-0.410,166.667,80.556,358.333,922.222,144.444,N
435,-0.530,1.430,-0.365,166.667,80.556,383.333,872.222,50.000,N
436,-0.510,1.785,-0.395,155.556,77.778,391.667,897.222,25.000,N
437,-0.480,1.495,-0.405,177.778,77.778,94.444,911.111,13.889,N
438,-0.490,1.510,-0.410,152.778,66.667,361.111,850.000,61.111,N
439,-0.500,1.840,-0.325,175.000,80.556,386.111,880.556,30.556,N
440,-0.460,1.685,-0.185,188.889,66.667,377.778,925.000,44.444,N
441,-0.095,1.845,0.060,177.778,80.556,377.778,952.778,27.778,N
442,-0.120,1.815,-0.105,186.111,80.556,97.222,855.556,97.222,N
443,-0.360,1.695,-0.320,191.667,77.778,380.556,866.667,11.111,N
444,-0.490,1.550,-0.425,194.444,75.000,388.889,925.000,58.333,N
445,-0.545,1.600,-0.495,194.444,80.556,400.000,938.889,13.889,N
446,-0.595,1.575,-0.510,177.778,77.778,380.556,844.444,94.444,N
447,-0.590,1.600,-0.435,180.556,80.556,405.556,938.889,94.444,N
448,-0.555,1.600,-0.490,186.111,83.333,372.222,1036.111,97.222,N
449,-0.575,1.470,-0.505,177.778,80.556,347.222,997.222,38.889,N
450,-0.590,1.635,-0.460,161.111,72.222,386.111,919.444,77.778,N
451,-0.540,1.655,-0.315,188.889,77.778,383.333,938.889,19.444,N
452,-0.395,1.610,-0.340,183.333,75.000,394.444,925.000,13.889,N
453,-0.495,1.290,-0.485,180.556,80.556,100.000,858.333,66.667,N
454,-0.645,1.440,-0.475,180.556,80.556,402.778,836.111,22.222,N
455,-0.630,1.410,-0.455,188.889,75.000,388.889,911.111,75.000,N
456,-0.560,1.690,-0.435,186.111,80.556,388.889,986.111,75.000,N
457,-0.510,1.590,-0.380,163.889,80.556,358.333,888.889,97.222,N
458,-0.505,1.745,-0.310,180.556,80.556,405.556,847.222,41.667,N
459,-0.495,1.755,-0.335,186.111,77.778,397.222,908.333,61.111,N
460,-0.460,1.710,-0.325,180.556,80.556,405.556,861.111,47.222,N
461,-0.475,1.620,-0.355,169.444,77.778,380.556,819.444,41.667,N
462,-0.525,1.630,-0.410,177.778,72.222,386.111,836.111,16.667,N
463,-0.595,1.420,-0.425,180.556,83.333,405.556,977.778,141.667,N
464,-0.550,1.565,-0.435,186.111,83.333,375.000,972.222,5.556,N
465,-0.525,1.535,-0.310,177.778,80.556,402.778,897.222,75.000,N
466,-0.455,1.820,-0.310,175.000,80.556,383.333,1088.889,191.667,N
467,-0.385,1.580,-0.325,191.667,66.667,352.778,1088.889,0.000,N
468,-0.390,1.930,-0.235,172.222,77.778,380.556,919.444,169.444,N
469,-0.375,1.710,-0.220,186.111,80.556,400.000,941.667,22.222,N
470,-0.345,1.615,-0.245,172.222,83.333,380.556,994.444,52.778,N
471,-0.410,1.580,-0.365,194.444,80.556,388.889,925.000,69.444,N
472,-0.520,1.735,-0.450,186.111,80.556,377.778,877.778,47.222,N
473,-0.610,1.610,-0.450,188.889,77.778,366.667,883.333,5.556,N
474,-0.570,1.660,-0.435,191.667,80.556,397.222,936.111,52.778,N
475,-0.560,1.640,-0.445,197.222,75.000,377.778,911.111,25.000,N
476,-0.615,1.615,-0.430,177.778,80.556,383.333,836.111,75.000,N
477,-0.535,1.555,-0.305,186.111,66.667,386.111,847.222,11.111,N
478,-0.390,1.635,-0.230,186.111,83.333,402.778,927.778,80.556,N
479,-0.375,1.785,-0.240,172.222,77.778,380.556,863.889,63.889,N
480,-0.420,1.670,-0.270,177.778,77.778,375.000,866.667,2.778,N
481,-0.395,1.850,-0.190,191.667,72.222,388.889,916.667,50.000,N
482,-0.290,1.750,-0.105,188.889,80.556,394.444,1036.111,119.444,N
483,-0.165,1.760,-0.075,183.333,83.333,344.444,986.111,50.000,N
484,-0.280,1.650,-0.190,177.778,83.333,372.222,875.000,111.111,N
485,-0.390,1.510,-0.260,177.778,80.556,405.556,894.444,19.444,N
486,-0.380,1.685,-0.260,175.000,75.000,386.111,925.000,30.556,N
487,-0.400,1.655,-0.365,186.111,83.333,372.222,877.778,47.222,N
488,-0.505,1.520,-0.260,155.556,69.444,388.889,844.444,33.333,N
489,-0.420,1.685,-0.225,175.000,80.556,380.556,819.444,25.000,N
490,-0.370,1.450,-0.310,186.111,83.333,375.000,805.556,13.889,N
491,-0.520,1.630,-0.350,186.111,83.333,400.000,833.333,27.778,N
492,-0.530,1.710,-0.305,172.222,75.000,386.111,855.556,22.222,N
493,-0.525,1.480,-0.305,175.000,83.333,397.222,841.667,13.889,N
494,-0.525,1.565,-0.310,175.000,75.000,383.333,858.333,16.667,N
495,-0.545,1.590,-0.285,172.222,80.556,388.889,838.889,19.444,N
496,-0.470,1.710,-0.295,177.778,75.000,383.333,1230.556,391.667,N
497,-0.415,1.610,-0.275,158.333,75.000,91.667,1158.333,72.222,N
498,-0.500,1.410,-0.340,169.444,80.556,386.111,1013.889,144.444,N
499,-0.535,1.650,-0.270,155.556,66.667,388.889,1016.667,2.778,N
500,-0.485,1.500,-0.305,158.333,63.889,383.333,1038.889,22.222,N
501,-0.415,1.400,-0.325,180.556,83.333,383.333,1052.778,13.889,N
502,-0.455,1.640,-0.345,177.778,77.778,388.889,997.222,55.556,N
503,-0.475,1.685,-0.310,155.556,80.556,400.000,1047.222,50.000,N
504,-0.430,1.650,-0.270,186.111,72.222,394.444,1038.889,8.333,N
505,-0.300,1.705,-0.090,169.444,83.333,391.667,1013.889,25.000,N
506,-0.225,1.715,-0.105,158.333,72.222,383.333,988.889,25.000,N
507,-0.315,1.685,-0.265,194.444,77.778,383.333,1011.111,22.222,N
508,-0.400,1.350,-0.315,155.556,77.778,94.444,988.889,22.222,N
509,-0.490,1.520,-0.410,186.111,80.556,375.000,894.444,94.444,N
510,-0.500,1.630,-0.340,186.111,69.444,391.667,936.111,41.667,N
511,-0.470,1.555,-0.355,180.556,66.667,86.111,1069.444,133.333,N
512,-0.500,1.530,-0.410,194.444,75.000,383.333,977.778,91.667,N
513,-0.525,1.655,-0.400,180.556,80.556,377.778,911.111,66.667,N
514,-0.535,1.420,-0.455,169.444,75.000,386.111,1025.000,113.889,N
515,-0.525,1.615,-0.450,188.889,72.222,352.778,1025.000,0.000,N
516,-0.525,1.420,-0.435,191.667,75.000,361.111,902.778,122.222,N
517,-0.525,1.650,-0.365,191.667,80.556,394.444,897.222,5.556,N
518,-0.500,1.600,-0.365,158.333,75.000,391.667,972.222,75.000,N
519,-0.445,1.670,-0.340,180.556,80.556,377.778,983.333,11.111,N
520,-0.440,1.630,-0.380,197.222,77.778,355.556,961.111,22.222,N
521,-0.495,1.635,-0.345,175.000,80.556,380.556,875.000,86.111,N
522,-0.440,1.665,-0.275,158.333,75.000,400.000,977.778,102.778,N
523,-0.365,1.620,-0.250,175.000,83.333,100.000,1030.556,52.778,N
524,-0.360,1.560,-0.290,166.667,80.556,380.556,1052.778,22.222,N
525,-0.365,1.635,-0.255,172.222,80.556,383.333,900.000,152.778,N
526,-0.380,1.620,-0.150,177.778,69.444,377.778,897.222,2.778,N
527,-0.225,1.780,-0.125,191.667,75.000,388.889,930.556,33.333,N
528,-0.150,1.845,0.065,166.667,75.000,386.111,936.111,5.556,N
529,0.050,1.640,0.095,169.444,83.333,380.556,844.444,91.667,N
530,-0.080,1.795,-0.060,180.556,83.333,100.000,875.000,30.556,N
531,-0.305,1.670,-0.320,191.667,83.333,102.778,969.444,94.444,N
532,-0.495,1.430,-0.515,197.222,80.556,380.556,988.889,19.444,N
533,-0.645,1.230,-0.550,188.889,75.000,361.111,886.111,102.778,N
534,-0.660,1.450,-0.520,161.111,75.000,394.444,933.333,47.222,N
535,-0.585,1.305,-0.465,183.333,83.333,400.000,1036.111,102.778,N
536,-0.645,1.480,-0.595,180.556,77.778,350.000,986.111,50.000,N
537,-0.705,1.470,-0.535,166.667,77.778,383.333,855.556,130.556,N
538,-0.640,1.395,-0.480,186.111,83.333,405.556,950.000,94.444,N
539,-0.545,1.610,-0.490,180.556,75.000,94.444,1047.222,97.222,N
540,-0.510,1.620,-0.370,188.889,69.444,350.000,933.333,113.889,N
541,-0.450,1.815,-0.295,175.000,80.556,383.333,880.556,52.778,N
542,-0.445,1.525,-0.265,175.000,83.333,388.889,930.556,50.000,N
543,-0.380,1.580,-0.380,191.667,77.778,369.444,925.000,5.556,N
544,-0.520,1.580,-0.385,180.556,83.333,380.556,850.000,75.000,N
545,-0.505,1.730,-0.280,186.111,80.556,380.556,872.222,22.222,N
546,-0.390,1.740,-0.155,191.667,75.000,388.889,911.111,38.889,N
547,-0.340,1.805,-0.250,186.111,83.333,375.000,891.667,19.444,N
548,-0.405,1.850,-0.210,188.889,80.556,383.333,863.889,27.778,N
549,-0.390,1.725,-0.185,191.667,83.333,405.556,905.556,41.667,N
550,-0.345,1.840,-0.150,188.889,80.556,405.556,969.444,63.889,N
551,-0.235,1.810,-0.050,188.889,80.556,402.778,969.444,0.000,N
552,-0.230,1.885,-0.075,186.111,77.778,375.000,894.444,75.000,N
553,-0.315,1.675,-0.180,172.222,63.889,386.111,977.778,83.333,N
554,-0.305,1.685,-0.305,175.000,86.111,105.556,1119.444,141.667,N
555,-0.480,1.720,-0.365,177.778,83.333,386.111,997.222,122.222,N
556,-0.480,1.760,-0.300,177.778,77.778,402.778,975.000,22.222,N
557,-0.445,1.540,-0.240,183.333,83.333,405.556,975.000,0.000,N
558,-0.445,1.605,-0.335,188.889,83.333,383.333,955.556,19.444,N
559,-0.450,1.645,-0.300,186.111,83.333,402.778,877.778,77.778,N
560,-0.510,1.725,-0.410,186.111,83.333,402.778,933.333,55.556,N
561,-0.670,1.535,-0.575,169.444,77.778,388.889,983.333,50.000,N
562,-0.770,1.430,-0.620,194.444,75.000,391.667,925.000,58.333,N
563,-0.740,1.565,-0.460,163.889,80.556,386.111,911.111,13.889,N
564,-0.560,1.650,-0.350,186.111,77.778,400.000,916.667,5.556,N
565,-0.440,1.745,-0.320,183.333,80.556,405.556,997.222,80.556,N
566,-0.285,1.955,-0.030,163.889,77.778,394.444,950.000,47.222,N
567,-0.130,1.955,0.070,175.000,72.222,383.333,975.000,25.000,N
568,-0.075,1.980,-0.005,183.333,80.556,97.222,988.889,13.889,N
569,-0.255,1.425,-0.260,175.000,83.333,372.222,952.778,36.111,N
570,-0.420,1.720,-0.305,191.667,80.556,405.556,905.556,47.222,N
571,-0.455,1.775,-0.340,183.333,80.556,400.000,938.889,33.333,N
572,-0.420,1.495,-0.320,177.778,83.333,380.556,925.000,13.889,N
573,-0.500,1.385,-0.460,186.111,83.333,375.000,908.333,16.667,N
574,-0.590,1.580,-0.450,163.889,77.778,388.889,877.778,30.556,N
575,-0.565,1.730,-0.385,177.778,80.556,380.556,883.333,5.556,N
576,-0.410,1.800,-0.035,180.556,83.333,383.333,930.556,47.222,N
577,-0.120,1.645,-0.080,183.333,77.778,97.222,905.556,25.000,N
578,-0.285,1.715,-0.265,186.111,80.556,372.222,872.222,33.333,N
579,-0.485,1.515,-0.420,180.556,83.333,405.556,933.333,61.111,N
580,-0.570,1.570,-0.450,177.778,83.333,383.333,963.889,30.556,N
581,-0.655,1.565,-0.550,172.222,83.333,383.333,994.444,30.556,N
582,-0.670,1.485,-0.490,180.556,75.000,380.556,902.778,91.667,N
583,-0.620,1.455,-0.410,155.556,69.444,388.889,950.000,47.222,N
584,-0.415,1.605,-0.320,183.333,83.333,380.556,1019.444,69.444,N
585,-0.445,1.625,-0.385,197.222,72.222,350.000,925.000,94.444,N
586,-0.525,1.745,-0.350,188.889,69.444,386.111,894.444,30.556,N
587,-0.475,1.780,-0.280,172.222,80.556,383.333,916.667,22.222,N
588,-0.420,1.630,-0.315,186.111,80.556,405.556,875.000,41.667,N
589,-0.415,1.760,-0.235,197.222,75.000,380.556,877.778,2.778,N
590,-0.375,1.795,-0.135,188.889,77.778,400.000,930.556,52.778,N
591,-0.260,1.670,-0.220,186.111,77.778,94.444,994.444,63.889,N
592,-0.385,1.810,-0.320,183.333,80.556,372.222,936.111,58.333,N
593,-0.440,1.705,-0.230,188.889,69.444,386.111,944.444,8.333,N
594,-0.095,2.035,0.405,175.000,77.778,380.556,1050.000,105.556,N
595,0.355,1.975,0.385,183.333,66.667,83.333,941.667,108.333,N
596,0.040,1.765,-0.020,166.667,75.000,380.556,883.333,58.333,N
597,-0.305,1.545,-0.320,180.556,77.778,97.222,938.889,55.556,N
598,-0.510,1.365,-0.510,169.444,80.556,100.000,961.111,22.222,N
599,-0.775,1.285,-0.750,194.444,75.000,386.111,930.556,30.556,N
600,-0.865,1.190,-0.695,191.667,83.333,394.444,897.222,33.333,N
601,-0.745,1.410,-0.480,197.222,72.222,383.333,969.444,72.222,N
602,-0.555,1.260,-0.545,180.556,80.556,358.333,975.000,5.556,N
603,-0.640,1.375,-0.575,158.333,75.000,361.111,861.111,113.889,N
604,-0.680,1.380,-0.515,175.000,83.333,405.556,913.889,52.778,N
605,-0.595,1.560,-0.395,166.667,80.556,383.333,930.556,16.667,N
606,-0.545,1.450,-0.490,191.667,69.444,355.556,886.111,44.444,N
607,-0.620,1.555,-0.490,177.778,80.556,377.778,858.333,27.778,N
608,-0.585,1.450,-0.415,194.444,77.778,386.111,916.667,58.333,N
609,-0.505,1.445,-0.220,163.889,77.778,383.333,1036.111,119.444,N
610,-0.320,1.465,-0.210,186.111,77.778,377.778,911.111,125.000,N
611,-0.390,1.670,-0.315,163.889,69.444,380.556,855.556,55.556,N
612,-0.265,1.890,0.170,158.333,75.000,394.444,1033.333,177.778,N
613,0.095,1.735,0.125,175.000,83.333,100.000,1047.222,13.889,N
614,-0.195,1.515,-0.190,186.111,72.222,88.889,911.111,136.111,N
615,-0.435,1.555,-0.350,175.000,83.333,383.333,886.111,25.000,N
616,-0.520,1.585,-0.285,186.111,83.333,405.556,977.778,91.667,N
617,-0.210,1.645,-0.095,175.000,80.556,386.111,958.333,19.444,N
618,-0.230,1.475,-0.220,177.778,80.556,97.222,869.444,88.889,N
619,-0.470,1.505,-0.400,197.222,80.556,388.889,894.444,25.000,N
620,-0.555,1.365,-0.485,158.333,75.000,386.111,930.556,36.111,N
621,-0.650,1.230,-0.625,180.556,69.444,88.889,891.667,38.889,N
622,-0.805,1.300,-0.735,183.333,77.778,366.667,836.111,55.556,N
623,-0.825,1.125,-0.565,180.556,80.556,405.556,858.333,22.222,N
624,-0.655,1.505,-0.475,188.889,83.333,380.556,930.556,72.222,N
625,-0.580,1.485,-0.400,191.667,77.778,397.222,911.111,19.444,N
626,-0.445,1.545,-0.355,180.556,80.556,372.222,827.778,83.333,N
627,-0.565,1.580,-0.480,169.444,69.444,375.000,886.111,58.333,N
628,-0.655,1.375,-0.550,180.556,75.000,388.889,969.444,83.333,N
629,-0.740,1.230,-0.615,150.000,69.444,352.778,886.111,83.333,N
630,-0.705,1.370,-0.495,177.778,80.556,400.000,833.333,52.778,N
631,-0.595,1.435,-0.300,158.333,72.222,394.444,866.667,33.333,N
632,-0.345,1.765,-0.250,188.889,77.778,391.667,908.333,41.667,N
633,-0.395,1.515,-0.310,186.111,75.000,361.111,866.667,41.667,N
634,-0.440,1.870,-0.270,186.111,77.778,366.667,827.778,38.889,N
635,-0.350,1.825,-0.020,194.444,75.000,388.889,844.444,16.667,N
636,-0.140,1.805,-0.050,180.556,72.222,91.667,1022.222,177.778,N
637,-0.245,1.710,-0.250,186.111,75.000,91.667,897.222,125.000,N
638,-0.405,1.725,-0.275,180.556,80.556,402.778,836.111,61.111,N
639,-0.435,1.690,-0.205,175.000,77.778,400.000,905.556,69.444,N
640,-0.295,1.740,-0.040,183.333,80.556,405.556,925.000,19.444,N
641,-0.035,1.975,0.115,158.333,72.222,350.000,883.333,41.667,N
642,-0.090,1.825,-0.050,180.556,75.000,94.444,827.778,55.556,N
643,-0.380,1.675,-0.310,172.222,80.556,380.556,886.111,58.333,N
644,-0.500,1.450,-0.435,183.333,80.556,405.556,1008.333,122.222,N
645,-0.640,1.445,-0.645,180.556,58.333,319.444,933.333,75.000,N
646,-0.805,1.365,-0.565,158.333,66.667,386.111,844.444,88.889,N
647,-0.625,1.565,-0.370,175.000,77.778,402.778,888.889,44.444,N
648,-0.465,1.545,-0.405,175.000,80.556,97.222,961.111,72.222,N
649,-0.575,1.265,-0.455,180.556,80.556,380.556,866.667,94.444,N
650,-0.630,1.530,-0.440,175.000,80.556,380.556,836.111,30.556,N
651,-0.615,1.415,-0.325,188.889,83.333,405.556,944.444,108.333,N
652,-0.360,1.700,-0.260,161.111,75.000,91.667,1011.111,66.667,N
653,-0.435,1.625,-0.380,183.333,72.222,344.444,877.778,133.333,N
654,-0.570,1.445,-0.335,172.222,80.556,402.778,836.111,41.667,N
655,-0.215,1.910,0.430,158.333,80.556,397.222,888.889,52.778,N
656,0.295,2.015,0.265,186.111,77.778,97.222,1063.889,175.000,N
657,-0.145,1.785,-0.195,188.889,77.778,97.222,938.889,125.000,N
658,-0.475,1.615,-0.335,172.222,72.222,394.444,966.667,27.778,N
659,-0.440,1.570,-0.380,188.889,72.222,386.111,1063.889,97.222,N
660,-0.555,1.550,-0.485,194.444,75.000,388.889,969.444,94.444,N
661,-0.635,1.355,-0.470,177.778,83.333,383.333,847.222,122.222,N
662,-0.605,1.650,-0.360,169.444,75.000,377.778,961.111,113.889,N
663,-0.435,1.670,-0.300,186.111,77.778,400.000,986.111,25.000,N
664,-0.455,1.425,-0.395,191.667,75.000,388.889,911.111,75.000,N
665,-0.530,1.595,-0.320,186.111,66.667,352.778,861.111,50.000,N
666,-0.430,1.755,-0.275,191.667,77.778,394.444,902.778,41.667,N
667,-0.460,1.380,-0.380,180.556,83.333,405.556,991.667,88.889,N
668,-0.595,1.405,-0.500,191.667,83.333,358.333,886.111,105.556,N
669,-0.665,1.330,-0.470,188.889,83.333,372.222,850.000,36.111,N
670,-0.590,1.630,-0.375,169.444,80.556,388.889,888.889,38.889,N
671,-0.505,1.655,-0.435,197.222,80.556,383.333,866.667,22.222,N
672,-0.590,1.420,-0.500,191.667,72.222,355.556,852.778,13.889,N
673,-0.645,1.485,-0.395,180.556,86.111,377.778,858.333,5.556,N
674,-0.580,1.525,-0.510,186.111,77.778,377.778,927.778,69.444,N
675,-0.645,1.390,-0.555,194.444,83.333,405.556,877.778,50.000,N
676,-0.685,1.475,-0.445,161.111,77.778,391.667,875.000,2.778,N
677,-0.510,1.665,-0.215,163.889,72.222,388.889,838.889,36.111,N
678,-0.375,1.620,-0.260,191.667,77.778,375.000,813.889,25.000,N
679,-0.460,1.685,-0.310,186.111,80.556,405.556,811.111,2.778,N
680,-0.420,1.570,-0.185,191.667,75.000,391.667,905.556,94.444,N
681,-0.290,1.695,-0.185,172.222,80.556,383.333,916.667,11.111,N
682,-0.300,1.800,-0.265,183.333,80.556,380.556,836.111,80.556,N
683,-0.390,1.710,-0.195,186.111,83.333,405.556,844.444,8.333,N
684,-0.390,1.470,-0.285,186.111,72.222,391.667,936.111,91.667,N
685,-0.435,1.415,-0.420,172.222,77.778,94.444,880.556,55.556,N
686,-0.580,1.585,-0.465,177.778,77.778,383.333,838.889,41.667,N
687,-0.505,1.775,0.065,163.889,80.556,386.111,897.222,58.333,N
688,0.000,1.940,-0.005,175.000,83.333,102.778,972.222,75.000,N
689,-0.380,1.265,-0.430,177.778,80.556,97.222,908.333,63.889,N
690,-0.730,1.400,-0.635,155.556,72.222,391.667,844.444,63.889,N
691,-0.790,1.395,-0.540,166.667,80.556,380.556,916.667,72.222,N
692,-0.650,1.445,-0.525,163.889,72.222,352.778,1022.222,105.556,N
693,-0.700,1.380,-0.580,177.778,80.556,350.000,916.667,105.556,N
694,-0.670,1.550,-0.330,191.667,72.222,380.556,850.000,66.667,N
695,-0.325,1.740,-0.085,186.111,83.333,383.333,986.111,136.111,N
696,-0.285,1.640,-0.325,166.667,77.778,97.222,1025.000,38.889,N
697,-0.545,1.530,-0.500,191.667,77.778,344.444,913.889,111.111,N
698,-0.645,1.525,-0.440,183.333,80.556,386.111,858.333,55.556,N
699,-0.500,1.550,-0.300,194.444,69.444,388.889,986.111,127.778,N
700,-0.215,1.850,-0.105,191.667,80.556,369.444,961.111,25.000,N
701,-0.255,1.775,-0.220,177.778,80.556,347.222,858.333,102.778,N
702,-0.455,1.665,-0.360,191.667,75.000,380.556,894.444,36.111,N
703,-0.385,1.465,-0.090,186.111,80.556,405.556,975.000,80.556,N
704,-0.240,1.585,-0.265,186.111,77.778,97.222,938.889,36.111,N
705,-0.530,1.615,-0.465,180.556,77.778,352.778,855.556,83.333,N
706,-0.640,1.520,-0.395,191.667,77.778,386.111,900.000,44.444,N
707,-0.495,1.345,-0.385,191.667,69.444,386.111,988.889,88.889,N
708,-0.535,1.195,-0.390,188.889,80.556,377.778,888.889,100.000,N
709,-0.450,1.480,-0.245,152.778,80.556,400.000,844.444,44.444,N
710,-0.340,1.480,-0.005,169.444,69.444,377.778,911.111,66.667,N
711,-0.155,1.720,-0.130,188.889,80.556,100.000,966.667,55.556,N
712,-0.465,1.455,-0.505,163.889,77.778,355.556,902.778,63.889,N
713,-0.670,1.395,-0.515,177.778,80.556,386.111,838.889,63.889,N
714,-0.610,1.625,-0.445,163.889,83.333,402.778,869.444,30.556,N
715,-0.590,1.445,-0.495,169.444,83.333,380.556,1002.778,133.333,N
716,-0.615,1.245,-0.475,186.111,77.778,341.667,902.778,100.000,N
717,-0.475,1.640,-0.260,158.333,72.222,383.333,850.000,52.778,N
718,-0.395,1.435,-0.300,177.778,83.333,369.444,925.000,75.000,N
719,-0.455,1.410,-0.425,169.444,75.000,388.889,913.889,11.111,N
720,-0.665,1.195,-0.640,155.556,66.667,350.000,861.111,52.778,N
721,-0.790,1.355,-0.620,177.778,80.556,375.000,822.222,38.889,N
722,-0.695,1.395,-0.385,161.111,83.333,397.222,877.778,55.556,N
723,-0.435,1.455,-0.265,186.111,83.333,405.556,958.333,80.556,N
724,-0.375,1.635,-0.355,183.333,80.556,375.000,872.222,86.111,N
725,-0.505,1.635,-0.330,158.333,69.444,380.556,811.111,61.111,N
726,-0.390,1.715,-0.180,180.556,80.556,405.556,886.111,75.000,N
727,-0.295,1.665,-0.160,180.556,83.333,377.778,863.889,22.222,N
728,-0.325,1.695,-0.310,180.556,80.556,355.556,863.889,0.000,N
729,-0.520,1.475,-0.170,180.556,83.333,388.889,797.222,66.667,N
730,-0.130,1.825,0.160,166.667,80.556,391.667,866.667,69.444,N
731,-0.040,1.755,-0.060,166.667,80.556,394.444,900.000,33.333,N
732,-0.315,1.610,-0.380,191.667,66.667,86.111,852.778,47.222,N
733,-0.635,1.325,-0.475,191.667,83.333,375.000,825.000,27.778,N
734,-0.610,1.515,-0.445,166.667,75.000,380.556,891.667,66.667,N
735,-0.570,1.470,-0.450,191.667,66.667,383.333,955.556,63.889,N
736,-0.580,1.290,-0.455,188.889,83.333,383.333,886.111,69.444,N
737,-0.590,1.470,-0.425,191.667,75.000,388.889,852.778,33.333,N
738,-0.515,1.445,-0.380,180.556,83.333,383.333,950.000,97.222,N
739,-0.435,1.360,-0.380,186.111,80.556,369.444,1008.333,58.333,N
740,-0.520,1.570,-0.415,188.889,80.556,375.000,897.222,111.111,N
741,-0.510,1.625,-0.175,183.333,80.556,405.556,933.333,36.111,N
742,-0.185,1.755,-0.005,158.333,72.222,397.222,944.444,11.111,N
743,-0.215,1.680,-0.245,191.667,75.000,94.444,947.222,2.778,N
744,-0.505,1.435,-0.465,152.778,80.556,369.444,880.556,66.667,N
745,-0.520,1.535,-0.175,155.556,83.333,400.000,872.222,8.333,N
746,-0.340,1.600,-0.270,183.333,83.333,388.889,986.111,113.889,N
747,-0.445,1.640,-0.450,180.556,77.778,344.444,1002.778,16.667,N
748,-0.625,1.430,-0.485,180.556,80.556,372.222,875.000,127.778,N
749,-0.560,1.650,-0.370,183.333,77.778,375.000,1025.000,150.000,N
750,-0.435,1.625,-0.380,194.444,72.222,388.889,1058.333,33.333,N
751,-0.535,1.565,-0.455,188.889,75.000,361.111,930.556,127.778,N
752,-0.550,1.400,-0.250,186.111,80.556,383.333,886.111,44.444,N
753,-0.355,1.660,-0.025,183.333,83.333,402.778,900.000,13.889,N
754,0.025,1.865,0.065,197.222,72.222,380.556,986.111,86.111,N
755,-0.155,1.825,-0.155,166.667,77.778,383.333,875.000,111.111,N
756,-0.440,1.590,-0.285,188.889,75.000,391.667,925.000,50.000,N
757,-0.480,1.660,-0.140,158.333,83.333,405.556,1127.778,202.778,N
758,-0.015,1.960,0.140,163.889,66.667,83.333,1072.222,55.556,N
759,-0.265,1.630,-0.295,152.778,66.667,388.889,933.333,138.889,N
760,-0.540,1.515,-0.415,180.556,77.778,377.778,947.222,13.889,N
761,-0.595,1.530,-0.485,188.889,80.556,397.222,1019.444,72.222,N
762,-0.625,1.250,-0.540,177.778,83.333,386.111,886.111,133.333,N
763,-0.770,1.440,-0.525,161.111,66.667,380.556,850.000,36.111,N
764,-0.645,1.620,-0.335,163.889,72.222,383.333,872.222,22.222,N
765,-0.385,1.630,-0.145,183.333,83.333,405.556,883.333,11.111,N
766,-0.320,1.805,-0.355,191.667,80.556,372.222,869.444,13.889,N
767,-0.520,1.535,-0.315,183.333,80.556,405.556,902.778,33.333,N
768,-0.540,1.720,-0.360,186.111,75.000,383.333,919.444,16.667,N
769,-0.540,1.525,-0.390,180.556,83.333,383.333,911.111,8.333,N
770,-0.535,1.670,-0.425,194.444,80.556,400.000,905.556,5.556,N
771,-0.535,1.810,-0.020,150.000,80.556,405.556,966.667,61.111,N
772,0.125,2.105,0.195,180.556,80.556,347.222,1091.667,125.000,N
773,-0.130,1.775,-0.210,186.111,83.333,102.778,972.222,119.444,N
774,-0.630,1.375,-0.515,191.667,80.556,377.778,933.333,38.889,N
775,-0.665,1.295,-0.500,183.333,83.333,402.778,902.778,30.556,N
776,-0.595,1.410,-0.480,186.111,80.556,405.556,872.222,30.556,N
777,-0.610,1.510,-0.525,188.889,80.556,377.778,866.667,5.556,N
778,-0.640,1.550,-0.325,161.111,80.556,400.000,877.778,11.111,N
779,-0.465,1.670,-0.260,186.111,77.778,402.778,858.333,19.444,N
780,-0.420,1.635,-0.300,194.444,77.778,366.667,872.222,13.889,N
781,-0.400,1.560,-0.350,186.111,83.333,380.556,825.000,47.222,N
782,-0.500,1.775,-0.160,172.222,77.778,402.778,866.667,41.667,N
783,-0.365,1.720,-0.175,161.111,75.000,388.889,913.889,47.222,N
784,-0.355,1.615,-0.240,180.556,83.333,405.556,886.111,27.778,N
785,-0.425,1.680,-0.245,194.444,75.000,380.556,858.333,27.778,N
786,-0.370,1.720,-0.220,180.556,77.778,380.556,875.000,16.667,N
787,-0.465,1.510,-0.365,155.556,66.667,377.778,850.000,25.000,N
788,-0.560,1.545,-0.450,183.333,80.556,377.778,819.444,30.556,N
789,-0.640,1.530,-0.345,175.000,72.222,388.889,813.889,5.556,N
790,-0.435,1.700,-0.225,186.111,77.778,402.778,891.667,77.778,N
791,-0.410,1.610,-0.355,186.111,77.778,97.222,972.222,80.556,N
792,-0.580,1.405,-0.430,186.111,77.778,400.000,872.222,100.000,N
793,-0.535,1.790,-0.260,191.667,77.778,388.889,972.222,100.000,N
794,-0.405,1.720,-0.335,183.333,83.333,383.333,1186.111,213.889,N
795,-0.475,1.670,-0.380,180.556,83.333,375.000,1000.000,186.111,N
796,-0.485,1.760,-0.195,186.111,83.333,400.000,975.000,25.000,N
797,-0.340,1.720,-0.210,180.556,83.333,383.333,1025.000,50.000,N
798,-0.405,1.735,-0.205,183.333,72.222,355.556,983.333,41.667,N
799,-0.255,1.855,-0.020,177.778,75.000,377.778,880.556,102.778,N
800,-0.205,1.860,-0.115,166.667,77.778,397.222,927.778,47.222,N
801,-0.145,1.765,0.080,177.778,80.556,383.333,1011.111,83.333,N
802,-0.165,1.655,-0.170,188.889,75.000,91.667,922.222,88.889,N
803,-0.525,1.460,-0.475,183.333,80.556,405.556,850.000,72.222,N
804,-0.665,1.455,-0.485,183.333,83.333,388.889,958.333,108.333,N
805,-0.520,1.280,-0.410,186.111,80.556,402.778,1080.556,122.222,N
806,-0.580,1.210,-0.585,188.889,69.444,88.889,975.000,105.556,N
807,-0.765,1.150,-0.615,180.556,83.333,380.556,886.111,88.889,N
808,-0.705,1.400,-0.445,194.444,80.556,377.778,969.444,83.333,N
809,-0.560,1.575,-0.420,186.111,80.556,386.111,1025.000,55.556,N
810,-0.520,1.470,-0.390,188.889,77.778,355.556,927.778,97.222,N
811,-0.500,1.400,-0.390,188.889,83.333,366.667,891.667,36.111,N
812,-0.500,1.670,-0.340,163.889,75.000,383.333,947.222,55.556,N
813,-0.325,1.785,-0.120,177.778,72.222,350.000,1030.556,83.333,N
814,-0.290,1.475,-0.250,175.000,77.778,94.444,908.333,122.222,N
815,-0.615,1.335,-0.545,188.889,72.222,386.111,888.889,19.444,N
816,-0.535,1.495,-0.280,188.889,72.222,388.889,966.667,77.778,N
817,-0.395,1.500,-0.355,188.889,66.667,83.333,966.667,0.000,N
818,-0.620,1.155,-0.645,180.556,61.111,350.000,861.111,105.556,N
819,-0.770,1.260,-0.510,177.778,77.778,394.444,938.889,77.778,N
820,-0.585,1.615,-0.430,188.889,72.222,394.444,1002.778,63.889,N
821,-0.420,1.585,-0.275,177.778,83.333,358.333,947.222,55.556,N
822,-0.420,1.565,-0.375,180.556,83.333,377.778,875.000,72.222,N
823,-0.505,1.610,-0.265,197.222,77.778,391.667,922.222,47.222,N
824,-0.410,1.605,-0.345,191.667,72.222,383.333,966.667,44.444,N
825,-0.430,1.370,-0.340,175.000,80.556,380.556,844.444,122.222,N
826,-0.440,1.610,-0.240,188.889,77.778,397.222,813.889,30.556,N
827,-0.265,1.565,-0.125,186.111,69.444,386.111,836.111,22.222,N
828,-0.320,1.640,-0.310,197.222,75.000,386.111,880.556,44.444,N
829,-0.525,1.445,-0.490,172.222,72.222,383.333,830.556,50.000,N
830,-0.665,1.270,-0.540,175.000,80.556,383.333,805.556,25.000,N
831,-0.685,1.495,-0.385,172.222,80.556,394.444,869.444,63.889,N
832,-0.495,1.530,-0.335,186.111,80.556,388.889,930.556,61.111,N
833,-0.535,1.340,-0.465,183.333,80.556,372.222,847.222,83.333,N
834,-0.685,1.315,-0.600,183.333,80.556,405.556,802.778,44.444,N
835,-0.755,1.415,-0.500,169.444,77.778,397.222,880.556,77.778,N
836,-0.635,1.440,-0.370,191.667,72.222,391.667,930.556,50.000,N
837,-0.480,1.445,-0.290,180.556,77.778,380.556,875.000,55.556,N
838,-0.530,1.580,-0.265,163.889,75.000,386.111,827.778,47.222,N
839,-0.440,1.565,-0.265,188.889,83.333,402.778,916.667,88.889,N
840,-0.360,1.630,-0.115,152.778,63.889,383.333,1050.000,133.333,N
841,-0.170,1.655,-0.105,180.556,80.556,100.000,880.556,169.444,N
842,-0.250,1.765,-0.060,183.333,83.333,405.556,908.333,27.778,N
843,-0.275,1.580,-0.160,188.889,80.556,402.778,930.556,22.222,N
844,-0.320,1.665,-0.235,169.444,77.778,386.111,894.444,36.111,N
845,-0.410,1.530,-0.360,180.556,83.333,383.333,841.667,52.778,N
846,-0.480,1.705,-0.230,183.333,80.556,380.556,866.667,25.000,N
847,-0.405,1.630,-0.255,191.667,80.556,405.556,883.333,16.667,N
848,-0.350,1.705,0.015,161.111,80.556,383.333,880.556,2.778,N
849,-0.095,1.810,-0.070,186.111,80.556,380.556,838.889,41.667,N
850,-0.275,1.695,-0.245,180.556,77.778,400.000,836.111,2.778,N
851,-0.570,1.475,-0.455,169.444,69.444,380.556,952.778,116.667,N
852,-0.575,1.370,-0.425,194.444,77.778,397.222,894.444,58.333,N
853,-0.625,1.350,-0.420,186.111,80.556,375.000,863.889,30.556,N
854,-0.510,1.695,-0.255,177.778,80.556,388.889,886.111,22.222,N
855,-0.425,1.600,-0.260,194.444,77.778,397.222,919.444,33.333,N
856,-0.435,1.415,-0.290,188.889,69.444,383.333,900.000,19.444,N
857,-0.520,1.465,-0.350,191.667,83.333,386.111,844.444,55.556,N
858,-0.485,1.680,-0.320,177.778,80.556,402.778,1011.111,166.667,N
859,-0.470,1.620,-0.375,197.222,83.333,355.556,1094.444,83.333,N
860,-0.530,1.585,-0.505,163.889,83.333,363.889,991.667,102.778,N
861,-0.650,1.445,-0.340,172.222,75.000,380.556,969.444,22.222,N
862,-0.480,1.475,-0.325,177.778,77.778,380.556,975.000,5.556,N
863,-0.410,1.615,-0.310,191.667,77.778,358.333,991.667,16.667,N
864,-0.435,1.640,-0.345,177.778,80.556,380.556,877.778,113.889,N
865,-0.345,1.825,0.010,169.444,83.333,380.556,902.778,25.000,N
866,-0.140,1.835,-0.115,188.889,72.222,386.111,983.333,80.556,N
867,-0.335,1.565,-0.375,183.333,80.556,100.000,991.667,8.333,N
868,-0.590,1.560,-0.505,183.333,75.000,352.778,916.667,75.000,N
869,-0.635,1.515,-0.395,175.000,80.556,391.667,975.000,58.333,N
870,-0.520,1.595,-0.370,191.667,75.000,386.111,1061.111,86.111,N
871,-0.450,1.555,-0.380,180.556,80.556,375.000,980.556,80.556,N
872,-0.530,1.715,-0.150,161.111,77.778,388.889,886.111,94.444,N
873,-0.105,1.880,0.015,163.889,75.000,383.333,969.444,83.333,N
874,-0.265,1.620,-0.310,186.111,80.556,100.000,980.556,11.111,N
875,-0.590,1.195,-0.630,194.444,69.444,358.333,944.444,36.111,N
876,-0.800,1.335,-0.675,186.111,77.778,380.556,858.333,86.111,N
877,-0.735,1.555,-0.260,161.111,77.778,391.667,880.556,22.222,N
878,-0.300,1.740,-0.185,197.222,80.556,386.111,977.778,97.222,N
879,-0.375,1.530,-0.425,194.444,69.444,86.111,888.889,88.889,N
880,-0.725,1.440,-0.695,163.889,69.444,383.333,836.111,52.778,N
881,-0.805,1.345,-0.590,161.111,75.000,391.667,897.222,61.111,N
882,-0.720,1.520,-0.540,163.889,75.000,386.111,980.556,83.333,N
883,-0.595,1.580,-0.475,183.333,83.333,375.000,977.778,2.778,N
884,-0.595,1.575,-0.465,188.889,83.333,402.778,872.222,105.556,N
885,-0.510,1.760,-0.265,161.111,75.000,397.222,941.667,69.444,N
886,-0.325,1.745,-0.155,197.222,80.556,386.111,975.000,33.333,N
887,-0.320,1.810,-0.300,186.111,77.778,383.333,872.222,102.778,N
888,-0.445,1.760,-0.245,177.778,80.556,394.444,855.556,16.667,N
889,-0.410,1.755,-0.275,194.444,69.444,391.667,897.222,41.667,N
890,-0.415,1.650,-0.335,188.889,83.333,372.222,925.000,27.778,N
891,-0.485,1.670,-0.445,163.889,72.222,91.667,883.333,41.667,N
892,-0.575,1.700,-0.275,169.444,80.556,388.889,877.778,5.556,N
893,-0.300,1.740,0.095,161.111,83.333,400.000,916.667,38.889,N
894,-0.075,1.910,-0.110,191.667,83.333,102.778,958.333,41.667,N
895,-0.415,1.625,-0.510,188.889,77.778,372.222,872.222,86.111,N
896,-0.735,1.545,-0.510,188.889,80.556,405.556,902.778,30.556,N
897,-0.735,1.395,-0.620,183.333,80.556,363.889,1105.556,202.778,N
898,-0.635,1.550,-0.440,180.556,80.556,380.556,1052.778,52.778,N
899,-0.555,1.510,-0.430,183.333,83.333,380.556,933.333,119.444,N
900,-0.565,1.540,-0.400,166.667,72.222,383.333,922.222,11.111,N
901,-0.590,1.570,-0.425,163.889,75.000,388.889,936.111,13.889,N
902,-0.580,1.485,-0.435,186.111,69.444,388.889,925.000,11.111,N
903,-0.640,1.620,-0.305,161.111,80.556,391.667,841.667,83.333,N
904,-0.325,1.785,-0.155,183.333,83.333,377.778,950.000,108.333,N
905,-0.430,1.585,-0.420,177.778,83.333,383.333,994.444,44.444,N
906,-0.635,1.535,-0.535,177.778,77.778,377.778,969.444,25.000,N
907,-0.665,1.615,-0.360,177.778,77.778,386.111,861.111,108.333,N
908,-0.460,1.655,-0.230,163.889,69.444,386.111,894.444,33.333,N
909,-0.410,1.700,-0.285,194.444,83.333,405.556,958.333,63.889,N
910,-0.315,1.845,-0.100,172.222,80.556,383.333,986.111,27.778,N
911,-0.225,1.825,-0.190,180.556,66.667,86.111,858.333,127.778,N
912,-0.460,1.580,-0.285,188.889,72.222,383.333,900.000,41.667,N
913,-0.450,1.545,-0.300,191.667,83.333,402.778,927.778,27.778,N
914,-0.410,1.760,-0.310,194.444,75.000,386.111,947.222,19.444,N
915,-0.415,1.740,-0.330,191.667,83.333,366.667,858.333,88.889,N
916,-0.445,1.755,-0.115,188.889,83.333,405.556,861.111,2.778,N
917,-0.080,1.895,0.200,169.444,80.556,380.556,955.556,94.444,N
918,-0.025,1.765,-0.065,186.111,80.556,100.000,908.333,47.222,N
919,-0.450,1.495,-0.520,172.222,77.778,377.778,827.778,80.556,N
920,-0.725,1.405,-0.500,161.111,77.778,380.556,897.222,69.444,N
921,-0.640,1.360,-0.415,197.222,80.556,391.667,925.000,27.778,N
922,-0.560,1.435,-0.435,197.222,83.333,391.667,900.000,25.000,N
923,-0.595,1.460,-0.365,163.889,75.000,386.111,838.889,61.111,N
924,-0.525,1.655,-0.295,163.889,77.778,400.000,836.111,2.778,N
925,-0.470,1.530,-0.310,191.667,72.222,388.889,861.111,25.000,N
926,-0.470,1.525,-0.360,172.222,80.556,394.444,877.778,16.667,N
927,-0.520,1.550,-0.385,180.556,80.556,405.556,808.333,69.444,N
928,-0.545,1.535,-0.265,183.333,83.333,402.778,833.333,25.000,N
929,-0.485,1.535,-0.245,186.111,77.778,400.000,905.556,72.222,N
930,-0.345,1.635,-0.140,166.667,72.222,386.111,980.556,75.000,N
931,-0.350,1.570,-0.180,186.111,83.333,380.556,880.556,100.000,N
932,-0.475,1.610,-0.275,175.000,80.556,405.556,1000.000,119.444,N
933,-0.460,1.565,-0.305,194.444,77.778,402.778,1247.222,247.222,N
934,-0.385,1.650,-0.275,186.111,80.556,380.556,1025.000,222.222,N
935,-0.425,1.820,-0.135,163.889,72.222,388.889,1050.000,25.000,N
936,-0.280,1.615,-0.165,191.667,80.556,400.000,1061.111,11.111,N
937,-0.440,1.560,-0.360,172.222,72.222,377.778,1050.000,11.111,N
938,-0.615,1.645,-0.325,166.667,80.556,386.111,966.667,83.333,N
939,-0.510,1.595,-0.325,166.667,75.000,386.111,994.444,27.778,N
940,-0.505,1.465,-0.385,158.333,80.556,361.111,1036.111,41.667,N
941,-0.560,1.590,-0.460,175.000,80.556,350.000,941.667,94.444,N
942,-0.605,1.625,-0.325,152.778,80.556,405.556,916.667,25.000,N
943,-0.550,1.485,-0.340,158.333,72.222,391.667,969.444,52.778,N
944,-0.365,1.525,-0.180,197.222,80.556,394.444,969.444,0.000,N
945,-0.360,1.750,-0.290,191.667,75.000,383.333,875.000,94.444,N
946,-0.460,1.720,-0.265,161.111,80.556,400.000,891.667,16.667,N
947,-0.505,1.640,-0.350,161.111,72.222,391.667,1008.333,116.667,N
948,-0.450,1.595,-0.360,186.111,77.778,388.889,972.222,36.111,N
949,-0.520,1.600,-0.380,188.889,80.556,402.778,877.778,94.444,N
950,-0.500,1.700,-0.265,166.667,83.333,391.667,991.667,113.889,N
951,-0.430,1.555,-0.270,180.556,80.556,405.556,1044.444,52.778,N
952,-0.360,1.500,-0.310,183.333,83.333,402.778,972.222,72.222,N
953,-0.440,1.495,-0.370,180.556,83.333,380.556,861.111,111.111,N
954,-0.470,1.605,-0.255,180.556,77.778,394.444,947.222,86.111,N
955,-0.380,1.735,-0.260,175.000,80.556,377.778,1086.111,138.889,N
956,-0.385,1.570,-0.325,175.000,77.778,344.444,936.111,150.000,N
957,-0.480,1.650,-0.260,183.333,80.556,402.778,908.333,27.778,N
958,-0.445,1.530,-0.320,175.000,77.778,388.889,1013.889,105.556,N
959,-0.405,1.650,-0.280,188.889,83.333,375.000,988.889,25.000,N
960,-0.400,1.600,-0.290,197.222,77.778,383.333,883.333,105.556,N
961,-0.500,1.660,-0.295,158.333,80.556,400.000,827.778,55.556,N
962,-0.440,1.660,-0.280,169.444,83.333,400.000,944.444,116.667,N
963,-0.315,1.670,-0.170,183.333,80.556,383.333,933.333,11.111,N
964,-0.300,1.505,-0.250,177.778,83.333,380.556,838.889,94.444,N
965,-0.470,1.645,-0.280,175.000,80.556,377.778,833.333,5.556,N
966,-0.430,1.605,-0.270,188.889,80.556,402.778,847.222,13.889,N
967,-0.455,1.465,-0.315,183.333,80.556,386.111,858.333,11.111,N
968,-0.420,1.590,-0.070,177.778,77.778,383.333,825.000,33.333,N
969,-0.175,1.825,0.050,180.556,80.556,405.556,813.889,11.111,N
970,-0.235,1.625,-0.215,166.667,83.333,386.111,888.889,75.000,N
971,-0.490,1.570,-0.455,183.333,77.778,97.222,1083.333,194.444,N
972,-0.595,1.605,-0.500,175.000,77.778,383.333,916.667,166.667,N
973,-0.570,1.610,-0.350,183.333,83.333,405.556,1044.444,127.778,N
974,-0.450,1.630,-0.030,166.667,77.778,383.333,1125.000,80.556,N
975,-0.050,1.645,0.035,180.556,66.667,83.333,1025.000,100.000,N
976,-0.310,1.635,-0.320,186.111,83.333,405.556,894.444,130.556,N
977,-0.590,1.365,-0.515,177.778,80.556,402.778,955.556,61.111,N
978,-0.625,1.315,-0.310,177.778,80.556,383.333,1066.667,111.111,N
979,-0.310,1.470,-0.215,150.000,83.333,369.444,877.778,188.889,N
980,-0.455,1.490,-0.265,158.333,63.889,388.889,872.222,5.556,N
981,-0.465,1.350,-0.365,177.778,83.333,405.556,927.778,55.556,N
982,-0.595,1.445,-0.590,177.778,80.556,377.778,925.000,2.778,N
983,-0.805,1.205,-0.650,155.556,66.667,386.111,852.778,72.222,N
984,-0.785,1.440,-0.590,180.556,80.556,377.778,919.444,66.667,N
985,-0.700,1.360,-0.500,175.000,83.333,388.889,963.889,44.444,N
986,-0.565,1.405,-0.375,188.889,80.556,375.000,938.889,25.000,N
987,-0.540,1.695,-0.375,180.556,75.000,355.556,855.556,83.333,N
988,-0.555,1.660,-0.365,180.556,77.778,394.444,891.667,36.111,N
989,-0.570,1.490,-0.380,166.667,77.778,397.222,908.333,16.667,N
990,-0.425,1.815,-0.140,161.111,83.333,366.667,894.444,13.889,N
991,-0.305,1.735,-0.150,186.111,77.778,391.667,872.222,22.222,N
992,-0.410,1.620,-0.400,177.778,80.556,369.444,922.222,50.000,N
993,-0.625,1.455,-0.540,188.889,72.222,380.556,1080.556,158.333,N
994,-0.570,1.560,-0.315,177.778,80.556,386.111,938.889,141.667,N
995,-0.460,1.705,-0.310,175.000,80.556,380.556,877.778,61.111,N
996,-0.495,1.685,-0.415,163.889,77.778,391.667,916.667,38.889,N
997,-0.560,1.435,-0.430,183.333,66.667,380.556,930.556,13.889,N
998,-0.570,1.455,-0.390,169.444,83.333,377.778,888.889,41.667,N
999,-0.565,1.710,-0.380,194.444,72.222,380.556,855.556,33.333,N
1000,-0.535,1.720,-0.410,177.778,77.778,386.111,969.444,113.889,N
1001,-0.530,1.600,-0.380,169.444,80.556,380.556,1008.333,38.889,N
1002,-0.505,1.600,-0.375,163.889,80.556,394.444,891.667,116.667,N
1003,-0.555,1.730,-0.285,158.333,77.778,397.222,855.556,36.111,N
1004,-0.415,1.775,0.030,183.333,83.333,405.556,955.556,100.000,N
1005,0.025,1.965,0.090,191.667,75.000,91.667,986.111,30.556,N
1006,-0.135,1.780,-0.245,194.444,80.556,355.556,911.111,75.000,N
1007,-0.570,1.595,-0.465,166.667,77.778,391.667,863.889,47.222,N
1008,-0.590,1.585,-0.325,180.556,80.556,380.556,1011.111,147.222,N
1009,-0.390,1.690,-0.335,191.667,75.000,352.778,1088.889,77.778,N
1010,-0.475,1.560,-0.455,183.333,83.333,350.000,905.556,183.333,N
1011,-0.615,1.560,-0.395,177.778,80.556,386.111,866.667,38.889,N
1012,-0.585,1.650,-0.390,161.111,69.444,386.111,888.889,22.222,N
1013,-0.520,1.495,-0.325,152.778,83.333,402.778,861.111,27.778,N
1014,-0.480,1.885,-0.260,188.889,80.556,377.778,866.667,5.556,N
1015,-0.420,1.770,-0.155,188.889,75.000,388.889,875.000,8.333,N
1016,-0.390,1.860,-0.030,191.667,80.556,405.556,994.444,119.444,N
1017,-0.035,2.145,0.160,169.444,77.778,347.222,988.889,5.556,N
1018,-0.110,1.805,-0.055,180.556,80.556,355.556,863.889,125.000,N
1019,-0.465,1.670,-0.360,175.000,80.556,388.889,972.222,108.333,N
1020,-0.600,1.660,-0.430,175.000,75.000,383.333,1158.333,186.111,N
1021,-0.415,1.675,-0.225,158.333,83.333,361.111,1000.000,158.333,N
1022,-0.460,1.720,-0.315,188.889,63.889,377.778,933.333,66.667,N
1023,-0.625,1.520,-0.525,175.000,75.000,388.889,1041.667,108.333,N
1024,-0.650,1.445,-0.525,158.333,80.556,369.444,1052.778,11.111,N
1025,-0.605,1.600,-0.385,180.556,77.778,375.000,891.667,161.111,N
1026,-0.395,1.895,-0.140,175.000,77.778,386.111,897.222,5.556,N
1027,-0.410,1.690,-0.355,158.333,72.222,386.111,916.667,19.444,N
1028,-0.555,1.430,-0.455,180.556,83.333,380.556,952.778,36.111,N
1029,-0.550,1.545,-0.405,183.333,77.778,372.222,875.000,77.778,N
1030,-0.525,1.790,-0.265,177.778,72.222,383.333,916.667,41.667,N
1031,-0.420,1.645,-0.275,191.667,72.222,391.667,961.111,44.444,N
1032,-0.415,1.630,-0.315,180.556,83.333,405.556,986.111,25.000,N
1033,-0.455,1.590,-0.420,180.556,72.222,366.667,875.000,111.111,N
1034,-0.565,1.530,-0.320,188.889,83.333,400.000,902.778,27.778,N
1035,-0.505,1.530,-0.390,183.333,83.333,375.000,1061.111,158.333,N
1036,-0.515,1.580,-0.310,183.333,80.556,375.000,1066.667,5.556,N
1037,-0.325,1.770,-0.180,180.556,77.778,400.000,900.000,166.667,N
1038,-0.355,1.560,-0.265,186.111,66.667,386.111,911.111,11.111,N
1039,-0.530,1.425,-0.420,188.889,83.333,400.000,930.556,19.444,N
1040,-0.600,1.415,-0.510,188.889,75.000,394.444,869.444,61.111,N
1041,-0.690,1.270,-0.490,163.889,75.000,388.889,808.333,61.111,N
1042,-0.600,1.330,-0.370,194.444,77.778,394.444,894.444,86.111,N
1043,-0.480,1.640,-0.300,197.222,69.444,388.889,908.333,13.889,N
1044,-0.425,1.605,-0.290,194.444,80.556,380.556,880.556,27.778,N
1045,-0.480,1.740,-0.315,194.444,77.778,394.444,813.889,66.667,N
1046,-0.475,1.700,-0.300,175.000,80.556,391.667,886.111,72.222,N
1047,-0.445,1.490,-0.320,163.889,83.333,388.889,927.778,41.667,N
1048,-0.455,1.395,-0.335,183.333,80.556,377.778,913.889,13.889,N
1049,-0.460,1.495,-0.360,180.556,83.333,377.778,836.111,77.778,N
1050,-0.510,1.580,-0.295,188.889,75.000,386.111,911.111,75.000,N
1051,-0.500,1.450,-0.310,180.556,83.333,383.333,986.111,75.000,N
1052,-0.400,1.490,-0.285,191.667,80.556,397.222,980.556,5.556,N
1053,-0.385,1.555,-0.005,183.333,83.333,380.556,858.333,122.222,N
1054,-0.065,1.770,-0.010,166.667,80.556,386.111,922.222,63.889,N
1055,-0.365,1.505,-0.390,186.111,77.778,383.333,975.000,52.778,N
1056,-0.625,1.360,-0.550,175.000,77.778,352.778,858.333,116.667,N
1057,-0.695,1.430,-0.400,180.556,80.556,375.000,813.889,44.444,N
1058,-0.490,1.635,-0.275,166.667,77.778,394.444,850.000,36.111,N
1059,-0.490,1.475,-0.410,188.889,80.556,405.556,855.556,5.556,N
1060,-0.585,1.390,-0.260,191.667,77.778,380.556,850.000,5.556,N
1061,-0.290,1.720,-0.185,172.222,77.778,375.000,808.333,41.667,N
1062,-0.405,1.535,-0.345,188.889,80.556,394.444,825.000,16.667,N
1063,-0.590,1.420,-0.530,197.222,77.778,386.111,836.111,11.111,N
1064,-0.725,1.220,-0.620,177.778,80.556,380.556,841.667,5.556,N
1065,-0.775,1.180,-0.635,177.778,80.556,380.556,808.333,33.333,N
1066,-0.780,1.460,-0.485,186.111,80.556,405.556,830.556,22.222,N
1067,-0.665,1.490,-0.380,163.889,75.000,386.111,883.333,52.778,N
1068,-0.495,1.365,-0.280,194.444,72.222,391.667,897.222,13.889,N
1069,-0.405,1.450,-0.265,172.222,83.333,388.889,850.000,47.222,N
1070,-0.460,1.540,-0.230,155.556,75.000,391.667,880.556,30.556,N
1071,-0.515,1.535,-0.335,188.889,80.556,405.556,933.333,52.778,N
1072,-0.545,1.435,-0.400,183.333,83.333,377.778,927.778,5.556,N
1073,-0.570,1.495,-0.425,183.333,77.778,372.222,869.444,58.333,N
1074,-0.530,1.670,-0.185,155.556,80.556,402.778,938.889,69.444,N
1075,-0.235,1.780,-0.125,191.667,83.333,369.444,1136.111,197.222,N
1076,-0.350,1.615,-0.350,172.222,80.556,97.222,983.333,152.778,N
1077,-0.555,1.690,-0.325,183.333,77.778,377.778,938.889,44.444,N
1078,-0.490,1.530,-0.285,180.556,80.556,380.556,966.667,27.778,N
1079,-0.410,1.545,-0.295,194.444,72.222,386.111,919.444,47.222,N
1080,-0.470,1.650,-0.365,194.444,77.778,388.889,838.889,80.556,N
1081,-0.445,1.670,-0.045,191.667,77.778,391.667,897.222,58.333,N
1082,-0.160,1.605,-0.145,183.333,83.333,100.000,988.889,91.667,N
1083,-0.385,1.515,-0.425,188.889,72.222,91.667,877.778,111.111,N
1084,-0.700,1.520,-0.455,194.444,75.000,386.111,872.222,5.556,N
1085,-0.660,1.575,-0.415,194.444,80.556,400.000,894.444,22.222,N
1086,-0.465,1.635,-0.320,177.778,75.000,386.111,947.222,52.778,N
1087,-0.455,1.585,-0.450,194.444,72.222,91.667,888.889,58.333,N
1088,-0.630,1.625,-0.220,172.222,80.556,383.333,850.000,38.889,N
1089,-0.350,1.665,-0.200,163.889,83.333,400.000,886.111,36.111,N
1090,-0.405,1.525,-0.395,191.667,75.000,391.667,936.111,50.000,N
1091,-0.560,1.390,-0.490,172.222,83.333,344.444,880.556,55.556,N
1092,-0.605,1.505,-0.450,191.667,80.556,400.000,850.000,30.556,N
1093,-0.540,1.450,-0.315,191.667,69.444,383.333,869.444,19.444,N
1094,-0.470,1.645,-0.340,191.667,83.333,386.111,911.111,41.667,N
1095,-0.400,1.640,-0.300,194.444,69.444,352.778,955.556,44.444,N
1096,-0.390,1.745,-0.265,194.444,72.222,358.333,869.444,86.111,N
1097,-0.360,1.895,-0.085,166.667,80.556,388.889,877.778,8.333,N
1098,-0.240,1.880,-0.065,166.667,80.556,377.778,902.778,25.000,N
1099,-0.175,1.780,0.015,191.667,75.000,388.889,888.889,13.889,N
1100,-0.185,1.865,-0.045,197.222,83.333,377.778,852.778,36.111,N
1101,-0.255,1.825,-0.195,191.667,77.778,388.889,883.333,30.556,N
1102,-0.405,1.735,-0.285,191.667,80.556,397.222,900.000,16.667,N
1103,-0.470,1.610,-0.375,175.000,69.444,375.000,911.111,11.111,N
1104,-0.540,1.570,-0.325,166.667,83.333,391.667,861.111,50.000,N
1105,-0.420,1.775,-0.250,186.111,80.556,402.778,986.111,125.000,N
1106,-0.410,1.570,-0.235,169.444,75.000,383.333,952.778,33.333,N
1107,-0.330,1.685,-0.160,191.667,77.778,391.667,925.000,27.778,N
1108,-0.315,1.590,-0.200,183.333,83.333,375.000,888.889,36.111,N
1109,-0.415,1.610,-0.295,183.333,83.333,377.778,900.000,11.111,N
1110,-0.480,1.415,-0.220,188.889,83.333,405.556,908.333,8.333,N
1111,-0.365,1.655,-0.230,191.667,80.556,377.778,961.111,52.778,N
1112,-0.495,1.510,-0.390,166.667,80.556,383.333,858.333,102.778,N
1113,-0.590,1.670,-0.310,166.667,75.000,386.111,900.000,41.667,N
1114,-0.320,1.855,-0.050,169.444,80.556,394.444,966.667,66.667,N
1115,-0.345,1.460,-0.430,183.333,83.333,100.000,1077.778,111.111,N
1116,-0.730,1.430,-0.610,191.667,75.000,380.556,955.556,122.222,N
1117,-0.740,1.425,-0.470,186.111,75.000,386.111,994.444,38.889,N
1118,-0.575,1.635,-0.365,188.889,80.556,405.556,1055.556,61.111,N
1119,-0.400,1.540,-0.100,177.778,83.333,386.111,927.778,127.778,N
1120,-0.265,1.800,-0.110,180.556,83.333,400.000,847.222,80.556,N
1121,-0.400,1.550,-0.365,177.778,80.556,383.333,886.111,38.889,N
1122,-0.595,1.455,-0.495,194.444,77.778,397.222,955.556,69.444,N
1123,-0.580,1.615,-0.420,197.222,75.000,388.889,938.889,16.667,N
1124,-0.570,1.670,-0.320,177.778,77.778,380.556,872.222,66.667,N
1125,-0.460,1.585,-0.115,183.333,83.333,402.778,850.000,22.222,N
1126,-0.220,1.875,0.020,197.222,80.556,397.222,875.000,25.000,N
1127,-0.175,1.720,-0.080,188.889,83.333,405.556,858.333,16.667,N
1128,-0.360,1.570,-0.240,175.000,69.444,377.778,819.444,38.889,N
1129,-0.490,1.645,-0.280,188.889,69.444,383.333,858.333,38.889,N
1130,-0.500,1.435,-0.295,172.222,80.556,388.889,875.000,16.667,N
1131,-0.480,1.485,-0.250,194.444,77.778,388.889,863.889,11.111,N
1132,-0.375,1.745,-0.065,161.111,75.000,394.444,830.556,33.333,N
1133,-0.335,1.600,-0.245,161.111,72.222,391.667,869.444,38.889,N
1134,-0.530,1.400,-0.425,166.667,75.000,388.889,936.111,66.667,N
1135,-0.620,1.535,-0.430,188.889,80.556,377.778,916.667,19.444,N
1136,-0.595,1.440,-0.360,177.778,80.556,377.778,833.333,83.333,N
1137,-0.580,1.480,-0.305,158.333,75.000,383.333,852.778,19.444,N
1138,-0.485,1.640,-0.275,188.889,72.222,386.111,897.222,44.444,N
1139,-0.485,1.675,-0.315,191.667,75.000,386.111,866.667,30.556,N
1140,-0.545,1.535,-0.235,177.778,69.444,380.556,833.333,33.333,N
1141,-0.460,1.425,-0.215,177.778,83.333,380.556,852.778,19.444,N
1142,-0.420,1.580,-0.245,186.111,80.556,405.556,838.889,13.889,N
1143,-0.485,1.285,-0.410,186.111,83.333,375.000,833.333,5.556,N
1144,-0.545,1.530,-0.265,180.556,80.556,377.778,830.556,2.778,N
1145,-0.515,1.575,-0.285,180.556,77.778,380.556,800.000,30.556,N
1146,-0.520,1.510,-0.260,169.444,80.556,383.333,863.889,63.889,N
1147,-0.480,1.485,-0.270,191.667,72.222,386.111,819.444,44.444,N
1148,-0.510,1.655,-0.280,197.222,80.556,397.222,900.000,80.556,N
1149,-0.520,1.670,-0.305,177.778,77.778,377.778,916.667,16.667,N
1150,-0.455,1.645,-0.195,191.667,69.444,394.444,983.333,66.667,N
1151,-0.395,1.700,-0.140,197.222,72.222,386.111,972.222,11.111,N
1152,-0.345,1.745,-0.075,183.333,63.889,355.556,1027.778,55.556,N
1153,-0.305,1.730,-0.180,188.889,75.000,380.556,1211.111,183.333,N
1154,-0.390,1.680,-0.255,191.667,77.778,397.222,1002.778,208.333,N
1155,-0.485,1.610,-0.235,177.778,80.556,380.556,911.111,91.667,N
1156,-0.420,1.650,-0.145,180.556,77.778,375.000,869.444,41.667,N
1157,-0.370,1.690,0.050,180.556,80.556,397.222,836.111,33.333,N
1158,-0.055,1.965,0.195,172.222,80.556,391.667,855.556,19.444,N
1159,-0.150,1.640,-0.075,191.667,69.444,383.333,866.667,11.111,N
1160,-0.385,1.510,-0.280,177.778,75.000,386.111,869.444,2.778,N
1161,-0.565,1.250,-0.345,194.444,77.778,386.111,894.444,25.000,N
1162,-0.650,1.390,-0.365,177.778,80.556,402.778,858.333,36.111,N
1163,-0.660,1.475,-0.365,194.444,75.000,388.889,977.778,119.444,N
1164,-0.590,1.290,-0.400,180.556,77.778,388.889,1238.889,261.111,N
1165,-0.600,1.300,-0.415,188.889,63.889,388.889,1055.556,183.333,N
1166,-0.610,1.440,-0.390,163.889,80.556,388.889,1144.444,88.889,N
1167,-0.520,1.365,-0.325,194.444,77.778,388.889,1097.222,47.222,N
1168,-0.540,1.435,-0.305,163.889,77.778,383.333,1038.889,58.333,N
1169,-0.445,1.440,-0.250,172.222,77.778,388.889,1033.333,5.556,N
1170,-0.365,1.470,-0.210,177.778,83.333,383.333,1013.889,19.444,N
1171,-0.350,1.645,-0.150,155.556,69.444,388.889,911.111,102.778,N
1172,-0.355,1.590,-0.190,172.222,77.778,386.111,883.333,27.778,N
1173,-0.390,1.590,-0.225,163.889,72.222,386.111,888.889,5.556,N
1174,-0.440,1.610,-0.260,175.000,80.556,386.111,847.222,41.667,N
1175,-0.435,1.500,-0.230,177.778,75.000,372.222,838.889,8.333,N
1176,-0.390,1.560,-0.220,180.556,80.556,402.778,902.778,63.889,N
1177,-0.430,1.480,-0.250,183.333,80.556,405.556,936.111,33.333,N
1178,-0.395,1.675,-0.135,158.333,72.222,394.444,908.333,27.778,N
1179,-0.380,1.670,-0.300,180.556,77.778,383.333,1019.444,111.111,N
1180,-0.510,1.605,-0.380,188.889,80.556,388.889,1097.222,77.778,N
1181,-0.515,1.470,-0.350,186.111,83.333,405.556,941.667,155.556,N
1182,-0.515,1.565,-0.335,188.889,66.667,380.556,947.222,5.556,N
1183,-0.515,1.515,-0.410,186.111,69.444,388.889,1097.222,150.000,N
1184,-0.550,1.385,-0.400,163.889,77.778,380.556,950.000,147.222,N
1185,-0.570,1.365,-0.370,186.111,80.556,405.556,916.667,33.333,N
1186,-0.515,1.375,-0.370,175.000,77.778,391.667,919.444,2.778,N
1187,-0.495,1.455,-0.385,188.889,83.333,397.222,922.222,2.778,N
1188,-0.545,1.590,-0.410,186.111,80.556,375.000,888.889,33.333,N
1189,-0.585,1.505,-0.480,188.889,69.444,388.889,913.889,25.000,N
1190,-0.625,1.480,-0.325,155.556,80.556,405.556,925.000,11.111,N
1191,-0.385,1.520,-0.220,180.556,80.556,377.778,891.667,33.333,N
1192,-0.370,1.720,-0.270,172.222,80.556,383.333,861.111,30.556,N
1193,-0.405,1.615,-0.135,150.000,80.556,400.000,983.333,122.222,N
1194,-0.250,1.680,-0.185,169.444,77.778,394.444,955.556,27.778,N
1195,-0.370,1.580,-0.335,197.222,80.556,372.222,911.111,44.444,N
1196,-0.545,1.560,-0.400,186.111,80.556,380.556,900.000,11.111,N
1197,-0.585,1.330,-0.410,155.556,72.222,388.889,983.333,83.333,N
1198,-0.535,1.300,-0.445,186.111,72.222,361.111,1055.556,72.222,N
1199,-0.535,1.610,-0.250,175.000,80.556,380.556,922.222,133.333,N
1200,-0.170,1.825,0.030,161.111,69.444,386.111,950.000,27.778,N
1201,-0.235,1.545,-0.240,163.889,72.222,91.667,941.667,8.333,N
1202,-0.555,1.460,-0.540,180.556,72.222,377.778,875.000,66.667,N
1203,-0.740,1.470,-0.610,191.667,83.333,402.778,877.778,2.778,N
1204,-0.755,1.530,-0.565,194.444,80.556,386.111,988.889,111.111,N
1205,-0.690,1.510,-0.445,186.111,83.333,391.667,1069.444,80.556,N
1206,-0.485,1.600,-0.340,183.333,77.778,375.000,1044.444,25.000,N
1207,-0.520,1.710,-0.390,158.333,77.778,391.667,916.667,127.778,N
1208,-0.605,1.400,-0.420,158.333,66.667,391.667,961.111,44.444,N
1209,-0.625,1.625,-0.420,177.778,63.889,388.889,994.444,33.333,N
1210,-0.570,1.365,-0.355,191.667,75.000,397.222,905.556,88.889,N
1211,-0.460,1.640,0.005,183.333,83.333,386.111,883.333,22.222,N
1212,-0.150,1.930,-0.065,183.333,80.556,391.667,883.333,0.000,N
1213,-0.325,1.770,-0.270,180.556,80.556,402.778,927.778,44.444,N
1214,-0.465,1.445,-0.340,177.778,77.778,402.778,869.444,58.333,N
1215,-0.560,1.590,-0.390,163.889,75.000,394.444,880.556,11.111,N
1216,-0.635,1.630,-0.430,163.889,77.778,388.889,975.000,94.444,N
1217,-0.510,1.600,-0.265,172.222,77.778,391.667,966.667,8.333,N
1218,-0.375,1.755,-0.205,197.222,77.778,383.333,869.444,97.222,N
1219,-0.375,1.835,-0.200,186.111,77.778,402.778,913.889,44.444,N
1220,-0.395,1.460,-0.255,183.333,77.778,400.000,900.000,13.889,N
1221,-0.385,1.675,-0.250,194.444,66.667,380.556,911.111,11.111,N
1222,-0.410,1.810,-0.250,155.556,66.667,388.889,830.556,80.556,N
1223,-0.440,1.670,-0.260,186.111,80.556,405.556,861.111,30.556,N
1224,-0.460,1.610,-0.295,175.000,80.556,405.556,858.333,2.778,N
1225,-0.450,1.615,-0.290,169.444,75.000,388.889,897.222,38.889,N
1226,-0.460,1.730,-0.270,191.667,83.333,388.889,872.222,25.000,N
1227,-0.445,1.690,-0.140,183.333,80.556,402.778,877.778,5.556,N
1228,-0.300,1.920,-0.075,183.333,80.556,386.111,925.000,47.222,N
1229,-0.260,1.875,-0.110,186.111,66.667,388.889,916.667,8.333,N
1230,-0.290,1.760,-0.155,177.778,77.778,388.889,880.556,36.111,N
1231,-0.350,1.825,-0.165,188.889,80.556,402.778,908.333,27.778,N
1232,-0.365,1.615,-0.195,188.889,63.889,386.111,911.111,2.778,N
1233,-0.405,1.740,-0.275,186.111,80.556,405.556,863.889,47.222,N
1234,-0.460,1.750,-0.275,194.444,80.556,397.222,847.222,16.667,N
1235,-0.420,1.750,-0.155,191.667,80.556,394.444,927.778,80.556,N
1236,-0.345,1.870,-0.130,183.333,77.778,383.333,952.778,25.000,N
1237,-0.285,1.815,-0.110,180.556,77.778,400.000,844.444,108.333,N
1238,-0.300,1.915,-0.120,186.111,80.556,405.556,833.333,11.111,N
1239,-0.335,1.850,-0.130,186.111,77.778,400.000,833.333,0.000,N
1240,-0.395,1.790,-0.170,177.778,77.778,386.111,922.222,88.889,N
1241,-0.400,1.765,-0.200,177.778,77.778,380.556,836.111,86.111,N
1242,-0.395,1.675,-0.180,186.111,80.556,405.556,811.111,25.000,N
1243,-0.420,1.720,-0.225,188.889,80.556,402.778,866.667,55.556,N
1244,-0.460,1.465,-0.235,163.889,77.778,386.111,822.222,44.444,N
1245,-0.435,1.600,-0.220,186.111,83.333,402.778,780.556,41.667,N
1246,-0.450,1.780,-0.230,194.444,77.778,383.333,816.667,36.111,N
1247,-0.500,1.530,-0.285,194.444,80.556,400.000,788.889,27.778,N
1248,-0.490,1.425,-0.305,197.222,77.778,391.667,841.667,52.778,N
1249,-0.500,1.440,-0.235,158.333,75.000,391.667,797.222,44.444,N
1250,-0.465,1.585,-0.160,183.333,80.556,402.778,794.444,2.778,N
1251,-0.445,1.705,-0.180,172.222,80.556,405.556,855.556,61.111,N
1252,-0.410,1.705,-0.185,169.444,83.333,388.889,858.333,2.778,N
1253,-0.455,1.630,-0.200,166.667,75.000,372.222,836.111,22.222,N
1254,-0.470,1.765,-0.205,188.889,80.556,377.778,844.444,8.333,N
1255,-0.460,1.630,-0.225,191.667,75.000,391.667,955.556,111.111,N
1256,-0.430,1.625,-0.210,188.889,80.556,402.778,919.444,36.111,N
1257,-0.470,1.525,-0.205,161.111,72.222,394.444,872.222,47.222,N
1258,-0.465,1.750,-0.200,183.333,80.556,391.667,875.000,2.778,N
1259,-0.440,1.530,-0.180,191.667,69.444,391.667,891.667,16.667,N
1260,-0.425,1.770,-0.210,186.111,75.000,388.889,877.778,13.889,N
1261,-0.430,1.605,-0.190,186.111,75.000,383.333,858.333,19.444,N
1262,-0.455,1.665,-0.240,161.111,75.000,394.444,875.000,16.667,N
1263,-0.430,1.645,-0.270,186.111,80.556,405.556,952.778,77.778,N
1264,-0.460,1.605,-0.265,163.889,77.778,386.111,888.889,63.889,N
1265,-0.465,1.605,-0.235,150.000,72.222,391.667,916.667,27.778,N
1266,-0.440,1.330,-0.245,188.889,83.333,402.778,933.333,16.667,N
1267,-0.455,1.500,-0.295,180.556,80.556,377.778,991.667,58.333,N
1268,-0.455,1.590,-0.260,180.556,77.778,383.333,866.667,125.000,N
1269,-0.455,1.450,-0.295,169.444,80.556,391.667,861.111,5.556,N
1270,-0.490,1.420,-0.355,194.444,83.333,386.111,905.556,44.444,N
1271,-0.485,1.365,-0.335,186.111,80.556,397.222,850.000,55.556,N
1272,-0.520,1.620,-0.295,166.667,80.556,402.778,886.111,36.111,N
1273,-0.470,1.575,-0.360,180.556,80.556,380.556,1036.111,150.000,N
1274,-0.525,1.655,-0.380,169.444,69.444,380.556,925.000,111.111,N
1275,-0.515,1.595,-0.325,194.444,75.000,386.111,961.111,36.111,N
1276,-0.490,1.525,-0.395,177.778,80.556,383.333,1113.889,152.778,N
1277,-0.505,1.375,-0.395,180.556,80.556,369.444,1013.889,100.000,N
1278,-0.430,1.720,-0.160,169.444,80.556,388.889,913.889,100.000,N
1279,-0.300,1.525,-0.210,183.333,83.333,377.778,980.556,66.667,N
1280,-0.440,1.335,-0.380,180.556,72.222,394.444,1047.222,66.667,N
1281,-0.550,1.210,-0.435,175.000,80.556,383.333,916.667,130.556,N
1282,-0.600,1.400,-0.425,163.889,80.556,388.889,861.111,55.556,N
1283,-0.580,1.235,-0.405,177.778,83.333,405.556,880.556,19.444,N
1284,-0.585,1.430,-0.405,186.111,72.222,391.667,883.333,2.778,N
1285,-0.570,1.450,-0.435,180.556,75.000,394.444,827.778,55.556,N
1286,-0.615,1.520,-0.410,180.556,80.556,386.111,819.444,8.333,N
1287,-0.565,1.540,-0.385,188.889,83.333,405.556,875.000,55.556,N
1288,-0.530,1.470,-0.365,186.111,80.556,405.556,936.111,61.111,N
1289,-0.535,1.495,-0.415,186.111,80.556,372.222,866.667,69.444,N
1290,-0.575,1.600,-0.355,172.222,80.556,388.889,858.333,8.333,N
1291,-0.500,1.495,-0.300,163.889,77.778,380.556,927.778,69.444,N
1292,-0.450,1.380,-0.320,175.000,80.556,383.333,938.889,11.111,N
1293,-0.475,1.380,-0.330,177.778,83.333,383.333,836.111,102.778,N
1294,-0.430,1.685,-0.075,155.556,80.556,400.000,852.778,16.667,N
1295,-0.245,1.740,-0.150,186.111,75.000,394.444,863.889,11.111,N
1296,-0.345,1.345,-0.310,180.556,83.333,375.000,858.333,5.556,N
1297,-0.510,1.340,-0.435,180.556,75.000,386.111,819.444,38.889,N
1298,-0.605,1.430,-0.440,188.889,69.444,386.111,858.333,38.889,N
1299,-0.600,1.455,-0.330,191.667,83.333,394.444,1011.111,152.778,N
1300,-0.510,1.225,-0.440,169.444,72.222,91.667,966.667,44.444,N
1301,-0.630,1.365,-0.605,180.556,80.556,405.556,880.556,86.111,N
1302,-0.810,1.320,-0.635,180.556,80.556,383.333,966.667,86.111,N
1303,-0.730,1.365,-0.520,194.444,83.333,397.222,1016.667,50.000,N
1304,-0.650,1.445,-0.470,161.111,80.556,394.444,905.556,111.111,N
1305,-0.630,1.445,-0.350,177.778,77.778,386.111,841.667,63.889,N
1306,-0.545,1.580,-0.385,166.667,77.778,383.333,897.222,55.556,N
1307,-0.505,1.520,-0.345,180.556,80.556,383.333,944.444,47.222,N
1308,-0.510,1.345,-0.370,158.333,66.667,377.778,850.000,94.444,N
1309,-0.545,1.570,-0.315,177.778,80.556,405.556,822.222,27.778,N
1310,-0.500,1.390,-0.315,155.556,63.889,388.889,905.556,83.333,N
1311,-0.485,1.675,-0.350,194.444,80.556,391.667,977.778,72.222,N
1312,-0.560,1.505,-0.460,169.444,80.556,386.111,908.333,69.444,N
1313,-0.620,1.540,-0.295,158.333,77.778,388.889,858.333,50.000,N
1314,-0.320,1.655,-0.160,183.333,69.444,386.111,1025.000,166.667,N
1315,-0.335,1.510,-0.300,194.444,80.556,344.444,1155.556,130.556,N
1316,-0.450,1.690,-0.340,169.444,83.333,380.556,969.444,186.111,N
1317,-0.305,1.630,0.150,169.444,83.333,380.556,900.000,69.444,N
1318,0.015,1.760,0.080,183.333,83.333,380.556,902.778,2.778,N
1319,-0.160,1.595,-0.165,191.667,77.778,375.000,902.778,0.000,N
1320,-0.430,1.490,-0.410,183.333,80.556,386.111,866.667,36.111,N
1321,-0.525,1.470,-0.180,161.111,77.778,388.889,819.444,47.222,N
1322,-0.250,1.645,-0.065,194.444,83.333,388.889,908.333,88.889,N
1323,-0.345,1.535,-0.320,188.889,77.778,380.556,966.667,58.333,N
1324,-0.610,1.325,-0.575,197.222,75.000,386.111,963.889,2.778,N
1325,-0.750,1.445,-0.535,169.444,80.556,377.778,880.556,83.333,N
1326,-0.725,1.545,-0.525,175.000,77.778,383.333,994.444,113.889,N
1327,-0.685,1.185,-0.575,175.000,77.778,377.778,1105.556,111.111,N
1328,-0.695,1.360,-0.530,177.778,83.333,383.333,933.333,172.222,N
1329,-0.650,1.620,-0.405,163.889,80.556,388.889,925.000,8.333,N
1330,-0.540,1.390,-0.335,177.778,75.000,386.111,936.111,11.111,N
1331,-0.470,1.640,-0.380,177.778,80.556,383.333,941.667,5.556,N
1332,-0.500,1.615,-0.340,166.667,75.000,383.333,825.000,116.667,N
1333,-0.515,1.570,-0.255,147.222,83.333,402.778,819.444,5.556,N
1334,-0.435,1.710,0.130,155.556,66.667,383.333,808.333,11.111,N
1335,0.125,1.965,0.450,180.556,63.889,388.889,794.444,13.889,N
1336,0.185,1.805,0.175,180.556,83.333,383.333,791.667,2.778,N
1337,-0.125,1.705,-0.080,183.333,83.333,397.222,763.889,27.778,N
1338,-0.420,1.540,-0.320,197.222,80.556,394.444,830.556,66.667,N
1339,-0.570,1.540,-0.380,191.667,66.667,386.111,886.111,55.556,N
1340,-0.605,1.475,-0.390,191.667,80.556,391.667,844.444,41.667,N
1341,-0.615,1.545,-0.225,194.444,72.222,386.111,925.000,80.556,N
1342,-0.395,1.625,-0.185,194.444,72.222,386.111,1105.556,180.556,N
1343,-0.470,1.580,-0.310,183.333,80.556,391.667,1052.778,52.778,N
1344,-0.600,1.635,-0.320,183.333,69.444,386.111,947.222,105.556,N
1345,-0.425,1.670,-0.015,180.556,83.333,405.556,1086.111,138.889,N
1346,-0.255,1.720,-0.225,180.556,75.000,397.222,1111.111,25.000,N
1347,-0.585,1.630,-0.435,177.778,77.778,397.222,969.444,141.667,N
1348,-0.560,1.460,-0.190,180.556,83.333,397.222,994.444,25.000,N
1349,-0.435,1.585,-0.290,177.778,69.444,86.111,1016.667,22.222,N
1350,-0.695,1.425,-0.585,166.667,66.667,377.778,902.778,113.889,N
1351,-0.845,1.350,-0.615,183.333,80.556,383.333,836.111,66.667,N
1352,-0.855,1.385,-0.545,188.889,77.778,402.778,836.111,0.000,N
1353,-0.640,1.335,-0.470,194.444,75.000,391.667,922.222,86.111,N
1354,-0.710,1.375,-0.630,191.667,80.556,377.778,825.000,97.222,N
1355,-0.895,1.185,-0.625,194.444,80.556,386.111,825.000,0.000,N
1356,-0.800,1.455,-0.520,194.444,80.556,400.000,852.778,27.778,N
1357,-0.660,1.485,-0.350,197.222,80.556,391.667,908.333,55.556,N
1358,-0.490,1.710,-0.175,172.222,80.556,377.778,844.444,63.889,N
1359,-0.345,1.890,-0.185,191.667,72.222,386.111,813.889,30.556,N
1360,-0.410,1.830,-0.195,183.333,75.000,386.111,813.889,0.000,N
1361,-0.380,1.700,-0.070,188.889,75.000,391.667,919.444,105.556,N
1362,-0.215,1.890,0.075,158.333,75.000,388.889,841.667,77.778,N
1363,-0.070,2.140,0.040,175.000,80.556,388.889,811.111,30.556,N
1364,-0.180,2.130,0.040,166.667,72.222,383.333,830.556,19.444,N
1365,-0.195,1.890,0.010,166.667,69.444,383.333,866.667,36.111,N
1366,-0.180,1.875,-0.100,194.444,72.222,386.111,894.444,27.778,N
1367,-0.250,1.845,-0.165,172.222,72.222,386.111,841.667,52.778,N
1368,-0.340,1.855,-0.170,186.111,83.333,391.667,869.444,27.778,N
1369,-0.390,1.840,-0.225,175.000,77.778,400.000,936.111,66.667,N
1370,-0.400,1.695,-0.130,169.444,77.778,388.889,894.444,41.667,N
1371,-0.265,1.680,-0.120,177.778,77.778,369.444,816.667,77.778,N
1372,-0.315,1.695,-0.010,150.000,80.556,397.222,800.000,16.667,N
1373,-0.185,1.705,-0.120,166.667,75.000,383.333,813.889,13.889,N
1374,-0.425,1.630,-0.340,188.889,75.000,386.111,808.333,5.556,N
1375,-0.545,1.630,-0.355,197.222,69.444,350.000,827.778,19.444,N
1376,-0.570,1.640,-0.320,186.111,77.778,377.778,813.889,13.889,N
1377,-0.505,1.685,-0.250,186.111,80.556,402.778,808.333,5.556,N
1378,-0.420,1.730,-0.175,194.444,75.000,388.889,847.222,38.889,N
1379,-0.360,1.680,-0.090,191.667,75.000,386.111,836.111,11.111,N
1380,-0.330,1.700,-0.130,191.667,77.778,394.444,869.444,33.333,N
1381,-0.375,1.700,-0.155,177.778,80.556,405.556,850.000,19.444,N
1382,-0.310,1.860,0.055,188.889,83.333,402.778,838.889,11.111,N
1383,-0.185,1.960,-0.005,191.667,80.556,383.333,858.333,19.444,N
1384,-0.330,1.465,-0.285,194.444,75.000,386.111,855.556,2.778,N
1385,-0.575,1.320,-0.380,166.667,80.556,386.111,875.000,19.444,N
1386,-0.545,1.590,-0.145,191.667,80.556,386.111,850.000,25.000,N
1387,-0.250,1.575,0.040,158.333,66.667,372.222,822.222,27.778,N
1388,-0.125,1.555,0.180,186.111,63.889,369.444,805.556,16.667,N
1389,-0.075,1.645,0.190,150.000,80.556,397.222,777.778,27.778,N
1390,0.110,1.765,0.730,155.556,80.556,397.222,766.667,11.111,N
1391,0.705,1.930,0.745,150.000,77.778,97.222,777.778,11.111,N
1392,0.270,1.680,0.450,172.222,80.556,377.778,777.778,0.000,N
1393,0.515,1.835,0.845,166.667,69.444,369.444,752.778,25.000,N
1394,0.605,1.580,0.445,158.333,75.000,91.667,736.111,16.667,N
1395,0.085,1.240,0.085,180.556,61.111,380.556,758.333,22.222,N
1396,0.230,1.425,0.785,155.556,83.333,355.556,758.333,0.000,N
1397,0.560,1.180,0.835,183.333,69.444,380.556,733.333,25.000,N
1398,0.640,1.100,0.370,186.111,75.000,94.444,722.222,11.111,N
1399,-0.540,0.305,-0.580,194.444,47.222,-1298444.444,730.556,8.333,N
1400,-0.580,0.045,-0.580,1299202.778,69.444,-1299155.556,736.111,5.556,N
1401,-0.580,0.075,-0.580,1299952.778,80.556,-1299897.222,750.000,13.889,N
1402,-0.580,0.090,-0.580,1300719.444,80.556,-1300661.111,766.667,16.667,N
1403,-0.580,0.300,-0.580,1301450.000,80.556,-1301391.667,730.556,36.111,N
1404,-0.580,0.480,-0.580,1302186.111,80.556,-1302127.778,736.111,5.556,N
1405,-0.580,0.660,-0.580,1302947.222,83.333,-1302888.889,761.111,25.000,N
1406,-0.580,0.625,-0.945,1303691.667,80.556,402.778,744.444,16.667,N
1407,-0.930,1.305,-0.665,161.111,75.000,358.333,747.222,2.778,N
1408,-0.705,1.420,-0.440,158.333,77.778,388.889,736.111,11.111,N
1409,-0.525,1.510,-0.320,161.111,75.000,386.111,766.667,30.556,N
1410,-0.405,1.575,-0.235,166.667,77.778,377.778,777.778,11.111,N
1411,-0.355,1.700,-0.180,158.333,77.778,358.333,783.333,5.556,N
1412,-0.295,1.740,-0.105,186.111,80.556,375.000,761.111,22.222,N
1413,-0.270,1.855,0.040,163.889,83.333,383.333,825.000,63.889,N
1414,-0.195,1.955,0.065,177.778,83.333,405.556,977.778,152.778,N
1415,-0.140,2.040,0.045,169.444,75.000,388.889,1083.333,105.556,N
1416,-0.165,1.640,-0.010,169.444,80.556,388.889,1102.778,19.444,N
1417,-0.185,1.825,-0.080,183.333,80.556,405.556,1047.222,55.556,N
1418,-0.305,1.665,-0.165,194.444,80.556,391.667,1055.556,8.333,N
1419,-0.360,1.480,-0.285,175.000,80.556,377.778,944.444,111.111,N
1420,-0.490,1.455,-0.280,152.778,80.556,394.444,947.222,2.778,N
1421,-0.480,1.565,-0.260,191.667,77.778,397.222,1002.778,55.556,N
1422,-0.430,1.470,-0.265,183.333,80.556,402.778,947.222,55.556,N
1423,-0.440,1.400,-0.270,177.778,83.333,386.111,902.778,44.444,N
1424,-0.465,1.535,-0.315,191.667,77.778,372.222,841.667,61.111,N
1425,-0.545,1.545,-0.370,191.667,80.556,405.556,866.667,25.000,N
1426,-0.590,1.325,-0.370,180.556,80.556,402.778,900.000,33.333,N
1427,-0.615,1.355,-0.455,177.778,80.556,391.667,927.778,27.778,N
1428,-0.620,1.400,-0.490,186.111,80.556,377.778,844.444,83.333,N
1429,-0.745,1.355,-0.560,194.444,72.222,391.667,905.556,61.111,N
1430,-0.800,1.325,-0.550,180.556,80.556,405.556,961.111,55.556,N
1431,-0.730,1.175,-0.560,175.000,80.556,388.889,891.667,69.444,N
1432,-0.765,1.115,-0.580,180.556,83.333,402.778,844.444,47.222,N
1433,-0.655,1.300,-0.225,161.111,75.000,388.889,841.667,2.778,N
1434,-0.260,1.725,0.195,191.667,83.333,402.778,897.222,55.556,N
1435,0.075,2.090,0.405,194.444,77.778,388.889,872.222,25.000,N
1436,0.205,2.130,0.515,177.778,80.556,383.333,786.111,86.111,N
1437,0.255,2.365,0.520,188.889,83.333,405.556,805.556,19.444,N
1438,0.250,2.210,0.475,188.889,83.333,383.333,833.333,27.778,N
1439,0.200,2.110,0.375,163.889,69.444,350.000,819.444,13.889,N
1440,0.080,2.085,0.235,188.889,83.333,372.222,786.111,33.333,N
1441,-0.090,1.810,0.015,188.889,63.889,350.000,836.111,50.000,N
1442,-0.260,1.690,-0.120,175.000,80.556,383.333,861.111,25.000,N
1443,-0.365,1.565,-0.200,197.222,69.444,380.556,816.667,44.444,N
1444,-0.455,1.570,-0.185,166.667,77.778,383.333,841.667,25.000,N
1445,-0.365,1.680,-0.130,169.444,83.333,388.889,875.000,33.333,N
1446,-0.375,1.520,-0.230,197.222,80.556,388.889,894.444,19.444,N
1447,-0.460,1.610,-0.250,191.667,72.222,383.333,858.333,36.111,N
1448,-0.520,1.355,-0.310,169.444,77.778,388.889,1038.889,180.556,N
1449,-0.420,1.585,-0.275,169.444,72.222,380.556,1102.778,63.889,N
1450,-0.490,1.400,-0.425,183.333,80.556,402.778,950.000,152.778,N
1451,-0.680,1.305,-0.500,158.333,72.222,386.111,977.778,27.778,N
1452,-0.730,1.350,-0.570,186.111,69.444,386.111,1036.111,58.333,N
1453,-0.715,1.270,-0.455,188.889,75.000,388.889,1030.556,5.556,N
1454,-0.505,1.450,-0.200,172.222,77.778,380.556,913.889,116.667,N
1455,-0.360,1.345,-0.220,175.000,80.556,383.333,872.222,41.667,N
1456,-0.475,1.395,-0.405,188.889,83.333,405.556,872.222,0.000,N
1457,-0.620,1.310,-0.445,194.444,61.111,383.333,938.889,66.667,N
1458,-0.575,1.455,-0.405,177.778,80.556,383.333,888.889,50.000,N
1459,-0.610,1.310,-0.395,155.556,72.222,391.667,847.222,41.667,N
1460,-0.605,1.345,-0.365,186.111,83.333,405.556,863.889,16.667,N
1461,-0.580,1.555,-0.350,175.000,77.778,386.111,922.222,58.333,N
1462,-0.480,1.455,-0.360,188.889,83.333,402.778,916.667,5.556,N
1463,-0.635,1.430,-0.510,161.111,66.667,383.333,875.000,41.667,N
1464,-0.750,1.520,-0.540,197.222,83.333,400.000,958.333,83.333,N
1465,-0.570,1.445,-0.280,188.889,83.333,400.000,1038.889,80.556,N
1466,-0.445,1.560,-0.350,177.778,83.333,400.000,930.556,108.333,N
1467,-0.540,1.545,-0.395,191.667,77.778,388.889,877.778,52.778,N
1468,-0.535,1.490,-0.250,166.667,80.556,391.667,841.667,36.111,N
1469,-0.470,1.720,-0.320,175.000,75.000,377.778,869.444,27.778,N
1470,-0.565,1.590,-0.415,163.889,72.222,386.111,830.556,38.889,N
1471,-0.645,1.615,-0.410,191.667,77.778,386.111,861.111,30.556,N
1472,-0.585,1.735,-0.320,172.222,80.556,388.889,941.667,80.556,N
1473,-0.485,1.530,-0.210,188.889,83.333,402.778,886.111,55.556,N
1474,-0.420,1.710,-0.135,188.889,77.778,394.444,866.667,19.444,N
1475,-0.270,1.815,0.000,172.222,72.222,383.333,916.667,50.000,N
1476,-0.260,1.900,-0.145,183.333,80.556,405.556,1011.111,94.444,N
1477,-0.375,1.685,-0.185,172.222,80.556,383.333,963.889,47.222,N
1478,-0.375,1.600,-0.035,166.667,77.778,388.889,855.556,108.333,N
1479,-0.290,1.625,-0.205,191.667,69.444,383.333,894.444,38.889,N
1480,-0.535,1.535,-0.430,166.667,75.000,377.778,952.778,58.333,N
1481,-0.645,1.555,-0.415,169.444,75.000,386.111,858.333,94.444,N
1482,-0.635,1.560,-0.445,191.667,66.667,380.556,858.333,0.000,N
1483,-0.690,1.530,-0.490,191.667,80.556,388.889,880.556,22.222,N
1484,-0.635,1.415,-0.435,172.222,83.333,405.556,905.556,25.000,N
1485,-0.515,1.675,-0.280,194.444,72.222,383.333,886.111,19.444,N
1486,-0.390,1.765,-0.170,169.444,77.778,383.333,947.222,61.111,N
1487,-0.325,1.710,-0.210,169.444,75.000,391.667,1161.111,213.889,N
1488,-0.305,1.850,-0.190,194.444,80.556,400.000,1052.778,108.333,N
1489,-0.300,1.790,-0.100,188.889,63.889,383.333,1036.111,16.667,N
1490,-0.280,1.685,-0.060,177.778,83.333,386.111,988.889,47.222,N
1491,-0.180,1.905,0.060,180.556,80.556,405.556,944.444,44.444,N
1492,-0.070,1.945,0.060,197.222,77.778,388.889,911.111,33.333,N
1493,-0.205,1.785,-0.065,163.889,83.333,388.889,872.222,38.889,N
1494,-0.310,1.460,-0.160,191.667,63.889,380.556,825.000,47.222,N
1495,-0.360,1.695,-0.095,175.000,83.333,377.778,825.000,0.000,N
1496,-0.210,1.665,0.065,175.000,80.556,377.778,833.333,8.333,N
1497,-0.185,1.625,-0.035,180.556,83.333,380.556,863.889,30.556,N
1498,-0.330,1.555,-0.190,175.000,83.333,386.111,833.333,30.556,N
1499,-0.415,1.490,-0.200,186.111,83.333,402.778,811.111,22.222,N
1500,-0.430,1.710,-0.205,197.222,77.778,394.444,913.889,102.778,N
1501,-0.405,1.650,-0.190,172.222,80.556,405.556,944.444,30.556,N
1502,-0.355,1.745,-0.155,163.889,63.889,377.778,852.778,91.667,N
1503,-0.370,1.790,-0.120,177.778,80.556,383.333,852.778,0.000,N
1504,-0.320,1.645,-0.090,194.444,80.556,397.222,880.556,27.778,N
1505,-0.255,1.615,-0.115,194.444,80.556,400.000,933.333,52.778,N
1506,-0.300,1.710,-0.160,172.222,77.778,377.778,850.000,83.333,N
1507,-0.390,1.600,-0.205,183.333,80.556,372.222,811.111,38.889,N
1508,-0.435,1.385,-0.220,194.444,83.333,402.778,836.111,25.000,N
1509,-0.420,1.520,-0.210,188.889,75.000,380.556,852.778,16.667,N
1510,-0.395,1.265,-0.210,175.000,77.778,391.667,797.222,55.556,N
1511,-0.370,1.360,-0.190,183.333,80.556,388.889,791.667,5.556,N
1512,-0.455,1.460,-0.330,175.000,77.778,383.333,816.667,25.000,N
1513,-0.575,1.340,-0.400,191.667,75.000,397.222,847.222,30.556,N
1514,-0.595,1.365,-0.370,197.222,80.556,375.000,830.556,16.667,N
1515,-0.570,1.355,-0.310,183.333,77.778,372.222,797.222,33.333,N
1516,-0.490,1.495,-0.170,188.889,80.556,397.222,844.444,47.222,N
1517,-0.350,1.615,-0.190,186.111,83.333,405.556,922.222,77.778,N
1518,-0.390,1.540,-0.240,191.667,75.000,388.889,847.222,75.000,N
1519,-0.475,1.435,-0.260,186.111,83.333,402.778,825.000,22.222,N
1520,-0.485,1.630,-0.270,194.444,83.333,394.444,877.778,52.778,N
1521,-0.485,1.470,-0.315,180.556,83.333,386.111,855.556,22.222,N
1522,-0.520,1.480,-0.360,177.778,80.556,380.556,833.333,22.222,N
1523,-0.575,1.540,-0.375,172.222,75.000,383.333,855.556,22.222,N
1524,-0.515,1.505,-0.100,177.778,77.778,402.778,872.222,16.667,N
1525,-0.205,1.690,-0.115,175.000,80.556,383.333,866.667,5.556,N
1526,-0.365,1.455,-0.355,186.111,75.000,388.889,833.333,33.333,N
1527,-0.660,1.125,-0.545,175.000,77.778,377.778,900.000,66.667,N
1528,-0.725,1.230,-0.560,169.444,83.333,383.333,869.444,30.556,N
1529,-0.690,1.420,-0.505,166.667,80.556,386.111,869.444,0.000,N
1530,-0.595,1.430,-0.405,194.444,72.222,388.889,952.778,83.333,N
1531,-0.525,1.535,-0.435,191.667,75.000,358.333,1236.111,283.333,N
1532,-0.500,1.480,-0.360,163.889,80.556,386.111,1038.889,197.222,N
1533,-0.465,1.515,-0.310,177.778,83.333,386.111,1108.333,69.444,N
1534,-0.430,1.495,-0.320,175.000,80.556,375.000,1038.889,69.444,N
1535,-0.425,1.660,-0.290,188.889,69.444,383.333,1050.000,11.111,N
1536,-0.415,1.560,-0.295,169.444,83.333,391.667,1080.556,30.556,N
1537,-0.420,1.640,-0.325,194.444,83.333,380.556,1044.444,36.111,N
1538,-0.440,1.670,-0.255,163.889,77.778,386.111,1019.444,25.000,N
1539,-0.380,1.510,-0.270,191.667,83.333,397.222,958.333,61.111,N
1540,-0.440,1.525,-0.245,166.667,83.333,394.444,1050.000,91.667,N
1541,-0.400,1.670,-0.230,188.889,77.778,397.222,1050.000,0.000,N
1542,-0.420,1.665,-0.290,166.667,75.000,386.111,944.444,105.556,N
1543,-0.470,1.550,-0.315,166.667,83.333,405.556,1041.667,97.222,N
1544,-0.475,1.720,-0.285,197.222,77.778,386.111,1027.778,13.889,N
1545,-0.395,1.760,-0.245,197.222,63.889,386.111,925.000,102.778,N
1546,-0.385,1.595,-0.160,161.111,75.000,391.667,866.667,58.333,N
1547,-0.340,1.615,-0.145,183.333,83.333,405.556,894.444,27.778,N
1548,-0.350,1.665,-0.185,183.333,80.556,388.889,825.000,69.444,N
1549,-0.370,1.725,-0.065,163.889,83.333,391.667,791.667,33.333,N
1550,-0.265,1.795,-0.100,191.667,83.333,397.222,830.556,38.889,N
1551,-0.310,1.755,-0.175,180.556,80.556,405.556,886.111,55.556,N
1552,-0.360,1.670,-0.180,175.000,80.556,402.778,830.556,55.556,N
1553,-0.400,1.570,-0.210,183.333,80.556,383.333,797.222,33.333,N
1554,-0.440,1.650,-0.110,186.111,69.444,386.111,819.444,22.222,N
1555,-0.225,1.770,0.085,194.444,75.000,391.667,800.000,19.444,N
1556,-0.125,1.560,-0.065,197.222,72.222,386.111,802.778,2.778,N
1557,-0.065,-0.350,1.690,166.667,69.444,333.333,508.333,294.444,|
1558,-0.240,1.495,0.010,163.889,83.333,386.111,269.444,238.889,N
1559,-0.270,1.380,-0.295,158.333,80.556,397.222,758.333,488.889,N
1560,-0.380,1.550,-0.200,161.111,75.000,391.667,763.889,5.556,N
1561,-0.315,1.455,-0.225,163.889,77.778,386.111,775.000,11.111,N
1562,-0.355,1.440,-0.315,194.444,75.000,394.444,827.778,52.778,N
1563,-0.450,1.320,-0.345,158.333,69.444,383.333,802.778,25.000,N
1564,-0.495,1.250,-0.355,183.333,75.000,372.222,786.111,16.667,N
1565,-0.500,1.520,-0.420,172.222,80.556,383.333,830.556,44.444,N
1566,-0.525,1.475,-0.440,172.222,72.222,388.889,922.222,91.667,N
1567,-0.535,1.430,-0.385,191.667,83.333,372.222,822.222,100.000,N
1568,-0.400,1.700,-0.035,158.333,80.556,369.444,869.444,47.222,N
1569,-0.200,1.695,-0.090,169.444,72.222,88.889,1005.556,136.111,N
1570,-0.400,1.515,-0.395,175.000,75.000,375.000,1080.556,75.000,N
1571,-0.515,1.450,-0.390,180.556,83.333,380.556,905.556,175.000,N
1572,-0.395,1.690,-0.170,161.111,77.778,397.222,950.000,44.444,N
1573,-0.325,1.565,-0.300,191.667,63.889,383.333,994.444,44.444,N
1574,-0.420,1.585,-0.345,172.222,77.778,383.333,950.000,44.444,N
1575,-0.500,1.390,-0.390,172.222,80.556,372.222,841.667,108.333,N
1576,-0.455,1.625,-0.235,186.111,80.556,405.556,872.222,30.556,N
1577,-0.420,1.410,-0.385,191.667,66.667,383.333,941.667,69.444,N
1578,-0.570,1.300,-0.485,191.667,69.444,386.111,1069.444,127.778,N
1579,-0.405,1.695,-0.065,180.556,77.778,377.778,1022.222,47.222,N
1580,-0.170,1.695,-0.150,186.111,83.333,375.000,877.778,144.444,N
1581,-0.405,1.465,-0.385,188.889,69.444,380.556,936.111,58.333,N
1582,-0.660,1.240,-0.590,186.111,69.444,86.111,1133.333,197.222,N
1583,-0.630,1.450,-0.480,186.111,77.778,372.222,1063.889,69.444,N
1584,-0.515,1.665,-0.285,172.222,80.556,377.778,952.778,111.111,N
1585,-0.415,1.600,-0.325,172.222,77.778,380.556,936.111,16.667,N
1586,-0.525,1.560,-0.450,191.667,75.000,391.667,950.000,13.889,N
1587,-0.590,1.580,-0.490,186.111,83.333,386.111,955.556,5.556,N
1588,-0.515,1.520,-0.375,194.444,83.333,400.000,883.333,72.222,N
1589,-0.470,1.645,-0.270,169.444,80.556,391.667,841.667,41.667,N
1590,-0.395,1.625,-0.230,186.111,80.556,380.556,872.222,30.556,N
1591,-0.315,1.805,0.060,175.000,83.333,383.333,969.444,97.222,N
1592,-0.015,2.070,0.160,186.111,69.444,388.889,944.444,25.000,N
1593,-0.095,1.960,0.045,177.778,80.556,380.556,894.444,50.000,N
1594,-0.230,1.935,-0.015,197.222,69.444,380.556,955.556,61.111,N
1595,-0.175,1.975,-0.030,172.222,83.333,402.778,1208.333,252.778,N
1596,-0.140,2.165,0.065,172.222,80.556,383.333,1036.111,172.222,N
1597,-0.075,2.005,0.180,152.778,83.333,405.556,1008.333,27.778,N
1598,-0.030,2.100,0.170,194.444,83.333,377.778,997.222,11.111,N
1599,-0.020,1.970,0.100,186.111,83.333,377.778,969.444,27.778,N
1600,-0.095,2.085,0.050,191.667,72.222,361.111,908.333,61.111,N
1601,-0.115,1.995,0.095,186.111,77.778,377.778,855.556,52.778,N
1602,-0.090,1.880,0.080,186.111,69.444,388.889,850.000,5.556,N
1603,-0.080,2.085,0.200,194.444,83.333,402.778,897.222,47.222,N
1604,0.105,2.065,0.270,188.889,83.333,372.222,830.556,66.667,N
1605,0.030,2.010,0.105,188.889,83.333,405.556,897.222,66.667,N
1606,-0.130,1.955,-0.025,197.222,75.000,383.333,919.444,22.222,N
1607,-0.230,1.700,-0.120,180.556,80.556,383.333,1044.444,125.000,N
1608,-0.250,1.910,-0.080,169.444,75.000,383.333,991.667,52.778,N
1609,-0.195,1.960,-0.025,163.889,80.556,388.889,1127.778,136.111,N
1610,-0.120,1.955,-0.045,175.000,80.556,380.556,1119.444,8.333,N
1611,-0.140,1.950,-0.015,172.222,77.778,377.778,1030.556,88.889,N
1612,-0.090,1.990,0.025,186.111,80.556,377.778,1105.556,75.000,N
1613,-0.040,1.960,0.060,175.000,80.556,383.333,1061.111,44.444,N
1614,-0.015,2.095,0.100,161.111,72.222,386.111,988.889,72.222,N
1615,-0.015,2.070,0.095,177.778,83.333,391.667,1044.444,55.556,N
1616,-0.055,1.960,0.020,169.444,83.333,377.778,969.444,75.000,N
1617,-0.110,1.880,0.045,194.444,83.333,388.889,969.444,0.000,N
1618,-0.070,2.050,0.055,197.222,80.556,402.778,886.111,83.333,N
1619,-0.120,1.900,-0.030,191.667,66.667,391.667,863.889,22.222,N
1620,-0.190,1.880,-0.060,191.667,77.778,391.667,833.333,30.556,N
1621,-0.235,1.985,0.000,188.889,80.556,400.000,830.556,2.778,N
1622,-0.180,2.035,0.000,180.556,80.556,388.889,916.667,86.111,N
1623,-0.190,1.815,-0.095,197.222,75.000,388.889,991.667,75.000,N
1624,-0.265,1.935,-0.105,188.889,83.333,405.556,891.667,100.000,N
1625,-0.255,1.960,-0.040,180.556,83.333,405.556,994.444,102.778,N
1626,-0.195,1.810,0.020,194.444,72.222,388.889,913.889,80.556,N
1627,-0.185,1.830,-0.015,194.444,77.778,394.444,833.333,80.556,N
1628,-0.215,1.870,0.000,161.111,75.000,388.889,836.111,2.778,N
1629,-0.210,1.890,-0.055,188.889,86.111,405.556,891.667,55.556,N
1630,-0.215,1.795,-0.080,191.667,77.778,391.667,1013.889,122.222,N
1631,-0.200,1.895,-0.055,166.667,80.556,377.778,847.222,166.667,N
1632,-0.245,1.875,-0.015,188.889,80.556,383.333,836.111,11.111,N
1633,-0.225,1.720,-0.080,188.889,83.333,405.556,1005.556,169.444,N
1634,-0.275,1.780,-0.190,163.889,80.556,386.111,986.111,19.444,N
1635,-0.300,1.880,-0.215,188.889,69.444,355.556,955.556,30.556,N
1636,-0.350,1.760,-0.260,180.556,77.778,380.556,1155.556,200.000,N
1637,-0.315,1.705,-0.230,188.889,83.333,400.000,1108.333,47.222,N
1638,-0.295,1.945,-0.190,186.111,83.333,405.556,969.444,138.889,N
1639,-0.220,1.955,0.080,183.333,80.556,402.778,933.333,36.111,N
1640,-0.020,2.000,0.035,169.444,80.556,386.111,980.556,47.222,N
1641,-0.085,1.955,-0.095,194.444,69.444,352.778,861.111,119.444,N
1642,-0.240,1.790,-0.145,180.556,80.556,405.556,825.000,36.111,N
1643,-0.375,1.585,-0.225,197.222,80.556,405.556,866.667,41.667,N
1644,-0.375,1.700,-0.280,180.556,80.556,380.556,827.778,38.889,N
1645,-0.400,1.680,-0.120,175.000,80.556,400.000,838.889,11.111,N
1646,-0.205,1.765,-0.005,183.333,83.333,380.556,900.000,61.111,N
1647,-0.195,1.805,-0.125,188.889,69.444,383.333,911.111,11.111,N
1648,-0.330,1.775,-0.225,175.000,80.556,391.667,908.333,2.778,N
1649,-0.425,1.815,-0.275,180.556,80.556,386.111,838.889,69.444,N
1650,-0.465,1.620,-0.280,177.778,80.556,386.111,869.444,30.556,N
1651,-0.440,1.745,-0.265,183.333,80.556,405.556,911.111,41.667,N
1652,-0.385,1.810,-0.105,177.778,77.778,380.556,894.444,16.667,N
1653,-0.080,2.015,0.130,188.889,80.556,402.778,844.444,50.000,N
1654,-0.070,1.810,-0.035,172.222,77.778,94.444,952.778,108.333,N
1655,-0.200,1.630,-0.250,188.889,63.889,383.333,850.000,102.778,N
1656,-0.390,1.630,-0.155,169.444,77.778,383.333,813.889,36.111,N
1657,-0.200,1.815,-0.125,180.556,80.556,372.222,816.667,2.778,N
1658,-0.280,1.575,-0.275,180.556,61.111,358.333,800.000,16.667,N
1659,-0.455,1.395,-0.380,183.333,72.222,383.333,786.111,13.889,N
1660,-0.570,1.415,-0.440,186.111,66.667,358.333,819.444,33.333,N
1661,-0.595,1.370,-0.350,197.222,83.333,402.778,800.000,19.444,N
1662,-0.540,1.695,-0.335,175.000,80.556,386.111,922.222,122.222,N
1663,-0.495,1.740,-0.295,194.444,77.778,391.667,950.000,27.778,N
1664,-0.470,1.720,-0.270,197.222,72.222,383.333,872.222,77.778,N
1665,-0.480,1.740,-0.265,186.111,66.667,352.778,894.444,22.222,N
1666,-0.460,1.745,-0.360,177.778,77.778,402.778,1186.111,291.667,N
1667,-0.425,1.605,-0.270,191.667,83.333,400.000,1116.667,69.444,N
1668,-0.400,1.705,-0.240,186.111,77.778,402.778,994.444,122.222,N
1669,-0.370,1.825,-0.210,194.444,80.556,405.556,1069.444,75.000,N
1670,-0.335,1.755,-0.255,183.333,83.333,383.333,1061.111,8.333,N
1671,-0.325,1.920,-0.225,186.111,77.778,372.222,975.000,86.111,N
1672,-0.310,1.875,-0.255,183.333,80.556,377.778,1063.889,88.889,N
1673,-0.370,1.835,-0.325,186.111,80.556,369.444,1036.111,27.778,N
1674,-0.385,1.740,-0.285,188.889,83.333,372.222,1000.000,36.111,N
1675,-0.355,1.885,-0.255,177.778,80.556,377.778,1094.444,94.444,N
1676,-0.310,1.790,-0.250,194.444,72.222,355.556,1147.222,52.778,N
1677,-0.315,1.830,-0.190,163.889,77.778,388.889,1008.333,138.889,N
1678,-0.335,1.735,-0.265,175.000,83.333,386.111,1113.889,105.556,N
1679,-0.340,1.825,-0.235,186.111,77.778,372.222,1075.000,38.889,N
1680,-0.310,1.950,-0.210,166.667,77.778,391.667,1011.111,63.889,N
1681,-0.290,1.800,-0.215,188.889,75.000,352.778,1100.000,88.889,N
1682,-0.280,1.950,-0.215,172.222,77.778,380.556,1047.222,52.778,N
1683,-0.305,1.955,-0.265,172.222,75.000,377.778,997.222,50.000,N
1684,-0.375,1.645,-0.295,177.778,80.556,380.556,1036.111,38.889,N
1685,-0.390,1.670,-0.310,191.667,83.333,366.667,1050.000,13.889,N
1686,-0.385,1.775,-0.315,180.556,83.333,372.222,958.333,91.667,N
1687,-0.375,1.835,-0.245,166.667,72.222,383.333,916.667,41.667,N
1688,-0.395,1.880,-0.200,194.444,80.556,405.556,922.222,5.556,N
1689,-0.330,1.725,-0.210,177.778,77.778,377.778,858.333,63.889,N
1690,-0.325,1.985,-0.150,197.222,80.556,400.000,841.667,16.667,N
1691,-0.245,1.725,-0.090,183.333,83.333,405.556,833.333,8.333,N
1692,-0.245,1.985,-0.145,194.444,80.556,388.889,883.333,50.000,N
1693,-0.265,1.850,-0.130,188.889,80.556,402.778,894.444,11.111,N
1694,-0.260,1.670,-0.145,183.333,77.778,372.222,822.222,72.222,N
1695,-0.290,1.750,-0.125,180.556,83.333,386.111,830.556,8.333,N
1696,-0.295,1.810,-0.170,188.889,69.444,388.889,850.000,19.444,N
1697,-0.330,1.830,-0.195,186.111,80.556,400.000,858.333,8.333,N
1698,-0.235,1.830,-0.125,186.111,80.556,380.556,827.778,30.556,N
1699,-0.160,1.695,-0.065,150.000,83.333,405.556,808.333,19.444,N
1700,-0.205,1.610,-0.205,175.000,72.222,380.556,783.333,25.000,N
1701,-0.340,1.465,-0.340,194.444,77.778,388.889,800.000,16.667,N
1702,-0.440,1.415,-0.380,191.667,83.333,400.000,816.667,16.667,N
1703,-0.515,1.555,-0.385,172.222,80.556,383.333,797.222,19.444,N
1704,-0.530,1.485,-0.400,194.444,66.667,386.111,813.889,16.667,N
1705,-0.530,1.475,-0.360,175.000,77.778,380.556,880.556,66.667,N
1706,-0.525,1.410,-0.400,175.000,80.556,380.556,836.111,44.444,N
1707,-0.525,1.520,-0.325,197.222,77.778,386.111,852.778,16.667,N
1708,-0.495,1.605,-0.315,180.556,77.778,377.778,883.333,30.556,N
1709,-0.485,1.410,-0.325,194.444,77.778,388.889,950.000,66.667,N
1710,-0.495,1.540,-0.355,191.667,66.667,383.333,963.889,13.889,N
1711,-0.495,1.480,-0.320,191.667,66.667,350.000,866.667,97.222,N
1712,-0.485,1.555,-0.300,177.778,77.778,383.333,919.444,52.778,N
1713,-0.495,1.305,-0.355,180.556,80.556,400.000,980.556,61.111,N
1714,-0.460,1.560,-0.395,191.667,80.556,97.222,1202.778,222.222,N
1715,-0.490,1.560,-0.360,161.111,75.000,347.222,977.778,225.000,N
1716,-0.465,1.510,-0.255,158.333,66.667,388.889,855.556,122.222,N
1717,-0.390,1.615,-0.235,175.000,80.556,405.556,925.000,69.444,N
1718,-0.410,1.515,-0.300,158.333,77.778,391.667,880.556,44.444,N
1719,-0.450,1.415,-0.375,172.222,80.556,386.111,877.778,2.778,N
1720,-0.500,1.515,-0.400,191.667,75.000,383.333,861.111,16.667,N
1721,-0.500,1.570,-0.380,186.111,83.333,377.778,816.667,44.444,N
1722,-0.530,1.545,-0.350,191.667,80.556,400.000,908.333,91.667,N
1723,-0.475,1.600,-0.220,191.667,80.556,402.778,936.111,27.778,N
1724,-0.230,1.740,-0.095,183.333,80.556,402.778,897.222,38.889,N
1725,-0.250,1.650,-0.200,188.889,80.556,372.222,866.667,30.556,N
1726,-0.380,1.455,-0.300,186.111,83.333,386.111,855.556,11.111,N
1727,-0.510,1.425,-0.395,180.556,80.556,388.889,897.222,41.667,N
1728,-0.480,1.515,-0.340,169.444,80.556,355.556,966.667,69.444,N
1729,-0.435,1.535,-0.355,175.000,80.556,386.111,872.222,94.444,N
1730,-0.485,1.575,-0.385,197.222,83.333,386.111,863.889,8.333,N
1731,-0.525,1.510,-0.395,169.444,80.556,386.111,900.000,36.111,N
1732,-0.545,1.390,-0.375,161.111,77.778,400.000,888.889,11.111,N
1733,-0.345,1.450,-0.150,191.667,66.667,380.556,897.222,8.333,N
1734,-0.235,1.550,-0.205,186.111,75.000,361.111,833.333,63.889,N
1735,-0.375,1.405,-0.295,158.333,80.556,397.222,802.778,30.556,N
1736,-0.475,1.270,-0.370,180.556,83.333,380.556,819.444,16.667,N
1737,-0.520,1.495,-0.395,163.889,72.222,386.111,825.000,5.556,N
1738,-0.545,1.465,-0.415,183.333,83.333,386.111,808.333,16.667,N
1739,-0.560,1.490,-0.385,186.111,80.556,380.556,808.333,0.000,N
1740,-0.555,1.495,-0.370,183.333,83.333,380.556,830.556,22.222,N
1741,-0.540,1.410,-0.355,197.222,75.000,383.333,855.556,25.000,N
1742,-0.525,1.540,-0.405,180.556,77.778,377.778,875.000,19.444,N
1743,-0.545,1.640,-0.430,188.889,80.556,369.444,844.444,30.556,N
1744,-0.550,1.625,-0.365,186.111,80.556,400.000,872.222,27.778,N
1745,-0.535,1.580,-0.455,194.444,75.000,94.444,1269.444,397.222,N
1746,-0.520,1.660,-0.445,183.333,77.778,355.556,1180.556,88.889,N
1747,-0.470,1.530,-0.375,197.222,66.667,377.778,1125.000,55.556,N
1748,-0.495,1.690,-0.435,191.667,77.778,391.667,1033.333,91.667,N
1749,-0.470,1.610,-0.345,183.333,83.333,369.444,1091.667,58.333,N
1750,-0.400,1.720,-0.275,158.333,75.000,386.111,1050.000,41.667,N
1751,-0.325,1.900,-0.185,183.333,83.333,405.556,1016.667,33.333,N
1752,-0.335,1.820,-0.200,194.444,69.444,377.778,1050.000,33.333,N
1753,-0.330,1.655,-0.255,169.444,80.556,380.556,1005.556,44.444,N
1754,1.860,-0.395,-0.255,180.556,41.667,183.333,183.333,822.222,|
1755,-0.255,-0.515,-0.385,144.444,63.889,350.000,291.667,108.333,|
1756,-0.385,1.890,-0.270,169.444,77.778,386.111,491.667,200.000,N
1757,-0.425,1.755,-0.320,172.222,80.556,388.889,1041.667,550.000,N
1758,-0.480,1.625,-0.400,194.444,77.778,383.333,1058.333,16.667,N
1759,-0.530,1.665,-0.400,166.667,75.000,352.778,997.222,61.111,N
1760,-0.520,1.645,-0.370,188.889,63.889,386.111,1055.556,58.333,N
1761,-0.485,-0.550,-0.420,163.889,94.444,380.556,980.556,75.000,|
1762,-0.485,1.675,-0.395,194.444,80.556,394.444,30.556,950.000,N
1763,-0.480,1.655,-0.405,186.111,83.333,375.000,958.333,927.778,N
1764,-0.465,1.695,-0.300,186.111,83.333,405.556,927.778,30.556,N
1765,-0.460,1.645,-0.350,172.222,75.000,383.333,952.778,25.000,N
1766,-0.435,1.740,-0.320,180.556,77.778,394.444,888.889,63.889,N
1767,-0.450,1.640,-0.325,194.444,77.778,391.667,908.333,19.444,N
1768,-0.550,1.650,-0.495,163.889,80.556,352.778,1208.333,300.000,N
1769,-0.455,-0.610,-0.660,30.556,36.111,155.556,402.778,805.556,|
1770,-0.530,1.610,-0.325,175.000,83.333,405.556,611.111,208.333,N
1771,-0.465,1.735,-0.360,177.778,83.333,386.111,1188.889,577.778,N
1772,-0.420,1.745,-0.235,175.000,80.556,386.111,1036.111,152.778,N
1773,-0.375,1.665,-0.200,194.444,69.444,388.889,1086.111,50.000,N
1774,-0.360,1.910,-0.250,169.444,77.778,388.889,1077.778,8.333,N
1775,-0.335,1.695,-0.170,172.222,75.000,380.556,1100.000,22.222,N
1776,-0.340,1.840,-0.170,175.000,80.556,386.111,1105.556,5.556,N
1777,-0.330,1.955,-0.170,197.222,75.000,386.111,994.444,111.111,N
1778,-0.290,1.980,0.085,166.667,75.000,383.333,897.222,97.222,N
1779,-0.290,-0.180,0.085,183.333,63.889,372.222,16.667,880.556,|
1780,0.000,2.045,0.160,180.556,80.556,402.778,800.000,783.333,N
1781,-0.090,1.680,-0.040,155.556,77.778,388.889,752.778,47.222,N
1782,-0.205,1.490,-0.120,186.111,69.444,388.889,758.333,5.556,N
1783,-0.280,1.325,0.010,152.778,80.556,391.667,747.222,11.111,N
1784,-0.060,1.465,0.380,158.333,80.556,377.778,727.778,19.444,N
1785,0.185,1.605,0.180,161.111,83.333,394.444,702.778,25.000,N
1786,-0.080,1.395,-0.215,186.111,61.111,83.333,711.111,8.333,N
1787,-0.650,0.815,-0.580,191.667,63.889,-1648502.778,716.667,5.556,N
1788,-0.580,0.845,-0.580,1649255.556,77.778,-1649200.000,713.889,2.778,N
1789,-0.580,0.860,-0.580,1649994.444,80.556,-1649936.111,738.889,25.000,N
1790,-0.580,0.870,-0.955,1650694.444,80.556,377.778,700.000,38.889,N
1791,-0.580,0.920,-0.785,1651441.667,66.667,380.556,747.222,47.222,N
1792,-0.860,1.280,-0.595,177.778,83.333,405.556,797.222,50.000,N
1793,-0.615,1.595,-0.410,169.444,69.444,380.556,813.889,16.667,N
1794,-0.465,1.485,-0.335,158.333,72.222,352.778,758.333,55.556,N
1795,-0.390,1.795,-0.240,186.111,66.667,383.333,766.667,8.333,N
1796,-0.310,1.755,-0.245,180.556,80.556,405.556,822.222,55.556,N
1797,-0.305,1.875,-0.260,163.889,75.000,350.000,855.556,33.333,N
1798,-0.310,1.750,-0.285,175.000,80.556,352.778,844.444,11.111,N
1799,-0.385,1.735,-0.305,163.889,77.778,352.778,791.667,52.778,N
1800,-0.385,1.775,-0.245,172.222,83.333,383.333,808.333,16.667,N
1801,-0.350,1.770,-0.235,197.222,72.222,386.111,888.889,80.556,N
1802,-0.340,1.835,-0.260,197.222,72.222,383.333,900.000,11.111,N
1803,-0.350,1.625,-0.255,194.444,80.556,388.889,869.444,30.556,N
1804,-0.395,1.540,-0.260,186.111,83.333,377.778,847.222,22.222,N
1805,-0.360,1.860,-0.220,175.000,75.000,383.333,894.444,47.222,N
1806,-0.370,1.620,-0.320,180.556,83.333,405.556,1308.333,413.889,N
1807,-0.355,1.735,-0.260,180.556,83.333,377.778,1030.556,277.778,N
1808,-0.405,1.760,-0.260,194.444,69.444,383.333,1119.444,88.889,N
1809,-0.400,1.725,-0.315,163.889,75.000,350.000,1244.444,125.000,N
1810,-0.405,1.685,-0.330,191.667,72.222,350.000,1130.556,113.889,N
1811,-0.455,1.695,-0.315,197.222,69.444,394.444,1058.333,72.222,N
1812,-0.450,1.645,-0.330,169.444,75.000,383.333,1144.444,86.111,N
1813,-0.430,1.655,-0.330,175.000,80.556,355.556,1038.889,105.556,N
1814,-0.520,1.625,-0.405,169.444,83.333,383.333,1002.778,36.111,N
1815,-0.530,1.565,-0.440,166.667,75.000,377.778,1130.556,127.778,N
1816,-0.500,1.410,-0.400,166.667,75.000,386.111,1058.333,72.222,N
1817,-0.555,1.520,-0.490,177.778,80.556,380.556,980.556,77.778,N
1818,-0.605,1.455,-0.475,183.333,80.556,386.111,1105.556,125.000,N
1819,-0.400,1.535,-0.155,175.000,83.333,386.111,1191.667,86.111,N
1820,-0.135,2.030,-0.015,194.444,69.444,383.333,1055.556,136.111,N
1821,-0.095,1.940,-0.005,163.889,72.222,391.667,1205.556,150.000,N
1822,-0.150,1.880,-0.125,191.667,72.222,88.889,1097.222,108.333,N
1823,-0.285,1.760,-0.245,197.222,69.444,388.889,1066.667,30.556,N
1824,-0.350,1.705,-0.270,180.556,80.556,372.222,1125.000,58.333,N
1825,-0.370,1.695,-0.315,163.889,80.556,352.778,1025.000,100.000,N
1826,-0.420,1.605,-0.320,180.556,80.556,386.111,1063.889,38.889,N
1827,-0.400,1.555,-0.340,175.000,77.778,383.333,1075.000,11.111,N
1828,-0.410,1.665,-0.340,155.556,80.556,386.111,991.667,83.333,N
1829,-0.445,1.670,-0.330,158.333,63.889,386.111,988.889,2.778,N
1830,-0.435,1.390,-0.335,177.778,80.556,402.778,1055.556,66.667,N
1831,-0.410,1.650,-0.330,177.778,75.000,375.000,1000.000,55.556,N
1832,-0.435,1.540,-0.375,183.333,77.778,372.222,975.000,25.000,N
1833,-0.455,1.520,-0.370,163.889,80.556,386.111,1086.111,111.111,N
1834,-0.405,1.645,-0.390,197.222,77.778,394.444,1194.444,108.333,N
1835,-0.430,1.510,-0.330,177.778,80.556,380.556,1152.778,41.667,N
1836,-0.390,1.430,-0.350,175.000,80.556,380.556,1061.111,91.667,N
1837,-0.415,1.405,-0.375,183.333,83.333,405.556,1075.000,13.889,N
1838,-0.400,1.530,-0.355,180.556,80.556,380.556,1133.333,58.333,N
1839,-0.380,1.640,-0.320,172.222,77.778,380.556,994.444,138.889,N
1840,-0.390,1.580,-0.290,163.889,77.778,388.889,897.222,97.222,N
1841,-0.395,1.615,-0.260,175.000,80.556,391.667,966.667,69.444,N
1842,-0.375,1.685,-0.350,191.667,69.444,86.111,1155.556,188.889,N
1843,-0.370,1.600,-0.295,194.444,75.000,397.222,1097.222,58.333,N
1844,-0.370,1.610,-0.290,188.889,77.778,383.333,1144.444,47.222,N
1845,-0.390,1.520,-0.340,191.667,66.667,386.111,1058.333,86.111,N
1846,-0.430,1.485,-0.300,166.667,75.000,383.333,1083.333,25.000,N
1847,-0.385,1.610,-0.360,166.667,77.778,377.778,1002.778,80.556,N
1848,-0.450,1.435,-0.365,180.556,80.556,402.778,1041.667,38.889,N
1849,-0.425,1.445,-0.290,152.778,80.556,402.778,1011.111,30.556,N
1850,-0.425,1.660,-0.285,186.111,61.111,386.111,933.333,77.778,N
1851,-0.430,1.600,-0.185,175.000,77.778,394.444,816.667,116.667,N
1852,-0.225,1.695,-0.080,161.111,72.222,388.889,886.111,69.444,N
1853,-0.225,1.625,-0.175,197.222,80.556,397.222,941.667,55.556,N
1854,-0.355,1.485,-0.290,191.667,72.222,391.667,825.000,116.667,N
1855,-0.505,1.390,-0.400,177.778,80.556,405.556,827.778,2.778,N
1856,-0.575,1.400,-0.420,194.444,80.556,405.556,872.222,44.444,N
1857,-0.550,1.295,-0.420,183.333,83.333,402.778,858.333,13.889,N
