id,Pamp,Ramp,Tamp,PR,QRS,QT,RRI,dRRI,label
1,-0.805,0.160,-0.650,113.889,116.667,302.778,952.778,50.000,N
2,-0.665,0.435,-0.605,130.556,100.000,286.111,977.778,25.000,N
3,-0.800,0.245,-0.665,119.444,113.889,311.111,986.111,8.333,N
4,-0.695,0.410,-0.475,105.556,97.222,313.889,997.222,11.111,N
5,-0.600,0.425,-0.550,113.889,102.778,322.222,997.222,0.000,N
6,-0.740,0.210,-0.690,172.222,108.333,322.222,1027.778,30.556,N
7,-0.890,0.080,-0.730,119.444,111.111,330.556,1022.222,5.556,N
8,-0.900,0.080,-0.790,125.000,97.222,288.889,1000.000,22.222,N
9,-0.950,-0.045,-0.875,155.556,100.000,-11372.222,1033.333,33.333,N
10,-0.875,-0.820,-0.875,12397.222,102.778,-12338.889,975.000,58.333,N
11,-0.875,-0.540,-0.875,13388.889,113.889,-13333.333,991.667,16.667,N
12,-0.945,-0.045,-0.665,144.444,102.778,316.667,1022.222,30.556,N
13,-0.460,0.590,-0.065,58.333,100.000,327.778,988.889,33.333,N
14,-0.050,0.805,-0.010,122.222,113.889,297.222,991.667,2.778,N
15,-0.330,0.500,-0.305,163.889,105.556,313.889,1011.111,19.444,N
16,-0.565,0.150,-0.585,166.667,111.111,322.222,1000.000,11.111,N
17,-0.775,0.070,-0.700,136.111,105.556,325.000,1000.000,0.000,N
18,-0.840,-0.020,-0.705,122.222,97.222,291.667,994.444,5.556,N
19,-0.845,0.035,-0.680,111.111,105.556,302.778,986.111,8.333,N
20,-0.795,0.130,-0.705,119.444,111.111,308.333,972.222,13.889,N
21,-0.760,0.200,-0.680,119.444,113.889,300.000,972.222,0.000,N
22,-0.825,0.065,-0.730,130.556,102.778,288.889,972.222,0.000,N
23,-0.950,-0.135,-0.800,105.556,108.333,319.444,980.556,8.333,N
24,-0.920,-0.020,-0.755,113.889,108.333,311.111,972.222,8.333,N
25,-0.895,0.120,-0.670,105.556,108.333,311.111,963.889,8.333,N
26,-0.845,0.080,-0.730,122.222,102.778,311.111,1005.556,41.667,N
27,-0.895,0.035,-0.690,116.667,113.889,300.000,975.000,30.556,N
28,-0.775,0.105,-0.655,116.667,105.556,305.556,963.889,11.111,N
29,-0.875,-0.040,-0.720,111.111,97.222,316.667,1011.111,47.222,N
30,-0.865,-0.025,-0.690,113.889,105.556,313.889,986.111,25.000,N
31,-0.775,0.160,-0.665,105.556,105.556,308.333,988.889,2.778,N
32,-0.830,0.090,-0.705,111.111,100.000,308.333,1005.556,16.667,N
33,-0.870,-0.020,-0.725,138.889,102.778,313.889,1000.000,5.556,N
34,-0.775,0.195,-0.710,122.222,105.556,322.222,1019.444,19.444,N
35,-0.805,0.185,-0.735,127.778,97.222,288.889,1038.889,19.444,N
36,-0.845,0.080,-0.745,119.444,100.000,288.889,1025.000,13.889,N
37,-0.815,0.125,-0.710,130.556,100.000,316.667,1044.444,19.444,N
38,-0.780,0.155,-0.645,108.333,102.778,313.889,1038.889,5.556,N
39,-0.700,0.235,-0.580,108.333,102.778,311.111,1038.889,0.000,N
40,-0.605,0.275,-0.465,127.778,102.778,319.444,1050.000,11.111,N
41,-0.595,0.380,-0.375,119.444,111.111,311.111,1027.778,22.222,N
42,-0.605,0.355,-0.485,108.333,111.111,311.111,1027.778,0.000,N
43,-0.685,0.250,-0.685,122.222,94.444,286.111,1050.000,22.222,N
44,-0.955,-0.070,-0.825,163.889,94.444,313.889,1002.778,47.222,N
45,-0.915,-0.065,-0.810,116.667,108.333,288.889,1019.444,16.667,N
46,-0.990,-0.180,-0.840,136.111,102.778,316.667,1019.444,0.000,N
47,-0.945,-0.030,-0.745,130.556,100.000,283.333,997.222,22.222,N
48,-0.830,0.010,-0.630,138.889,105.556,319.444,972.222,25.000,N
49,-0.760,0.105,-0.590,111.111,102.778,313.889,972.222,0.000,N
50,-0.685,0.245,-0.555,138.889,105.556,316.667,963.889,8.333,N
51,-0.660,0.270,-0.495,169.444,100.000,311.111,997.222,33.333,N
52,-0.655,0.200,-0.490,147.222,108.333,308.333,983.333,13.889,N
53,-0.625,0.265,-0.460,133.333,105.556,316.667,980.556,2.778,N
54,-0.590,0.420,-0.450,155.556,116.667,333.333,1022.222,41.667,N
55,-0.605,0.380,-0.495,122.222,105.556,316.667,1005.556,16.667,N
56,-0.680,0.290,-0.560,113.889,108.333,313.889,1019.444,13.889,N
57,-0.745,0.150,-0.625,111.111,108.333,313.889,1030.556,11.111,N
58,-0.710,0.290,-0.545,105.556,102.778,311.111,997.222,33.333,N
59,-0.735,0.135,-0.625,169.444,102.778,313.889,1033.333,36.111,N
60,-0.760,0.200,-0.590,127.778,102.778,288.889,1022.222,11.111,N
61,-0.760,0.190,-0.635,113.889,113.889,305.556,991.667,30.556,N
62,-0.780,0.135,-0.675,125.000,100.000,313.889,1011.111,19.444,N
63,-0.780,0.160,-0.655,102.778,100.000,313.889,1008.333,2.778,N
64,-0.780,0.265,-0.640,127.778,100.000,286.111,991.667,16.667,N
65,-0.800,0.190,-0.650,111.111,108.333,313.889,980.556,11.111,N
66,-0.840,0.130,-0.740,130.556,100.000,313.889,961.111,19.444,N
67,-0.925,-0.040,-0.815,122.222,102.778,294.444,958.333,2.778,N
68,-0.900,-0.020,-0.750,119.444,116.667,336.111,994.444,36.111,N
69,-0.845,0.185,-0.650,130.556,105.556,283.333,983.333,11.111,N
70,-0.830,0.205,-0.665,113.889,113.889,313.889,977.778,5.556,N
71,-0.770,0.205,-0.705,130.556,100.000,316.667,1016.667,38.889,N
72,-0.825,0.055,-0.725,116.667,113.889,308.333,991.667,25.000,N
73,-0.840,0.155,-0.665,136.111,105.556,294.444,983.333,8.333,N
74,-0.825,0.030,-0.685,116.667,102.778,297.222,1016.667,33.333,N
75,-0.845,0.125,-0.690,127.778,100.000,294.444,1008.333,8.333,N
76,-0.875,0.025,-0.710,147.222,105.556,316.667,1013.889,5.556,N
77,-0.795,0.230,-0.570,116.667,102.778,322.222,1025.000,11.111,N
78,-0.715,0.190,-0.650,161.111,105.556,288.889,1005.556,19.444,N
79,-0.860,0.105,-0.770,133.333,100.000,322.222,1030.556,25.000,N
80,-0.930,-0.020,-0.800,138.889,102.778,286.111,1038.889,8.333,N
81,-0.980,0.050,-0.840,138.889,102.778,316.667,1036.111,2.778,N
82,-0.980,-0.055,-0.825,125.000,102.778,316.667,1025.000,11.111,N
83,-0.930,-0.050,-0.780,133.333,102.778,319.444,1036.111,11.111,N
84,-0.705,0.320,-0.590,119.444,102.778,286.111,1025.000,11.111,N
85,-0.750,0.190,-0.680,113.889,108.333,311.111,1055.556,30.556,N
86,-0.860,0.065,-0.745,166.667,105.556,316.667,1025.000,30.556,N
87,-0.825,0.175,-0.670,119.444,113.889,300.000,1019.444,5.556,N
88,-0.775,0.150,-0.735,158.333,102.778,288.889,1036.111,16.667,N
89,-0.915,-0.065,-0.745,119.444,102.778,300.000,1033.333,2.778,N
90,-0.895,-0.010,-0.745,122.222,105.556,322.222,1002.778,30.556,N
91,-0.835,0.080,-0.720,119.444,111.111,325.000,1000.000,2.778,N
92,-0.865,0.000,-0.695,116.667,105.556,311.111,1022.222,22.222,N
93,-0.785,0.145,-0.660,141.667,105.556,316.667,1027.778,5.556,N
94,-0.835,0.030,-0.675,127.778,108.333,325.000,1019.444,8.333,N
95,-0.785,0.260,-0.515,133.333,102.778,316.667,1013.889,5.556,N
96,-0.715,0.175,-0.670,163.889,102.778,280.556,1033.333,19.444,N
97,-0.765,0.265,-0.580,119.444,102.778,288.889,1025.000,8.333,N
98,-0.715,0.275,-0.630,138.889,102.778,313.889,1011.111,13.889,N
99,-0.760,0.225,-0.680,119.444,97.222,316.667,1022.222,11.111,N
100,-0.795,0.200,-0.650,113.889,105.556,308.333,1019.444,2.778,N
101,-0.830,0.060,-0.770,141.667,102.778,313.889,1033.333,13.889,N
102,-0.845,0.120,-0.730,161.111,108.333,302.778,1047.222,13.889,N
103,-0.860,0.135,-0.735,116.667,113.889,308.333,1025.000,22.222,N
104,-0.825,0.150,-0.685,122.222,111.111,330.556,1041.667,16.667,N
105,-0.820,0.065,-0.750,113.889,94.444,319.444,1030.556,11.111,N
106,-0.800,0.090,-0.720,113.889,108.333,305.556,997.222,33.333,N
107,-0.840,0.040,-0.760,119.444,83.333,294.444,1002.778,5.556,N
108,-0.870,0.005,-0.775,108.333,102.778,319.444,983.333,19.444,N
109,-0.880,-0.065,-0.840,122.222,111.111,297.222,988.889,5.556,N
110,-0.885,0.030,-0.735,116.667,111.111,302.778,994.444,5.556,N
111,-0.810,0.075,-0.675,119.444,108.333,302.778,966.667,27.778,N
112,-0.810,0.135,-0.685,116.667,113.889,336.111,966.667,0.000,N
113,-0.815,0.105,-0.705,119.444,100.000,316.667,1013.889,47.222,N
114,-0.835,0.030,-0.690,119.444,97.222,288.889,988.889,25.000,N
115,-0.805,0.065,-0.675,119.444,111.111,333.333,969.444,19.444,N
116,-0.805,0.120,-0.680,113.889,108.333,311.111,988.889,19.444,N
117,-0.740,0.210,-0.640,111.111,105.556,280.556,966.667,22.222,N
118,-0.745,0.180,-0.660,130.556,100.000,316.667,986.111,19.444,N
119,-0.755,0.185,-0.635,116.667,94.444,286.111,988.889,2.778,N
120,-0.765,0.130,-0.680,108.333,100.000,283.333,988.889,0.000,N
121,-0.730,0.135,-0.635,144.444,97.222,319.444,1002.778,13.889,N
122,-0.805,0.025,-0.685,119.444,88.889,322.222,1013.889,11.111,N
123,-0.885,0.065,-0.750,122.222,102.778,283.333,1005.556,8.333,N
124,-0.740,0.145,-0.665,163.889,97.222,313.889,966.667,38.889,N
125,-0.875,0.075,-0.720,119.444,105.556,300.000,988.889,22.222,N
126,-0.905,0.035,-0.755,119.444,97.222,316.667,980.556,8.333,N
127,-0.850,0.020,-0.735,116.667,105.556,308.333,986.111,5.556,N
128,-0.845,0.035,-0.675,144.444,102.778,313.889,963.889,22.222,N
129,-0.845,-0.010,-0.740,136.111,108.333,313.889,961.111,2.778,N
130,-0.810,0.160,-0.660,122.222,100.000,280.556,958.333,2.778,N
131,-0.820,0.125,-0.655,113.889,105.556,313.889,947.222,11.111,N
132,-0.800,0.160,-0.700,105.556,108.333,288.889,927.778,19.444,N
133,-0.805,0.175,-0.695,113.889,116.667,313.889,944.444,16.667,N
134,-0.815,0.175,-0.670,119.444,97.222,286.111,950.000,5.556,N
135,-0.755,0.135,-0.680,113.889,116.667,305.556,952.778,2.778,N
136,-0.820,0.105,-0.685,166.667,105.556,294.444,980.556,27.778,N
137,-0.865,0.030,-0.715,158.333,94.444,316.667,961.111,19.444,N
138,-0.835,0.075,-0.660,127.778,102.778,319.444,972.222,11.111,N
139,-0.810,0.010,-0.625,144.444,105.556,313.889,980.556,8.333,N
140,-0.690,0.240,-0.540,113.889,102.778,308.333,936.111,44.444,N
141,-0.685,0.250,-0.580,161.111,97.222,286.111,950.000,13.889,N
142,-0.680,0.195,-0.565,113.889,108.333,280.556,950.000,0.000,N
143,-0.695,0.100,-0.610,141.667,108.333,319.444,930.556,19.444,N
144,-0.710,0.160,-0.670,141.667,111.111,308.333,908.333,22.222,N
145,-0.785,0.100,-0.730,122.222,113.889,302.778,936.111,27.778,N
146,-0.800,0.120,-0.730,125.000,105.556,291.667,938.889,2.778,N
147,-0.845,0.020,-0.765,136.111,105.556,308.333,955.556,16.667,N
148,-0.835,0.115,-0.770,147.222,108.333,319.444,1000.000,44.444,N
149,-0.875,-0.025,-0.875,150944.444,100.000,-150891.667,994.444,5.556,N
150,-0.875,-0.085,-0.965,151941.667,94.444,313.889,997.222,2.778,N
151,-0.875,-0.020,-0.850,152961.111,102.778,302.778,1019.444,22.222,N
152,-0.960,0.070,-0.745,113.889,108.333,305.556,994.444,25.000,N
153,-0.825,0.165,-0.695,105.556,97.222,311.111,986.111,8.333,N
154,-0.745,0.205,-0.605,108.333,100.000,311.111,1008.333,22.222,N
155,-0.660,0.240,-0.610,144.444,100.000,311.111,972.222,36.111,N
156,-0.690,0.235,-0.600,116.667,105.556,291.667,972.222,0.000,N
157,-0.710,0.295,-0.640,100.000,105.556,288.889,977.778,5.556,N
158,-0.735,0.290,-0.685,127.778,94.444,283.333,966.667,11.111,N
159,-0.815,0.180,-0.660,119.444,111.111,300.000,955.556,11.111,N
160,-0.780,0.170,-0.690,111.111,105.556,286.111,955.556,0.000,N
161,-0.780,0.165,-0.705,105.556,105.556,283.333,966.667,11.111,N
162,-0.885,0.025,-0.805,111.111,102.778,286.111,969.444,2.778,N
163,-0.930,-0.080,-0.865,119.444,97.222,286.111,983.333,13.889,N
164,-0.930,-0.025,-0.795,144.444,102.778,311.111,955.556,27.778,N
165,-0.955,-0.030,-0.825,113.889,116.667,305.556,969.444,13.889,N
166,-0.870,0.015,-0.795,113.889,116.667,311.111,972.222,2.778,N
167,-0.920,-0.020,-0.810,136.111,102.778,288.889,950.000,22.222,N
168,-0.900,0.000,-0.765,150.000,113.889,305.556,947.222,2.778,N
169,-0.805,0.140,-0.695,163.889,97.222,280.556,950.000,2.778,N
170,-0.800,0.105,-0.730,119.444,116.667,302.778,952.778,2.778,N
171,-0.935,0.010,-0.800,147.222,108.333,305.556,963.889,11.111,N
172,-0.895,0.040,-0.800,105.556,105.556,288.889,955.556,8.333,N
173,-0.875,-0.140,-0.980,174227.778,102.778,305.556,941.667,13.889,N
174,-0.875,-0.330,-0.875,175166.667,116.667,-175108.333,938.889,2.778,N
175,-0.875,-0.145,-0.885,176088.889,108.333,316.667,922.222,16.667,N
176,-0.855,0.000,-0.735,144.444,97.222,272.222,941.667,19.444,N
177,-0.850,-0.025,-0.720,147.222,113.889,302.778,905.556,36.111,N
178,-0.850,0.045,-0.715,136.111,102.778,288.889,916.667,11.111,N
179,-0.815,0.155,-0.615,116.667,108.333,311.111,913.889,2.778,N
180,-0.610,0.385,-0.480,172.222,102.778,313.889,925.000,11.111,N
181,-0.580,0.395,-0.465,155.556,113.889,302.778,947.222,22.222,N
182,-0.540,0.400,-0.535,163.889,100.000,247.222,944.444,2.778,N
183,-0.670,0.305,-0.580,119.444,102.778,286.111,958.333,13.889,N
184,-0.750,0.245,-0.710,108.333,100.000,300.000,961.111,2.778,N
185,-0.905,-0.020,-0.850,150.000,105.556,308.333,963.889,2.778,N
186,-0.875,-0.115,-0.865,186422.222,111.111,322.222,955.556,8.333,N
187,-0.875,-0.145,-0.865,187369.444,111.111,305.556,947.222,8.333,N
188,-0.875,-0.105,-0.845,188319.444,100.000,319.444,950.000,2.778,N
189,-0.965,0.025,-0.785,127.778,97.222,283.333,963.889,13.889,N
190,-0.845,0.130,-0.785,130.556,108.333,297.222,933.333,30.556,N
191,-0.945,0.045,-0.830,133.333,108.333,294.444,936.111,2.778,N
192,-0.990,-0.025,-0.830,111.111,102.778,283.333,977.778,41.667,N
193,-0.990,-0.095,-0.840,116.667,102.778,313.889,972.222,5.556,N
194,-0.975,-0.075,-0.820,158.333,116.667,302.778,941.667,30.556,N
195,-0.950,0.005,-0.715,144.444,108.333,305.556,963.889,22.222,N
196,-0.825,0.060,-0.695,116.667,113.889,305.556,969.444,5.556,N
197,-0.840,0.035,-0.685,119.444,105.556,305.556,997.222,27.778,N
198,-0.810,0.055,-0.655,141.667,102.778,286.111,1022.222,25.000,N
199,-0.800,0.040,-0.690,130.556,105.556,286.111,955.556,66.667,N
200,-0.870,-0.035,-0.715,147.222,105.556,311.111,988.889,33.333,N
201,-0.860,-0.050,-0.700,111.111,108.333,311.111,1030.556,41.667,N
202,-0.860,0.005,-0.685,125.000,108.333,291.667,1013.889,16.667,N
203,-0.810,0.120,-0.655,133.333,102.778,319.444,1005.556,8.333,N
204,-0.765,0.050,-0.630,141.667,105.556,319.444,1041.667,36.111,N
205,-0.765,0.050,-0.580,136.111,102.778,316.667,1033.333,8.333,N
206,-0.740,0.050,-0.590,147.222,105.556,311.111,1044.444,11.111,N
207,-0.820,-0.025,-0.730,169.444,102.778,316.667,1022.222,22.222,N
208,-0.800,0.095,-0.640,133.333,105.556,325.000,997.222,25.000,N
209,-0.810,-0.060,-0.710,166.667,100.000,313.889,1036.111,38.889,N
210,-0.800,0.100,-0.600,119.444,100.000,288.889,1022.222,13.889,N
211,-0.895,-0.130,-0.880,116.667,105.556,280.556,988.889,33.333,N
212,-0.875,-0.350,-0.875,212194.444,108.333,-212136.111,1016.667,27.778,N
213,-0.875,-0.195,-0.945,213197.222,94.444,283.333,1002.778,13.889,N
214,-0.875,-0.105,-0.800,214194.444,105.556,325.000,997.222,5.556,N
215,-0.945,-0.105,-0.865,163.889,105.556,302.778,1005.556,8.333,N
216,-0.875,-0.220,-0.935,216169.444,102.778,283.333,969.444,36.111,N
217,-0.875,-0.270,-0.865,217141.667,100.000,327.778,972.222,2.778,N
218,-0.970,-0.125,-0.820,116.667,97.222,319.444,986.111,13.889,N
219,-0.920,-0.035,-0.770,111.111,108.333,316.667,969.444,16.667,N
220,-0.915,-0.050,-0.745,155.556,105.556,338.889,958.333,11.111,N
221,-0.865,0.005,-0.745,158.333,116.667,316.667,969.444,11.111,N
222,-0.840,-0.005,-0.705,116.667,108.333,302.778,961.111,8.333,N
223,-0.780,0.065,-0.650,144.444,94.444,297.222,966.667,5.556,N
224,-0.745,0.105,-0.640,150.000,108.333,325.000,975.000,8.333,N
225,-0.770,0.085,-0.645,125.000,88.889,288.889,963.889,11.111,N
226,-0.820,0.015,-0.675,119.444,91.667,316.667,972.222,8.333,N
227,-0.790,0.070,-0.685,116.667,111.111,311.111,950.000,22.222,N
228,-0.755,0.145,-0.615,111.111,94.444,291.667,963.889,13.889,N
229,-0.755,0.105,-0.730,150.000,113.889,202.778,950.000,13.889,N
230,-0.805,0.105,-0.630,102.778,116.667,322.222,963.889,13.889,N
231,-0.710,0.085,-0.595,152.778,113.889,300.000,969.444,5.556,N
232,-0.650,0.250,-0.530,133.333,105.556,327.778,977.778,8.333,N
233,-0.755,0.145,-0.645,138.889,111.111,297.222,972.222,5.556,N
234,-0.890,0.025,-0.720,158.333,105.556,300.000,955.556,16.667,N
235,-0.815,0.090,-0.695,133.333,108.333,308.333,986.111,30.556,N
236,-0.535,0.315,-0.510,97.222,88.889,250.000,961.111,25.000,N
237,-0.655,0.220,-0.560,113.889,105.556,308.333,980.556,19.444,N
238,-0.765,0.095,-0.700,158.333,94.444,280.556,972.222,8.333,N
239,-0.975,-0.130,-0.890,141.667,105.556,311.111,958.333,13.889,N
240,-0.975,-0.030,-0.805,116.667,102.778,308.333,936.111,22.222,N
241,-0.875,-0.185,-0.875,240313.889,91.667,-240266.667,952.778,16.667,N
242,-0.875,-0.960,-0.875,241255.556,100.000,-241202.778,941.667,11.111,N
243,-0.875,-0.625,-0.875,242200.000,111.111,-242141.667,944.444,2.778,N
244,-0.875,-0.245,-0.920,243161.111,108.333,350.000,961.111,16.667,N
245,-0.890,0.060,-0.735,144.444,116.667,308.333,936.111,25.000,N
246,-0.700,0.400,-0.525,80.556,108.333,258.333,950.000,13.889,N
247,-0.435,0.550,-0.320,119.444,94.444,288.889,963.889,13.889,N
248,-0.310,0.650,-0.170,122.222,94.444,258.333,963.889,0.000,N
249,-0.240,0.670,-0.120,147.222,91.667,294.444,988.889,25.000,N
250,-0.230,0.675,-0.105,136.111,100.000,311.111,994.444,5.556,N
251,-0.480,0.475,-0.285,119.444,102.778,252.778,983.333,11.111,N
252,-0.540,0.345,-0.385,97.222,102.778,325.000,1005.556,22.222,N
253,-0.245,0.660,0.085,116.667,105.556,311.111,1019.444,13.889,N
254,-0.160,0.590,-0.150,138.889,116.667,325.000,997.222,22.222,N
255,-0.515,0.230,-0.595,172.222,105.556,313.889,966.667,30.556,N
256,-0.905,-0.140,-0.815,163.889,97.222,286.111,986.111,19.444,N
257,-0.990,-0.205,-0.865,147.222,108.333,311.111,975.000,11.111,N
258,-0.900,-0.010,-0.770,94.444,94.444,275.000,955.556,19.444,N
259,-0.875,0.115,-0.860,161.111,108.333,111.111,966.667,11.111,N
260,-0.875,-0.650,-0.875,258777.778,80.556,-258736.111,963.889,2.778,N
261,-0.875,-0.490,-0.875,259750.000,108.333,-259694.444,972.222,8.333,N
262,-0.875,-0.255,-0.920,260747.222,97.222,311.111,997.222,25.000,N
263,-0.975,-0.025,-0.815,125.000,111.111,325.000,972.222,25.000,N
264,-0.810,0.210,-0.575,97.222,97.222,291.667,972.222,0.000,N
265,-0.645,0.265,-0.515,111.111,83.333,269.444,977.778,5.556,N
266,-0.610,0.350,-0.500,141.667,102.778,325.000,997.222,19.444,N
267,-0.645,0.200,-0.545,150.000,116.667,302.778,1013.889,16.667,N
268,-0.715,0.130,-0.595,161.111,97.222,316.667,1005.556,8.333,N
269,-0.730,0.235,-0.625,113.889,105.556,305.556,986.111,19.444,N
270,-0.635,0.270,-0.470,116.667,91.667,283.333,1019.444,33.333,N
271,-0.505,0.360,-0.420,125.000,100.000,291.667,1027.778,8.333,N
272,-0.680,0.245,-0.485,105.556,94.444,305.556,1013.889,13.889,N
273,-0.190,0.850,0.335,55.556,111.111,313.889,1036.111,22.222,N
274,0.220,1.180,0.240,116.667,105.556,155.556,1008.333,27.778,N
275,-0.175,0.735,-0.190,133.333,97.222,280.556,1019.444,11.111,N
276,-0.645,0.250,-0.665,163.889,100.000,183.333,1033.333,13.889,N
277,-0.925,-0.045,-0.900,166.667,94.444,283.333,1000.000,33.333,N
278,-0.875,-0.335,-0.875,276844.444,108.333,-276786.111,1013.889,13.889,N
279,-0.875,-0.490,-0.875,277861.111,102.778,-277808.333,1016.667,2.778,N
280,-0.875,-0.530,-0.875,278872.222,100.000,-278819.444,1011.111,5.556,N
281,-0.875,-0.460,-0.875,279877.778,108.333,-279819.444,1005.556,5.556,N
282,-0.875,-0.315,-0.940,280891.667,100.000,280.556,1013.889,8.333,N
283,-0.875,-0.265,-0.930,281908.333,105.556,311.111,1016.667,2.778,N
284,-0.875,-0.275,-0.910,282944.444,105.556,313.889,1036.111,19.444,N
285,-0.960,0.010,-0.785,136.111,102.778,319.444,1025.000,11.111,N
286,-0.885,-0.080,-0.715,133.333,105.556,319.444,1033.333,8.333,N
287,-0.830,-0.020,-0.660,150.000,105.556,291.667,1061.111,27.778,N
288,-0.790,0.010,-0.610,130.556,100.000,311.111,1041.667,19.444,N
289,-0.665,0.330,-0.320,55.556,108.333,322.222,1030.556,11.111,N
290,-0.375,0.495,-0.260,133.333,100.000,288.889,1036.111,5.556,N
291,-0.440,0.400,-0.335,122.222,100.000,294.444,1030.556,5.556,N
292,-0.535,0.355,-0.445,122.222,97.222,316.667,1025.000,5.556,N
293,-0.625,0.245,-0.565,116.667,116.667,305.556,997.222,27.778,N
294,-0.745,0.025,-0.695,161.111,102.778,325.000,1008.333,11.111,N
295,-0.915,-0.145,-0.825,116.667,105.556,308.333,1027.778,19.444,N
296,-0.985,-0.080,-0.855,147.222,105.556,308.333,994.444,33.333,N
297,-0.975,-0.060,-0.825,133.333,100.000,319.444,988.889,5.556,N
298,-0.930,-0.030,-0.805,133.333,102.778,311.111,1002.778,13.889,N
299,-0.925,-0.080,-0.835,125.000,97.222,316.667,994.444,8.333,N
300,-0.875,-0.265,-0.915,299233.333,113.889,297.222,991.667,2.778,N
301,-0.875,-0.265,-0.880,300236.111,102.778,288.889,1002.778,11.111,N
302,-0.985,-0.205,-0.820,113.889,105.556,308.333,988.889,13.889,N
303,-0.875,-0.300,-0.945,302205.556,111.111,327.778,980.556,8.333,N
304,-0.875,-0.615,-0.875,303200.000,102.778,-303155.556,994.444,13.889,N
305,-0.875,-0.310,-0.920,304197.222,105.556,313.889,997.222,2.778,N
306,-0.880,-0.060,-0.675,125.000,97.222,316.667,980.556,16.667,N
307,-0.805,-0.015,-0.650,141.667,100.000,316.667,1005.556,25.000,N
308,-0.770,0.000,-0.620,144.444,105.556,313.889,1005.556,0.000,N
309,-0.775,0.030,-0.605,169.444,102.778,316.667,1027.778,22.222,N
310,-0.735,0.055,-0.570,113.889,111.111,313.889,1013.889,13.889,N
311,-0.655,0.185,-0.555,147.222,102.778,305.556,1000.000,13.889,N
312,-0.735,0.025,-0.600,116.667,97.222,308.333,1036.111,36.111,N
313,-0.780,-0.020,-0.635,136.111,100.000,319.444,1016.667,19.444,N
314,-0.770,-0.015,-0.605,113.889,102.778,313.889,1013.889,2.778,N
315,-0.725,0.165,-0.590,133.333,97.222,316.667,1019.444,5.556,N
316,-0.715,0.060,-0.575,113.889,111.111,302.778,1022.222,2.778,N
317,-0.690,0.070,-0.490,113.889,116.667,336.111,1033.333,11.111,N
318,-0.795,0.140,-0.470,136.111,108.333,316.667,1022.222,11.111,N
319,-0.680,0.070,-0.690,113.889,105.556,327.778,1005.556,16.667,N
320,-0.940,-0.165,-0.895,172.222,105.556,313.889,1030.556,25.000,N
321,-0.875,-0.455,-0.875,320441.667,97.222,-320400.000,1011.111,19.444,N
322,-0.875,0.060,-0.710,321422.222,100.000,316.667,980.556,30.556,N
323,-0.750,0.040,-0.710,113.889,94.444,308.333,1011.111,30.556,N
324,-0.840,-0.050,-0.705,144.444,102.778,341.667,972.222,38.889,N
325,-0.815,0.035,-0.665,111.111,108.333,311.111,966.667,5.556,N
326,-0.810,0.025,-0.625,119.444,102.778,313.889,1000.000,33.333,N
327,-0.695,0.195,-0.565,133.333,100.000,316.667,955.556,44.444,N
328,-0.730,0.185,-0.600,130.556,100.000,319.444,961.111,5.556,N
329,-0.775,0.035,-0.690,141.667,100.000,311.111,980.556,19.444,N
330,-0.835,-0.030,-0.690,127.778,105.556,319.444,955.556,25.000,N
331,-0.810,-0.020,-0.705,141.667,100.000,308.333,977.778,22.222,N
332,-0.850,0.105,-0.755,116.667,102.778,316.667,1000.000,22.222,N
333,-0.920,-0.065,-0.775,161.111,100.000,325.000,1025.000,25.000,N
334,-0.860,0.160,-0.610,66.667,102.778,316.667,1041.667,16.667,N
335,-0.680,0.205,-0.605,116.667,94.444,283.333,1016.667,25.000,N
336,-0.750,0.100,-0.690,111.111,102.778,311.111,1025.000,8.333,N
337,-0.840,-0.070,-0.725,158.333,97.222,319.444,1044.444,19.444,N
338,-0.765,0.220,-0.530,119.444,102.778,291.667,1036.111,8.333,N
339,-0.650,0.235,-0.595,111.111,102.778,311.111,1022.222,13.889,N
340,-0.755,0.105,-0.690,163.889,102.778,316.667,1019.444,2.778,N
341,-0.915,-0.125,-0.765,144.444,105.556,311.111,1013.889,5.556,N
342,-0.815,0.145,-0.670,113.889,108.333,311.111,1005.556,8.333,N
343,-0.805,0.125,-0.725,130.556,105.556,291.667,1011.111,5.556,N
344,-0.845,0.190,-0.685,105.556,116.667,336.111,994.444,16.667,N
345,-0.870,0.085,-0.750,100.000,102.778,313.889,1011.111,16.667,N
346,-0.925,-0.015,-0.785,102.778,100.000,316.667,1036.111,25.000,N
347,-0.875,-0.360,-0.950,346511.111,102.778,283.333,1005.556,30.556,N
348,-0.875,-0.885,-0.875,347480.556,100.000,-347425.000,969.444,36.111,N
349,-0.875,0.040,-0.685,348475.000,100.000,313.889,994.444,25.000,N
350,-0.665,0.270,-0.385,113.889,102.778,313.889,975.000,19.444,N
351,-0.375,0.575,-0.230,111.111,108.333,316.667,997.222,22.222,N
352,-0.415,0.430,-0.355,108.333,105.556,283.333,1000.000,2.778,N
353,-0.540,0.310,-0.400,100.000,102.778,316.667,994.444,5.556,N
354,-0.530,0.305,-0.375,169.444,105.556,319.444,1038.889,44.444,N
355,-0.545,0.285,-0.415,166.667,108.333,327.778,1027.778,11.111,N
356,-0.580,0.235,-0.470,152.778,100.000,291.667,1025.000,2.778,N
357,-0.720,0.230,-0.585,133.333,105.556,327.778,1038.889,13.889,N
358,-0.875,-0.840,-0.875,357572.222,100.000,-357519.444,1000.000,38.889,N
359,-0.875,-0.025,-0.520,358605.556,94.444,319.444,1033.333,33.333,N
360,-0.645,0.210,-0.545,119.444,116.667,311.111,1058.333,25.000,N
361,-0.775,0.115,-0.795,163.889,108.333,161.111,1044.444,13.889,N
362,-0.305,0.625,-0.095,113.889,102.778,316.667,1016.667,27.778,N
363,-0.310,0.505,-0.290,158.333,94.444,283.333,1047.222,30.556,N
364,-0.525,0.290,-0.480,163.889,108.333,316.667,1036.111,11.111,N
365,-0.860,-0.120,-0.760,138.889,108.333,319.444,1008.333,27.778,N
366,-0.925,0.100,-0.720,136.111,108.333,322.222,1000.000,8.333,N
367,-0.885,-0.005,-0.815,113.889,111.111,311.111,1011.111,11.111,N
368,-0.875,-0.120,-0.880,367855.556,102.778,316.667,1027.778,16.667,N
369,-0.990,-0.050,-0.840,94.444,100.000,291.667,986.111,41.667,N
370,-0.940,-0.020,-0.780,116.667,108.333,313.889,986.111,0.000,N
371,-0.890,0.030,-0.765,136.111,100.000,311.111,1025.000,38.889,N
372,-0.875,-0.070,-0.780,371852.778,100.000,319.444,1000.000,25.000,N
373,-0.865,0.050,-0.690,133.333,100.000,319.444,997.222,2.778,N
374,-0.675,0.125,-0.575,116.667,102.778,308.333,1016.667,19.444,N
375,-0.665,0.160,-0.565,138.889,97.222,308.333,997.222,19.444,N
376,-0.790,-0.010,-0.745,119.444,105.556,305.556,1005.556,8.333,N
377,-0.800,0.050,-0.615,122.222,97.222,313.889,1013.889,8.333,N
378,-0.580,0.290,-0.450,125.000,108.333,294.444,1002.778,11.111,N
379,-0.655,0.135,-0.595,172.222,105.556,286.111,1008.333,5.556,N
380,-0.775,0.050,-0.660,108.333,102.778,316.667,1000.000,8.333,N
381,-0.905,-0.155,-0.865,163.889,100.000,316.667,994.444,5.556,N
382,-0.875,-0.175,-0.855,381869.444,105.556,311.111,980.556,13.889,N
383,-0.945,-0.065,-0.880,130.556,97.222,280.556,983.333,2.778,N
384,-0.970,0.005,-0.735,133.333,100.000,297.222,966.667,16.667,N
385,-0.985,-0.030,-0.815,169.444,105.556,286.111,1013.889,47.222,N
386,-0.950,-0.050,-0.895,158.333,94.444,286.111,991.667,22.222,N
387,-0.875,-0.190,-0.900,386802.778,100.000,311.111,977.778,13.889,N
388,-0.845,0.030,-0.690,113.889,111.111,308.333,1008.333,30.556,N
389,-0.700,0.085,-0.725,158.333,116.667,302.778,969.444,38.889,N
390,-0.840,0.110,-0.560,108.333,97.222,311.111,958.333,11.111,N
391,-0.375,0.545,-0.170,80.556,97.222,308.333,969.444,11.111,N
392,-0.540,0.245,-0.740,175.000,102.778,141.667,966.667,2.778,N
393,-0.875,-0.320,-0.875,392636.111,108.333,-392577.778,961.111,5.556,N
394,-0.875,-0.300,-0.990,393602.778,102.778,313.889,966.667,5.556,N
395,-0.970,-0.075,-0.830,122.222,113.889,300.000,919.444,47.222,N
396,-0.795,0.165,-0.665,138.889,97.222,316.667,911.111,8.333,N
397,-0.585,0.315,-0.450,141.667,102.778,311.111,941.667,30.556,N
398,-0.430,0.440,-0.365,122.222,97.222,294.444,911.111,30.556,N
399,-0.400,0.340,-0.450,130.556,102.778,319.444,877.778,33.333,N
400,-0.640,0.110,-0.600,130.556,100.000,288.889,897.222,19.444,N
401,-0.615,0.285,-0.515,125.000,111.111,302.778,861.111,36.111,N
402,-0.525,0.345,-0.450,136.111,108.333,316.667,852.778,8.333,N
403,-0.465,0.440,-0.410,136.111,102.778,308.333,869.444,16.667,N
404,-0.435,0.405,-0.400,122.222,102.778,291.667,852.778,16.667,N
405,-0.460,0.405,-0.510,133.333,105.556,291.667,866.667,13.889,N
406,-0.685,0.125,-0.695,144.444,108.333,311.111,883.333,16.667,N
407,-0.765,0.140,-0.700,141.667,100.000,313.889,897.222,13.889,N
408,-0.695,0.150,-0.625,119.444,105.556,308.333,908.333,11.111,N
409,-0.620,0.240,-0.630,138.889,100.000,313.889,894.444,13.889,N
410,-0.745,0.075,-0.685,141.667,105.556,311.111,905.556,11.111,N
411,-0.720,0.125,-0.715,133.333,100.000,311.111,888.889,16.667,N
412,-0.835,0.025,-0.805,119.444,111.111,300.000,891.667,2.778,N
413,-0.875,-0.415,-0.875,410527.778,100.000,-410483.333,894.444,2.778,N
414,-0.875,-0.605,-0.875,411402.778,97.222,-411352.778,875.000,19.444,N
415,-0.875,-0.315,-0.875,412266.667,111.111,-412208.333,863.889,11.111,N
416,-0.870,-0.020,-0.900,127.778,105.556,308.333,888.889,25.000,N
417,-0.680,0.245,-0.490,141.667,105.556,305.556,869.444,19.444,N
418,-0.705,0.215,-0.585,108.333,108.333,211.111,858.333,11.111,N
419,-0.545,0.370,-0.405,144.444,105.556,311.111,872.222,13.889,N
420,-0.380,0.395,-0.390,138.889,105.556,294.444,883.333,11.111,N
421,-0.495,0.310,-0.405,136.111,105.556,291.667,894.444,11.111,N
422,-0.515,0.280,-0.495,130.556,94.444,286.111,905.556,11.111,N
423,-0.580,0.225,-0.530,141.667,105.556,313.889,913.889,8.333,N
424,-0.660,0.060,-0.645,136.111,97.222,305.556,936.111,22.222,N
425,-0.755,0.105,-0.620,136.111,105.556,316.667,958.333,22.222,N
426,-0.630,0.230,-0.575,116.667,105.556,308.333,944.444,13.889,N
427,-0.610,0.230,-0.560,133.333,100.000,283.333,919.444,25.000,N
428,-0.750,0.085,-0.695,166.667,102.778,319.444,941.667,22.222,N
429,-0.830,0.085,-0.730,161.111,102.778,291.667,927.778,13.889,N
430,-0.875,0.005,-0.830,116.667,113.889,300.000,955.556,27.778,N
431,-0.875,-0.100,-0.940,426902.778,113.889,305.556,966.667,11.111,N
432,-0.875,-0.125,-0.945,427863.889,102.778,313.889,961.111,5.556,N
433,-0.875,-0.225,-0.950,428819.444,105.556,319.444,955.556,5.556,N
434,-0.875,-0.110,-0.925,429786.111,100.000,316.667,966.667,11.111,N
435,-0.875,-0.220,-0.940,430750.000,105.556,288.889,963.889,2.778,N
436,-0.875,-0.325,-0.975,431700.000,102.778,308.333,950.000,13.889,N
437,-0.875,-0.285,-0.935,432650.000,111.111,322.222,950.000,0.000,N
438,-0.875,-0.190,-0.875,433588.889,102.778,280.556,938.889,11.111,N
439,-0.945,-0.155,-0.790,127.778,102.778,286.111,927.778,11.111,N
440,-0.915,-0.120,-0.770,147.222,102.778,308.333,950.000,22.222,N
441,-0.880,0.015,-0.725,113.889,116.667,311.111,936.111,13.889,N
442,-0.815,0.030,-0.680,119.444,116.667,302.778,936.111,0.000,N
443,-0.785,0.045,-0.670,122.222,108.333,297.222,975.000,38.889,N
444,-0.775,0.100,-0.635,144.444,111.111,308.333,955.556,19.444,N
445,-0.680,0.245,-0.560,102.778,108.333,316.667,961.111,5.556,N
446,-0.570,0.330,-0.470,113.889,108.333,311.111,972.222,11.111,N
447,-0.545,0.380,-0.510,166.667,97.222,288.889,986.111,13.889,N
448,-0.750,0.120,-0.685,163.889,94.444,288.889,997.222,11.111,N
449,-0.845,-0.005,-0.805,116.667,102.778,305.556,1022.222,25.000,N
450,-0.970,-0.160,-0.900,133.333,100.000,288.889,986.111,36.111,N
451,-0.990,-0.100,-0.845,161.111,108.333,288.889,958.333,27.778,N
452,-0.980,-0.110,-0.850,113.889,100.000,311.111,986.111,27.778,N
453,-0.935,-0.010,-0.830,111.111,102.778,313.889,966.667,19.444,N
454,-0.900,0.005,-0.770,119.444,102.778,305.556,941.667,25.000,N
455,-0.850,0.050,-0.725,158.333,102.778,286.111,972.222,30.556,N
456,-0.845,0.000,-0.755,122.222,94.444,283.333,969.444,2.778,N
457,-0.830,0.065,-0.715,113.889,105.556,313.889,986.111,16.667,N
458,-0.810,-0.020,-0.855,119.444,113.889,127.778,980.556,5.556,N
459,-0.810,0.020,-0.655,144.444,113.889,311.111,955.556,25.000,N
460,-0.790,0.045,-0.690,150.000,113.889,308.333,938.889,16.667,N
461,-0.840,-0.035,-0.735,113.889,111.111,297.222,972.222,33.333,N
462,-0.850,0.000,-0.690,136.111,105.556,316.667,952.778,19.444,N
463,-0.825,0.100,-0.650,130.556,94.444,283.333,919.444,33.333,N
464,-0.730,0.125,-0.660,141.667,100.000,277.778,955.556,36.111,N
465,-0.765,0.040,-0.655,136.111,116.667,308.333,933.333,22.222,N
466,-0.730,0.100,-0.645,130.556,108.333,327.778,947.222,13.889,N
467,-0.725,0.230,-0.615,133.333,105.556,288.889,969.444,22.222,N
468,-0.745,0.110,-0.660,122.222,105.556,291.667,958.333,11.111,N
469,-0.795,0.085,-0.675,169.444,108.333,322.222,980.556,22.222,N
470,-0.810,0.045,-0.670,108.333,102.778,313.889,1002.778,22.222,N
471,-0.820,0.155,-0.645,133.333,102.778,280.556,997.222,5.556,N
472,-0.705,0.270,-0.580,125.000,108.333,291.667,963.889,33.333,N
473,-0.835,0.035,-0.875,155.556,113.889,-467338.889,991.667,27.778,N
474,-0.875,-0.175,-0.905,468377.778,105.556,319.444,983.333,8.333,N
475,-0.900,0.125,-0.765,111.111,105.556,311.111,972.222,11.111,N
476,-0.825,0.140,-0.685,113.889,108.333,305.556,977.778,5.556,N
477,-0.730,0.295,-0.615,113.889,105.556,302.778,963.889,13.889,N
478,-0.685,0.280,-0.585,175.000,102.778,313.889,994.444,30.556,N
479,-0.565,0.410,-0.480,169.444,100.000,283.333,997.222,2.778,N
480,-0.615,0.200,-0.560,155.556,100.000,286.111,986.111,11.111,N
481,-0.680,0.285,-0.540,119.444,102.778,291.667,963.889,22.222,N
482,-0.655,0.265,-0.530,108.333,100.000,316.667,983.333,19.444,N
483,-0.710,0.220,-0.585,161.111,97.222,313.889,991.667,8.333,N
484,-0.745,0.085,-0.655,119.444,91.667,283.333,994.444,2.778,N
485,-0.690,0.200,-0.615,136.111,100.000,277.778,950.000,44.444,N
486,-0.755,0.115,-0.820,97.222,105.556,286.111,955.556,5.556,N
487,-0.985,-0.195,-0.920,141.667,113.889,319.444,969.444,13.889,N
488,-0.875,-0.130,-0.930,482013.889,102.778,316.667,936.111,33.333,N
489,-0.875,-0.210,-0.930,482930.556,113.889,316.667,916.667,19.444,N
490,-0.875,0.065,-0.770,141.667,102.778,286.111,927.778,11.111,N
491,-0.660,0.260,-0.575,116.667,113.889,308.333,908.333,19.444,N
492,-0.540,0.360,-0.510,125.000,100.000,300.000,938.889,30.556,N
493,-0.520,0.380,-0.430,133.333,108.333,316.667,980.556,41.667,N
494,-0.505,0.465,-0.410,116.667,113.889,300.000,958.333,22.222,N
495,-0.540,0.380,-0.490,163.889,105.556,319.444,966.667,8.333,N
496,-0.680,0.225,-0.650,119.444,100.000,286.111,1002.778,36.111,N
497,-0.830,0.020,-0.695,100.000,105.556,291.667,975.000,27.778,N
498,-0.815,0.115,-0.665,116.667,108.333,308.333,947.222,27.778,N
499,-0.865,-0.015,-0.755,127.778,100.000,291.667,977.778,30.556,N
500,-0.905,0.025,-0.690,108.333,105.556,316.667,950.000,27.778,N
501,-0.835,0.050,-0.680,111.111,105.556,313.889,933.333,16.667,N
502,-0.785,0.045,-0.670,113.889,108.333,311.111,941.667,8.333,N
503,-0.775,0.110,-0.655,119.444,111.111,302.778,938.889,2.778,N
504,-0.780,0.055,-0.600,116.667,116.667,305.556,966.667,27.778,N
505,-0.660,0.240,-0.550,119.444,97.222,283.333,1005.556,38.889,N
506,-0.745,0.090,-0.640,150.000,116.667,302.778,994.444,11.111,N
507,-0.785,0.170,-0.640,133.333,100.000,313.889,1011.111,16.667,N
508,-0.795,0.110,-0.720,111.111,111.111,311.111,1013.889,2.778,N
509,-0.890,0.015,-0.740,130.556,108.333,319.444,1022.222,8.333,N
510,-0.865,0.065,-0.750,122.222,108.333,330.556,994.444,27.778,N
511,-0.840,0.010,-0.825,150.000,116.667,308.333,1025.000,30.556,N
512,-0.965,0.030,-0.810,116.667,108.333,302.778,1005.556,19.444,N
513,-0.945,0.000,-0.790,172.222,100.000,313.889,1013.889,8.333,N
514,-0.900,-0.025,-0.755,163.889,105.556,319.444,1000.000,13.889,N
515,-0.870,-0.020,-0.715,141.667,100.000,313.889,977.778,22.222,N
516,-0.845,-0.025,-0.745,150.000,116.667,305.556,975.000,2.778,N
517,-0.865,0.000,-0.715,138.889,108.333,311.111,958.333,16.667,N
518,-0.855,-0.010,-0.735,105.556,108.333,316.667,963.889,5.556,N
519,-0.860,-0.005,-0.710,111.111,111.111,308.333,975.000,11.111,N
520,-0.790,0.120,-0.635,108.333,105.556,311.111,958.333,16.667,N
521,-0.775,0.090,-0.665,113.889,116.667,305.556,944.444,13.889,N
522,-0.820,0.050,-0.700,119.444,111.111,302.778,972.222,27.778,N
523,-0.850,0.030,-0.795,116.667,113.889,308.333,963.889,8.333,N
524,-0.875,-0.165,-0.975,516975.000,102.778,311.111,955.556,8.333,N
525,-0.875,-0.080,-0.845,517947.222,108.333,308.333,972.222,16.667,N
526,-0.890,0.025,-0.690,122.222,100.000,286.111,977.778,5.556,N
527,-0.765,0.135,-0.560,133.333,108.333,322.222,977.778,0.000,N
528,-0.660,0.265,-0.510,138.889,105.556,313.889,1008.333,30.556,N
529,-0.665,0.330,-0.475,136.111,105.556,313.889,997.222,11.111,N
530,-0.630,0.240,-0.500,119.444,111.111,300.000,983.333,13.889,N
531,-0.585,0.310,-0.430,147.222,94.444,305.556,1030.556,47.222,N
532,-0.650,0.210,-0.545,158.333,94.444,286.111,1005.556,25.000,N
533,-0.675,0.245,-0.605,130.556,102.778,286.111,944.444,61.111,N
534,-0.810,0.090,-0.725,102.778,108.333,319.444,972.222,27.778,N
535,-0.875,-0.075,-0.760,116.667,111.111,300.000,983.333,11.111,N
536,-0.900,-0.080,-0.785,116.667,113.889,305.556,994.444,11.111,N
537,-0.905,-0.070,-0.765,138.889,105.556,316.667,991.667,2.778,N
538,-0.830,0.060,-0.685,108.333,105.556,316.667,972.222,19.444,N
539,-0.805,0.045,-0.680,166.667,111.111,319.444,994.444,22.222,N
540,-0.875,-0.205,-0.975,532772.222,102.778,316.667,991.667,2.778,N
541,-0.835,0.125,-0.695,108.333,111.111,208.333,986.111,5.556,N
542,-0.600,0.370,-0.515,119.444,91.667,288.889,975.000,11.111,N
543,-0.485,0.400,-0.420,111.111,108.333,313.889,991.667,16.667,N
544,-0.665,0.215,-0.640,116.667,91.667,297.222,1002.778,11.111,N
545,-0.850,-0.035,-0.845,166.667,97.222,286.111,1022.222,19.444,N
546,-0.875,-0.170,-0.970,538733.333,100.000,297.222,983.333,38.889,N
547,-0.875,-0.145,-0.830,539719.444,105.556,319.444,986.111,2.778,N
548,-0.830,-0.055,-0.810,111.111,111.111,169.444,1016.667,30.556,N
549,-0.755,0.100,-0.550,111.111,111.111,316.667,986.111,30.556,N
550,-0.670,0.115,-0.570,136.111,105.556,283.333,966.667,19.444,N
551,-0.735,0.295,-0.510,55.556,100.000,286.111,986.111,19.444,N
552,-0.590,0.275,-0.560,108.333,100.000,313.889,980.556,5.556,N
553,-0.750,0.110,-0.635,111.111,102.778,302.778,1011.111,30.556,N
554,-0.635,0.210,-0.490,119.444,100.000,305.556,1005.556,5.556,N
555,-0.595,0.245,-0.575,169.444,100.000,288.889,1013.889,8.333,N
556,-0.730,0.035,-0.730,122.222,105.556,322.222,1027.778,13.889,N
557,-0.975,-0.135,-0.915,158.333,97.222,286.111,1030.556,2.778,N
558,-0.875,-0.150,-0.890,550752.778,100.000,283.333,1008.333,22.222,N
559,-0.880,0.065,-0.765,113.889,100.000,308.333,1013.889,5.556,N
560,-0.815,0.085,-0.700,119.444,102.778,288.889,1013.889,0.000,N
561,-0.785,0.110,-0.695,133.333,100.000,319.444,1011.111,2.778,N
562,-0.755,0.060,-0.685,119.444,116.667,308.333,1019.444,8.333,N
563,-0.790,0.015,-0.730,155.556,102.778,288.889,1002.778,16.667,N
564,-0.825,0.110,-0.650,163.889,105.556,322.222,1008.333,5.556,N
565,-0.775,0.065,-0.675,122.222,94.444,294.444,1025.000,16.667,N
566,-0.765,0.110,-0.640,108.333,102.778,313.889,1019.444,5.556,N
567,-0.740,0.155,-0.625,138.889,105.556,316.667,997.222,22.222,N
568,-0.785,0.045,-0.675,152.778,102.778,308.333,1013.889,16.667,N
569,-0.815,-0.025,-0.685,163.889,111.111,325.000,977.778,36.111,N
570,-0.780,0.030,-0.655,113.889,102.778,313.889,986.111,8.333,N
571,-0.765,0.000,-0.650,105.556,105.556,319.444,988.889,2.778,N
572,-0.830,0.005,-0.715,166.667,102.778,316.667,1000.000,11.111,N
573,-0.880,-0.095,-0.760,119.444,102.778,291.667,1019.444,19.444,N
574,-0.850,-0.035,-0.700,144.444,102.778,311.111,1022.222,2.778,N
575,-0.790,0.000,-0.600,113.889,111.111,344.444,1005.556,16.667,N
576,-0.655,0.105,-0.515,141.667,116.667,311.111,1033.333,27.778,N
577,-0.620,0.285,-0.445,136.111,100.000,313.889,1022.222,11.111,N
578,-0.655,0.060,-0.850,147.222,91.667,291.667,1011.111,11.111,N
579,-0.865,-0.050,-0.740,127.778,111.111,305.556,1008.333,2.778,N
580,-0.870,-0.065,-0.800,158.333,97.222,286.111,1002.778,5.556,N
581,-0.925,-0.130,-0.775,169.444,102.778,311.111,1019.444,16.667,N
582,-0.880,-0.015,-0.720,130.556,100.000,311.111,1025.000,5.556,N
583,-0.810,0.020,-0.595,113.889,105.556,308.333,1022.222,2.778,N
584,-0.655,0.270,-0.560,111.111,108.333,313.889,991.667,30.556,N
585,-0.720,0.045,-0.565,113.889,108.333,311.111,1002.778,11.111,N
586,-0.725,-0.095,-0.910,144.444,111.111,313.889,1002.778,0.000,N
587,-0.585,0.375,-0.345,116.667,100.000,316.667,1027.778,25.000,N
588,-0.510,0.315,-0.410,116.667,102.778,305.556,1008.333,19.444,N
589,-0.625,0.205,-0.535,138.889,100.000,308.333,1016.667,8.333,N
590,-0.670,0.155,-0.545,150.000,102.778,311.111,1050.000,33.333,N
591,-0.740,0.115,-0.655,113.889,100.000,316.667,1041.667,8.333,N
592,-0.820,0.040,-0.685,166.667,111.111,327.778,1041.667,0.000,N
593,-0.790,0.120,-0.660,133.333,102.778,316.667,1066.667,25.000,N
594,-0.800,0.160,-0.585,105.556,102.778,313.889,1044.444,22.222,N
595,-0.725,0.230,-0.705,113.889,116.667,311.111,1077.778,33.333,N
596,-0.730,0.095,-0.595,116.667,105.556,313.889,1063.889,13.889,N
597,-0.725,0.085,-0.610,125.000,97.222,319.444,1047.222,16.667,N
598,-0.745,0.055,-0.620,138.889,105.556,316.667,1077.778,30.556,N
599,-0.780,-0.035,-0.650,119.444,111.111,311.111,1047.222,30.556,N
600,-0.780,0.070,-0.635,116.667,111.111,336.111,1033.333,13.889,N
601,-0.760,0.065,-0.670,161.111,97.222,319.444,1041.667,8.333,N
602,-0.795,0.025,-0.680,150.000,111.111,344.444,1058.333,16.667,N
603,-0.830,-0.035,-0.790,147.222,116.667,344.444,1066.667,8.333,N
604,-0.750,0.190,-0.560,122.222,111.111,336.111,1041.667,25.000,N
605,-0.745,0.150,-0.640,116.667,100.000,305.556,1027.778,13.889,N
606,-0.835,-0.065,-0.775,152.778,111.111,330.556,1038.889,11.111,N
607,-0.870,-0.035,-0.790,161.111,100.000,319.444,1002.778,36.111,N
608,-0.910,-0.160,-0.775,152.778,102.778,288.889,1000.000,2.778,N
609,-0.850,-0.075,-0.695,136.111,105.556,316.667,1013.889,13.889,N
610,-0.765,0.030,-0.635,127.778,102.778,319.444,997.222,16.667,N
611,-0.755,0.055,-0.670,130.556,100.000,316.667,1000.000,2.778,N
612,-0.800,-0.050,-0.720,136.111,105.556,308.333,1041.667,41.667,N
613,-0.885,-0.105,-0.795,136.111,108.333,322.222,1027.778,13.889,N
614,-0.955,-0.140,-0.865,172.222,108.333,325.000,1036.111,8.333,N
615,-0.975,-0.205,-0.825,166.667,100.000,319.444,1063.889,27.778,N
616,-0.955,-0.145,-0.830,105.556,102.778,319.444,1044.444,19.444,N
617,-0.955,-0.135,-0.840,141.667,100.000,313.889,1030.556,13.889,N
618,-0.935,-0.180,-0.805,116.667,105.556,325.000,1050.000,19.444,N
619,-0.910,-0.135,-0.755,108.333,105.556,313.889,1055.556,5.556,N
620,-0.820,0.095,-0.655,138.889,100.000,316.667,1066.667,11.111,N
621,-0.805,-0.005,-0.700,166.667,100.000,316.667,1027.778,38.889,N
622,-0.810,-0.005,-0.675,144.444,102.778,311.111,1041.667,13.889,N
623,-0.710,0.165,-0.645,141.667,102.778,313.889,1063.889,22.222,N
624,-0.815,0.000,-0.660,125.000,97.222,322.222,1052.778,11.111,N
625,-0.745,0.180,-0.590,133.333,105.556,350.000,1038.889,13.889,N
626,-0.790,0.085,-0.685,141.667,105.556,311.111,1047.222,8.333,N
627,-0.775,0.050,-0.635,111.111,105.556,319.444,1063.889,16.667,N
628,-0.720,0.250,-0.550,136.111,108.333,319.444,1063.889,0.000,N
629,-0.695,0.105,-0.625,119.444,105.556,322.222,1019.444,44.444,N
630,-0.860,-0.060,-0.775,136.111,100.000,341.667,1013.889,5.556,N
631,-0.915,-0.160,-0.795,150.000,113.889,338.889,1047.222,33.333,N
632,-0.885,0.010,-0.800,122.222,97.222,286.111,1005.556,41.667,N
633,-0.965,-0.165,-0.850,119.444,100.000,319.444,1002.778,2.778,N
634,-0.945,-0.140,-0.790,111.111,108.333,347.222,1025.000,22.222,N
635,-0.825,0.110,-0.725,116.667,108.333,311.111,1000.000,25.000,N
636,-0.890,-0.115,-0.760,111.111,105.556,322.222,1027.778,27.778,N
637,-0.800,-0.010,-0.635,111.111,108.333,319.444,1033.333,5.556,N
638,-0.690,0.105,-0.620,113.889,116.667,336.111,1013.889,19.444,N
639,-0.805,0.030,-0.690,108.333,108.333,319.444,1050.000,36.111,N
640,-0.800,-0.020,-0.630,111.111,113.889,344.444,1044.444,5.556,N
641,-0.750,0.120,-0.685,133.333,108.333,319.444,1016.667,27.778,N
642,-0.805,-0.030,-0.665,111.111,105.556,319.444,1044.444,27.778,N
643,-0.690,0.190,-0.525,52.778,108.333,327.778,1013.889,30.556,N
644,-0.700,0.105,-0.610,169.444,108.333,347.222,1022.222,8.333,N
645,-0.730,0.060,-0.600,158.333,97.222,322.222,1047.222,25.000,N
646,-0.685,0.205,-0.625,138.889,105.556,319.444,1019.444,27.778,N
647,-0.805,-0.010,-0.700,141.667,100.000,313.889,1030.556,11.111,N
648,-0.770,0.105,-0.655,111.111,102.778,344.444,1038.889,8.333,N
649,-0.775,0.160,-0.740,127.778,100.000,286.111,1022.222,16.667,N
650,-0.855,0.045,-0.755,127.778,108.333,300.000,1027.778,5.556,N
651,-0.860,0.070,-0.740,108.333,105.556,316.667,1016.667,11.111,N
652,-0.905,0.015,-0.785,108.333,102.778,313.889,994.444,22.222,N
653,-0.845,0.170,-0.730,127.778,100.000,319.444,1025.000,30.556,N
654,-0.780,0.240,-0.695,113.889,105.556,311.111,986.111,38.889,N
655,-0.800,0.115,-0.755,152.778,113.889,327.778,1013.889,27.778,N
656,-0.865,0.060,-0.700,155.556,100.000,330.556,1033.333,19.444,N
657,-0.840,-0.035,-0.730,169.444,102.778,311.111,1016.667,16.667,N
658,-0.865,-0.085,-0.745,172.222,105.556,319.444,1002.778,13.889,N
659,-0.865,0.045,-0.680,144.444,102.778,316.667,1000.000,2.778,N
660,-0.800,0.050,-0.665,136.111,102.778,316.667,994.444,5.556,N
661,-0.760,0.060,-0.610,152.778,108.333,336.111,1019.444,25.000,N
662,-0.725,0.110,-0.580,133.333,105.556,330.556,1011.111,8.333,N
663,-0.670,0.225,-0.530,136.111,105.556,319.444,1002.778,8.333,N
664,-0.710,0.150,-0.620,144.444,105.556,311.111,1011.111,8.333,N
665,-0.775,0.035,-0.660,116.667,108.333,313.889,1005.556,5.556,N
666,-0.825,0.065,-0.695,111.111,102.778,316.667,997.222,8.333,N
667,-0.880,-0.060,-0.805,161.111,105.556,291.667,1013.889,16.667,N
668,-0.975,-0.145,-0.860,108.333,102.778,316.667,1013.889,0.000,N
669,-0.965,-0.010,-0.785,111.111,105.556,347.222,1036.111,22.222,N
670,-0.975,-0.110,-0.850,113.889,108.333,313.889,1038.889,2.778,N
671,-0.950,-0.110,-0.790,113.889,102.778,311.111,1033.333,5.556,N
672,-0.835,0.165,-0.645,125.000,97.222,316.667,1052.778,19.444,N
673,-0.875,0.005,-0.770,169.444,102.778,316.667,1041.667,11.111,N
674,-0.915,-0.010,-0.755,113.889,102.778,305.556,1044.444,2.778,N
675,-0.785,0.165,-0.735,141.667,100.000,308.333,1025.000,19.444,N
676,-0.880,-0.015,-0.720,141.667,105.556,313.889,1036.111,11.111,N
677,-0.775,0.135,-0.595,119.444,105.556,333.333,1044.444,8.333,N
678,-0.705,0.250,-0.615,122.222,102.778,319.444,1011.111,33.333,N
679,-0.725,0.155,-0.600,136.111,102.778,316.667,1038.889,27.778,N
680,-0.695,0.250,-0.540,147.222,111.111,344.444,1044.444,5.556,N
681,-0.710,0.210,-0.630,133.333,105.556,319.444,1022.222,22.222,N
682,-0.790,0.070,-0.690,136.111,102.778,308.333,1047.222,25.000,N
683,-0.750,0.265,-0.630,141.667,102.778,319.444,1022.222,25.000,N
684,-0.865,-0.010,-0.790,147.222,105.556,341.667,1013.889,8.333,N
685,-0.915,-0.070,-0.740,122.222,102.778,333.333,1041.667,27.778,N
686,-0.805,0.175,-0.715,147.222,102.778,297.222,1033.333,8.333,N
687,-0.885,0.010,-0.690,130.556,102.778,316.667,1008.333,25.000,N
688,-0.730,0.215,-0.660,113.889,105.556,350.000,983.333,25.000,N
689,-0.760,0.050,-0.695,144.444,102.778,313.889,1030.556,47.222,N
690,-0.815,0.030,-0.675,144.444,102.778,341.667,1002.778,27.778,N
691,-0.790,0.125,-0.735,138.889,102.778,311.111,963.889,38.889,N
692,-0.885,-0.060,-0.750,113.889,111.111,313.889,1005.556,41.667,N
693,-0.850,0.000,-0.650,116.667,105.556,341.667,1005.556,0.000,N
694,-0.705,0.215,-0.605,144.444,105.556,352.778,994.444,11.111,N
695,-0.740,0.105,-0.515,116.667,111.111,336.111,1008.333,13.889,N
696,-0.630,0.300,-0.555,161.111,97.222,283.333,975.000,33.333,N
697,-0.695,0.190,-0.565,136.111,105.556,319.444,1011.111,36.111,N
698,-0.695,0.180,-0.500,119.444,100.000,338.889,1011.111,0.000,N
699,-0.530,0.515,-0.425,133.333,94.444,313.889,983.333,27.778,N
700,-0.685,0.200,-0.735,163.889,105.556,294.444,1000.000,16.667,N
701,-0.895,-0.020,-0.835,138.889,97.222,305.556,1016.667,16.667,N
702,-0.940,-0.125,-0.795,122.222,111.111,333.333,1008.333,8.333,N
703,-0.880,0.015,-0.670,122.222,108.333,333.333,1033.333,25.000,N
704,-0.725,0.210,-0.625,130.556,102.778,316.667,983.333,50.000,N
705,-0.745,0.160,-0.600,111.111,108.333,341.667,1005.556,22.222,N
706,-0.705,0.160,-0.590,122.222,97.222,319.444,1019.444,13.889,N
707,-0.775,-0.010,-0.690,163.889,97.222,316.667,1002.778,16.667,N
708,-0.800,0.075,-0.705,141.667,102.778,319.444,980.556,22.222,N
709,-0.825,-0.015,-0.725,138.889,105.556,316.667,997.222,16.667,N
710,-0.730,0.280,-0.555,97.222,100.000,319.444,991.667,5.556,N
711,-0.705,0.090,-0.605,133.333,102.778,316.667,1002.778,11.111,N
712,-0.750,0.220,-0.640,169.444,100.000,288.889,1000.000,2.778,N
713,-0.725,0.110,-0.670,161.111,102.778,316.667,994.444,5.556,N
714,-0.760,0.085,-0.640,127.778,91.667,322.222,1002.778,8.333,N
715,-0.760,0.110,-0.660,119.444,108.333,308.333,988.889,13.889,N
716,-0.785,0.100,-0.670,113.889,102.778,316.667,994.444,5.556,N
717,-0.770,0.095,-0.660,158.333,102.778,316.667,1013.889,19.444,N
718,-0.775,0.080,-0.655,125.000,108.333,302.778,1000.000,13.889,N
719,-0.705,0.300,-0.600,116.667,100.000,275.000,991.667,8.333,N
720,-0.735,0.215,-0.650,119.444,113.889,302.778,1002.778,11.111,N
721,-0.830,0.090,-0.750,116.667,102.778,300.000,1002.778,0.000,N
722,-0.850,0.055,-0.725,141.667,102.778,319.444,1022.222,19.444,N
723,-0.825,0.120,-0.695,116.667,105.556,322.222,1058.333,36.111,N
724,-0.820,0.085,-0.685,163.889,102.778,313.889,1036.111,22.222,N
725,-0.830,0.105,-0.730,116.667,102.778,338.889,983.333,52.778,N
726,-0.800,0.120,-0.665,105.556,102.778,308.333,1022.222,38.889,N
727,-0.790,0.120,-0.655,119.444,86.111,286.111,1019.444,2.778,N
728,-0.780,0.050,-0.675,113.889,113.889,338.889,1027.778,8.333,N
729,-0.840,-0.030,-0.700,113.889,105.556,311.111,1030.556,2.778,N
730,-0.730,0.205,-0.585,136.111,105.556,294.444,980.556,50.000,N
731,-0.670,0.180,-0.550,116.667,108.333,344.444,1022.222,41.667,N
732,-0.730,0.185,-0.610,133.333,105.556,319.444,1019.444,2.778,N
733,-0.800,0.170,-0.685,108.333,91.667,280.556,1000.000,19.444,N
734,-0.885,0.045,-0.800,166.667,100.000,286.111,1033.333,33.333,N
735,-0.970,0.005,-0.820,116.667,88.889,286.111,1022.222,11.111,N
736,-0.935,0.050,-0.775,125.000,111.111,322.222,1041.667,19.444,N
737,-0.785,0.145,-0.670,125.000,94.444,283.333,1066.667,25.000,N
738,-0.905,-0.130,-0.820,141.667,97.222,313.889,1041.667,25.000,N
739,-0.925,0.070,-0.730,138.889,102.778,319.444,1005.556,36.111,N
740,-0.870,0.035,-0.735,113.889,83.333,319.444,1044.444,38.889,N
741,-0.880,-0.085,-0.785,122.222,83.333,291.667,1036.111,8.333,N
742,-0.880,-0.005,-0.700,163.889,102.778,327.778,1005.556,30.556,N
743,-0.765,0.085,-0.620,161.111,105.556,322.222,1005.556,0.000,N
744,-0.740,0.100,-0.605,116.667,102.778,333.333,1022.222,16.667,N
745,-0.690,0.180,-0.525,166.667,105.556,319.444,1052.778,30.556,N
746,-0.645,0.335,-0.495,136.111,108.333,311.111,1033.333,19.444,N
747,-0.685,0.230,-0.620,119.444,113.889,327.778,1022.222,11.111,N
748,-0.785,0.130,-0.650,127.778,102.778,319.444,1072.222,50.000,N
749,-0.740,0.230,-0.645,122.222,97.222,280.556,1030.556,41.667,N
750,-0.765,0.175,-0.640,119.444,111.111,311.111,1022.222,8.333,N
751,-0.785,0.145,-0.670,116.667,100.000,297.222,1038.889,16.667,N
752,-0.840,0.020,-0.745,119.444,105.556,322.222,1041.667,2.778,N
753,-0.895,-0.100,-0.780,122.222,108.333,338.889,1058.333,16.667,N
754,-0.860,-0.080,-0.695,158.333,102.778,322.222,1038.889,19.444,N
755,-0.770,-0.035,-0.695,147.222,111.111,338.889,1027.778,11.111,N
756,-0.700,0.075,-0.620,138.889,111.111,325.000,1019.444,8.333,N
757,-0.660,0.095,-0.660,138.889,105.556,311.111,1005.556,13.889,N
758,-0.650,0.180,-0.625,122.222,97.222,291.667,977.778,27.778,N
759,-0.680,0.155,-0.700,144.444,102.778,316.667,991.667,13.889,N
760,-0.735,0.090,-0.720,138.889,100.000,311.111,997.222,5.556,N
761,-0.750,0.145,-0.690,130.556,88.889,319.444,1025.000,27.778,N
762,-0.690,0.145,-0.660,144.444,100.000,308.333,1019.444,5.556,N
763,-0.665,0.160,-0.630,127.778,108.333,302.778,1005.556,13.889,N
764,-0.620,0.205,-0.600,150.000,97.222,316.667,1036.111,30.556,N
765,-0.635,0.185,-0.635,138.889,97.222,313.889,1011.111,25.000,N
766,-0.700,0.170,-0.660,122.222,105.556,283.333,1027.778,16.667,N
767,-0.750,0.095,-0.720,138.889,102.778,316.667,1016.667,11.111,N
768,-0.770,0.110,-0.715,141.667,97.222,308.333,1000.000,16.667,N
769,-0.735,0.040,-0.760,141.667,102.778,322.222,997.222,2.778,N
770,-0.835,0.000,-0.790,127.778,97.222,319.444,1025.000,27.778,N
771,-0.795,0.025,-0.740,144.444,100.000,302.778,988.889,36.111,N
772,-0.810,0.025,-0.720,133.333,105.556,311.111,986.111,2.778,N
773,-0.780,0.120,-0.710,122.222,97.222,294.444,988.889,2.778,N
774,-0.750,0.150,-0.680,138.889,97.222,308.333,944.444,44.444,N
775,-0.750,0.125,-0.725,138.889,102.778,313.889,938.889,5.556,N
776,-0.825,0.070,-0.765,125.000,94.444,291.667,983.333,44.444,N
777,-0.815,0.065,-0.820,122.222,100.000,286.111,966.667,16.667,N
778,-0.850,0.060,-0.810,138.889,108.333,316.667,986.111,19.444,N
779,-0.895,-0.020,-0.825,138.889,97.222,308.333,1000.000,13.889,N
780,-0.790,0.045,-0.755,127.778,88.889,313.889,986.111,13.889,N
781,-0.760,0.065,-0.675,122.222,94.444,319.444,1000.000,13.889,N
782,-0.745,0.110,-0.710,122.222,108.333,311.111,991.667,8.333,N
783,-0.775,0.125,-0.680,133.333,102.778,313.889,988.889,2.778,N
784,-0.700,0.175,-0.610,144.444,100.000,311.111,972.222,16.667,N
785,-0.745,0.085,-0.710,136.111,102.778,319.444,963.889,8.333,N
786,-0.785,0.010,-0.825,144.444,102.778,305.556,977.778,13.889,N
787,-0.875,-0.310,-0.875,783933.333,105.556,-783880.556,988.889,11.111,N
788,-0.875,-0.190,-0.870,784908.333,113.889,341.667,975.000,13.889,N
789,-0.785,0.085,-0.640,125.000,111.111,305.556,938.889,36.111,N
790,-0.560,0.220,-0.495,147.222,100.000,308.333,961.111,22.222,N
791,-0.790,0.180,-0.545,127.778,116.667,338.889,975.000,13.889,N
792,-0.545,0.310,-0.500,138.889,102.778,308.333,991.667,16.667,N
793,-0.675,0.220,-0.555,130.556,100.000,277.778,1013.889,22.222,N
794,-0.660,0.255,-0.535,166.667,94.444,319.444,1011.111,2.778,N
795,-0.870,0.070,-0.565,111.111,102.778,344.444,1013.889,2.778,N
796,-0.670,0.240,-0.505,133.333,102.778,316.667,1019.444,5.556,N
797,-0.580,0.310,-0.435,144.444,102.778,308.333,983.333,36.111,N
798,-0.555,0.340,-0.455,122.222,108.333,336.111,1005.556,22.222,N
799,-0.535,0.305,-0.430,166.667,94.444,313.889,1011.111,5.556,N
800,-0.615,0.200,-0.515,141.667,105.556,322.222,1011.111,0.000,N
801,-0.715,0.165,-0.620,111.111,105.556,311.111,972.222,38.889,N
802,-0.820,0.030,-0.730,169.444,102.778,313.889,991.667,19.444,N
803,-0.875,-0.060,-0.715,116.667,105.556,302.778,980.556,11.111,N
804,-0.890,-0.055,-0.800,158.333,100.000,316.667,1005.556,25.000,N
805,-0.950,-0.070,-0.830,161.111,105.556,316.667,975.000,30.556,N
806,-0.970,-0.135,-0.810,100.000,102.778,322.222,969.444,5.556,N
807,-0.905,-0.050,-0.780,138.889,102.778,316.667,1002.778,33.333,N
808,-0.910,-0.095,-0.750,150.000,113.889,311.111,980.556,22.222,N
809,-0.880,-0.040,-0.740,127.778,94.444,286.111,983.333,2.778,N
810,-0.830,0.015,-0.680,163.889,97.222,291.667,997.222,13.889,N
811,-0.750,0.140,-0.660,111.111,97.222,311.111,963.889,33.333,N
812,-0.785,0.080,-0.675,138.889,108.333,322.222,1013.889,50.000,N
813,-0.805,0.025,-0.660,105.556,97.222,311.111,1033.333,19.444,N
814,-0.790,0.045,-0.660,144.444,116.667,305.556,1016.667,16.667,N
815,-0.775,0.055,-0.605,141.667,111.111,350.000,1022.222,5.556,N
816,-0.635,0.295,-0.500,133.333,108.333,322.222,1025.000,2.778,N
817,-0.615,0.275,-0.425,133.333,105.556,322.222,1033.333,8.333,N
818,-0.565,0.330,-0.520,125.000,102.778,319.444,991.667,41.667,N
819,-0.790,0.070,-0.800,144.444,105.556,311.111,1022.222,30.556,N
820,-0.875,-0.220,-0.940,816830.556,102.778,311.111,1005.556,16.667,N
821,-0.875,-0.070,-0.865,817850.000,102.778,316.667,1019.444,13.889,N
822,-0.875,-0.140,-0.945,818852.778,102.778,316.667,1002.778,16.667,N
823,-0.875,-0.265,-0.980,819850.000,108.333,322.222,997.222,5.556,N
824,-0.875,-0.295,-0.965,820877.778,100.000,316.667,1027.778,30.556,N
825,-0.875,-0.180,-0.865,821894.444,102.778,313.889,1016.667,11.111,N
826,-0.960,-0.120,-0.860,125.000,100.000,319.444,980.556,36.111,N
827,-0.875,-0.180,-0.925,823886.111,97.222,313.889,1011.111,30.556,N
828,-0.875,-0.210,-0.890,824880.556,105.556,325.000,994.444,16.667,N
829,-0.945,-0.090,-0.800,141.667,102.778,344.444,1016.667,22.222,N
830,-0.895,-0.030,-0.765,163.889,100.000,316.667,1016.667,0.000,N
831,-0.825,0.030,-0.685,133.333,97.222,319.444,1005.556,11.111,N
832,-0.690,0.250,-0.490,141.667,108.333,347.222,1011.111,5.556,N
833,-0.590,0.285,-0.485,136.111,100.000,319.444,1025.000,13.889,N
834,-0.625,0.290,-0.470,111.111,91.667,291.667,1022.222,2.778,N
835,-0.520,0.385,-0.460,147.222,108.333,350.000,991.667,30.556,N
836,-0.710,0.150,-0.590,113.889,105.556,319.444,1033.333,41.667,N
837,-0.680,0.270,-0.590,119.444,105.556,341.667,1008.333,25.000,N
838,-0.765,0.255,-0.645,141.667,105.556,311.111,1027.778,19.444,N
839,-0.760,0.255,-0.700,119.444,91.667,311.111,1008.333,19.444,N
840,-0.890,0.105,-0.925,116.667,113.889,308.333,1002.778,5.556,N
841,-0.835,0.290,-0.665,113.889,100.000,327.778,1036.111,33.333,N
842,-0.850,0.150,-0.695,125.000,94.444,316.667,1002.778,33.333,N
843,-0.820,0.115,-0.680,111.111,97.222,308.333,983.333,19.444,N
844,-0.825,0.075,-0.690,113.889,105.556,313.889,997.222,13.889,N
845,-0.805,0.110,-0.710,116.667,116.667,338.889,977.778,19.444,N
846,-0.860,0.135,-0.740,116.667,94.444,322.222,975.000,2.778,N
847,-0.880,0.110,-0.785,127.778,97.222,319.444,972.222,2.778,N
848,-0.875,0.145,-0.735,130.556,100.000,316.667,969.444,2.778,N
849,-0.885,0.030,-0.765,163.889,108.333,322.222,966.667,2.778,N
850,-0.810,0.110,-0.670,116.667,105.556,305.556,986.111,19.444,N
851,-0.755,0.155,-0.610,125.000,105.556,322.222,977.778,8.333,N
852,-0.655,0.365,-0.450,133.333,105.556,322.222,972.222,5.556,N
853,-0.615,0.345,-0.515,138.889,100.000,316.667,975.000,2.778,N
854,-0.630,0.265,-0.535,116.667,100.000,302.778,977.778,2.778,N
855,-0.695,0.190,-0.605,169.444,111.111,344.444,997.222,19.444,N
856,-0.700,0.225,-0.635,127.778,108.333,327.778,980.556,16.667,N
857,-0.730,0.155,-0.575,161.111,113.889,333.333,1000.000,19.444,N
858,-0.700,0.130,-0.610,119.444,102.778,319.444,1000.000,0.000,N
859,-0.720,0.245,-0.570,136.111,102.778,316.667,977.778,22.222,N
860,-0.705,0.225,-0.575,144.444,100.000,308.333,980.556,2.778,N
861,-0.730,0.155,-0.665,166.667,105.556,322.222,1022.222,41.667,N
862,-0.905,-0.105,-0.820,144.444,113.889,305.556,1019.444,2.778,N
863,-0.965,-0.120,-0.825,166.667,97.222,325.000,1011.111,8.333,N
864,-0.915,-0.010,-0.790,125.000,94.444,313.889,1027.778,16.667,N
865,-0.845,0.025,-0.735,141.667,102.778,316.667,1013.889,13.889,N
866,-0.830,0.115,-0.715,116.667,102.778,338.889,1011.111,2.778,N
867,-0.880,-0.020,-0.795,158.333,100.000,322.222,1041.667,30.556,N
868,-0.885,-0.080,-0.755,119.444,108.333,333.333,1030.556,11.111,N
869,-0.785,0.145,-0.615,166.667,100.000,322.222,1011.111,19.444,N
870,-0.710,0.120,-0.595,113.889,105.556,313.889,1016.667,5.556,N
871,-0.585,0.340,-0.505,116.667,108.333,341.667,1002.778,13.889,N
872,-0.670,0.295,-0.595,166.667,100.000,283.333,1019.444,16.667,N
873,-0.680,0.225,-0.630,122.222,100.000,288.889,1022.222,2.778,N
874,-0.760,0.085,-0.675,111.111,102.778,313.889,1027.778,5.556,N
875,-0.750,0.095,-0.595,130.556,100.000,316.667,1050.000,22.222,N
876,-0.685,0.080,-0.625,116.667,100.000,325.000,1027.778,22.222,N
877,-0.795,0.040,-0.675,136.111,108.333,330.556,1008.333,19.444,N
878,-0.790,0.060,-0.690,141.667,105.556,316.667,1013.889,5.556,N
879,-0.825,0.075,-0.730,105.556,100.000,311.111,991.667,22.222,N
880,-0.785,0.150,-0.705,116.667,108.333,297.222,1016.667,25.000,N
881,-0.775,0.105,-0.680,108.333,108.333,311.111,1027.778,11.111,N
882,-0.800,-0.005,-0.705,127.778,97.222,294.444,1008.333,19.444,N
883,-0.830,-0.040,-0.735,119.444,111.111,311.111,1027.778,19.444,N
884,-0.870,-0.010,-0.725,133.333,100.000,316.667,1016.667,11.111,N
885,-0.860,-0.030,-0.765,136.111,102.778,319.444,1002.778,13.889,N
886,-0.790,0.145,-0.685,147.222,100.000,305.556,1016.667,13.889,N
887,-0.820,0.125,-0.695,113.889,108.333,305.556,994.444,22.222,N
888,-0.835,0.120,-0.770,169.444,100.000,319.444,1025.000,30.556,N
889,-0.865,0.110,-0.765,116.667,111.111,327.778,1058.333,33.333,N
890,-0.935,-0.020,-0.845,163.889,97.222,313.889,1036.111,22.222,N
891,-0.915,0.090,-0.795,127.778,108.333,322.222,1038.889,2.778,N
892,-0.860,0.070,-0.760,116.667,108.333,305.556,1052.778,13.889,N
893,-0.855,0.140,-0.770,122.222,105.556,300.000,1036.111,16.667,N
894,-0.870,0.100,-0.750,113.889,102.778,316.667,1016.667,19.444,N
895,-0.860,0.095,-0.730,161.111,102.778,319.444,1027.778,11.111,N
896,-0.825,0.070,-0.705,141.667,97.222,316.667,1013.889,13.889,N
897,-0.800,0.030,-0.690,166.667,94.444,316.667,1022.222,8.333,N
898,-0.730,0.250,-0.575,138.889,111.111,311.111,980.556,41.667,N
899,-0.695,0.215,-0.615,144.444,102.778,311.111,969.444,11.111,N
900,-0.765,0.180,-0.665,111.111,105.556,311.111,1030.556,61.111,N
901,-0.880,0.045,-0.785,136.111,108.333,319.444,994.444,36.111,N
902,-0.850,0.080,-0.755,111.111,102.778,316.667,972.222,22.222,N
903,-0.840,0.100,-0.715,116.667,108.333,302.778,1008.333,36.111,N
904,-0.870,0.120,-0.695,141.667,108.333,308.333,997.222,11.111,N
905,-0.920,0.085,-0.785,163.889,97.222,302.778,983.333,13.889,N
906,-0.840,0.115,-0.750,116.667,113.889,305.556,991.667,8.333,N
907,-0.840,0.120,-0.755,141.667,108.333,313.889,988.889,2.778,N
908,-0.865,0.130,-0.755,133.333,102.778,319.444,991.667,2.778,N
909,-0.870,0.130,-0.765,136.111,108.333,319.444,1005.556,13.889,N
910,-0.855,0.120,-0.750,108.333,102.778,283.333,1002.778,2.778,N
911,-0.880,0.050,-0.740,111.111,105.556,305.556,1011.111,8.333,N
912,-0.860,0.160,-0.770,111.111,102.778,311.111,991.667,19.444,N
913,-0.940,0.020,-0.800,111.111,97.222,305.556,1005.556,13.889,N
914,-0.940,-0.025,-0.820,133.333,97.222,325.000,1019.444,13.889,N
915,-0.925,-0.065,-0.805,113.889,111.111,336.111,988.889,30.556,N
916,-0.890,0.045,-0.740,119.444,88.889,283.333,972.222,16.667,N
917,-0.905,0.035,-0.790,133.333,88.889,283.333,1002.778,30.556,N
918,-0.835,0.090,-0.750,127.778,97.222,280.556,972.222,30.556,N
919,-0.790,0.070,-0.700,144.444,100.000,311.111,977.778,5.556,N
920,-0.775,0.035,-0.700,125.000,91.667,316.667,986.111,8.333,N
921,-0.770,0.030,-0.700,127.778,100.000,316.667,966.667,19.444,N
922,-0.745,0.090,-0.650,141.667,102.778,311.111,986.111,19.444,N
923,-0.695,0.150,-0.660,130.556,102.778,288.889,983.333,2.778,N
924,-0.720,0.205,-0.555,152.778,100.000,325.000,994.444,11.111,N
925,-0.790,0.140,-0.705,141.667,108.333,344.444,994.444,0.000,N
926,-0.865,0.070,-0.765,125.000,100.000,322.222,1013.889,19.444,N
927,-0.865,0.045,-0.885,161.111,111.111,302.778,997.222,16.667,N
928,-0.875,0.015,-0.900,925330.556,105.556,313.889,986.111,11.111,N
929,-0.960,0.040,-0.920,119.444,97.222,311.111,975.000,11.111,N
930,-0.980,0.095,-0.780,122.222,97.222,297.222,1002.778,27.778,N
931,-0.870,0.080,-0.745,119.444,100.000,308.333,1027.778,25.000,N
932,-0.830,0.085,-0.670,144.444,97.222,305.556,1002.778,25.000,N
933,-0.730,0.215,-0.605,136.111,102.778,316.667,988.889,13.889,N
934,-0.650,0.265,-0.580,122.222,111.111,300.000,1022.222,33.333,N
935,-0.750,0.165,-0.590,147.222,105.556,327.778,1019.444,2.778,N
936,-0.620,0.275,-0.540,119.444,91.667,291.667,975.000,44.444,N
937,-0.715,0.230,-0.595,119.444,113.889,305.556,1002.778,27.778,N
938,-0.635,0.215,-0.540,113.889,108.333,341.667,994.444,8.333,N
939,-0.655,0.305,-0.540,125.000,94.444,313.889,980.556,13.889,N
940,-0.720,0.190,-0.620,169.444,94.444,280.556,1005.556,25.000,N
941,-0.660,0.180,-0.530,113.889,102.778,308.333,983.333,22.222,N
942,-0.715,0.175,-0.555,166.667,105.556,322.222,983.333,0.000,N
943,-0.670,0.230,-0.580,108.333,102.778,313.889,975.000,8.333,N
944,-0.720,0.145,-0.550,119.444,105.556,302.778,980.556,5.556,N
945,-0.700,0.140,-0.575,144.444,102.778,341.667,961.111,19.444,N
946,-0.720,0.115,-0.605,122.222,100.000,291.667,977.778,16.667,N
947,-0.730,0.120,-0.615,150.000,88.889,319.444,963.889,13.889,N
948,-0.700,0.175,-0.600,144.444,108.333,313.889,955.556,8.333,N
949,-0.650,0.185,-0.615,150.000,102.778,302.778,941.667,13.889,N
950,-0.700,0.155,-0.625,130.556,97.222,305.556,972.222,30.556,N
951,-0.740,0.140,-0.655,147.222,116.667,311.111,994.444,22.222,N
952,-0.770,0.140,-0.650,119.444,97.222,322.222,975.000,19.444,N
953,-0.770,0.065,-0.665,113.889,97.222,302.778,988.889,13.889,N
954,-0.765,0.115,-0.630,163.889,100.000,291.667,983.333,5.556,N
955,-0.780,0.145,-0.660,161.111,88.889,280.556,961.111,22.222,N
956,-0.710,0.280,-0.555,138.889,105.556,330.556,980.556,19.444,N
957,-0.680,0.290,-0.575,125.000,105.556,319.444,1000.000,19.444,N
958,-0.675,0.305,-0.535,166.667,105.556,319.444,1002.778,2.778,N
959,-0.635,0.280,-0.510,138.889,100.000,313.889,1002.778,0.000,N
960,-0.625,0.190,-0.540,175.000,105.556,322.222,1038.889,36.111,N
961,-0.700,0.070,-0.600,116.667,105.556,341.667,1008.333,30.556,N
962,-0.710,0.145,-0.635,138.889,105.556,316.667,955.556,52.778,N
963,-0.780,0.040,-0.665,147.222,116.667,308.333,977.778,22.222,N
964,-0.775,0.035,-0.670,141.667,97.222,313.889,955.556,22.222,N
965,-0.835,-0.015,-0.725,116.667,111.111,311.111,947.222,8.333,N
966,-0.820,-0.025,-0.710,138.889,108.333,311.111,961.111,13.889,N
967,-0.790,0.130,-0.745,136.111,105.556,316.667,927.778,33.333,N
968,-0.905,0.025,-0.810,122.222,105.556,294.444,919.444,8.333,N
969,-0.875,-0.005,-0.855,150.000,102.778,308.333,922.222,2.778,N
970,-0.915,-0.070,-0.810,119.444,108.333,305.556,972.222,50.000,N
971,-0.900,-0.050,-0.790,122.222,100.000,322.222,941.667,30.556,N
972,-0.855,-0.005,-0.710,113.889,100.000,311.111,952.778,11.111,N
973,-0.755,0.085,-0.635,166.667,102.778,319.444,952.778,0.000,N
974,-0.720,0.035,-0.645,116.667,108.333,308.333,983.333,30.556,N
975,-0.795,-0.020,-0.700,150.000,105.556,308.333,1002.778,19.444,N
976,-0.790,0.035,-0.680,172.222,102.778,322.222,1022.222,19.444,N
977,-0.790,0.035,-0.660,169.444,102.778,316.667,1030.556,8.333,N
978,-0.770,0.085,-0.590,119.444,97.222,319.444,1058.333,27.778,N
979,-0.615,0.285,-0.530,155.556,88.889,286.111,1033.333,25.000,N
980,-0.660,0.270,-0.520,113.889,100.000,308.333,1052.778,19.444,N
981,-0.665,0.300,-0.580,122.222,100.000,291.667,1050.000,2.778,N
982,-0.740,0.120,-0.675,119.444,102.778,322.222,1066.667,16.667,N
983,-0.800,0.015,-0.745,144.444,102.778,311.111,1086.111,19.444,N
984,-0.750,0.220,-0.600,147.222,108.333,280.556,1066.667,19.444,N
985,-0.730,0.195,-0.635,122.222,108.333,325.000,1088.889,22.222,N
986,-0.775,0.130,-0.730,138.889,102.778,316.667,1072.222,16.667,N
987,-0.890,0.040,-0.750,136.111,100.000,319.444,1069.444,2.778,N
988,-0.830,0.125,-0.700,136.111,100.000,311.111,1036.111,33.333,N
989,-0.885,-0.040,-0.800,141.667,97.222,313.889,1033.333,2.778,N
990,-0.905,-0.080,-0.775,111.111,111.111,302.778,1044.444,11.111,N
991,-0.860,0.115,-0.745,136.111,75.000,311.111,1069.444,25.000,N
992,-0.825,0.005,-0.820,100.000,102.778,322.222,1013.889,55.556,N
993,-0.740,0.045,-0.585,111.111,111.111,344.444,1016.667,2.778,N
994,-0.690,0.165,-0.550,105.556,102.778,305.556,1063.889,47.222,N
995,-0.750,0.055,-0.785,163.889,91.667,177.778,1052.778,11.111,N
996,-0.965,-0.085,-0.725,105.556,100.000,319.444,1038.889,13.889,N
997,-0.700,0.180,-0.400,113.889,105.556,344.444,1041.667,2.778,N
998,-0.565,0.150,-0.400,130.556,97.222,347.222,1025.000,16.667,N
999,-0.395,0.400,-0.305,113.889,108.333,338.889,1047.222,22.222,N
1000,-0.570,0.190,-0.475,163.889,113.889,333.333,1047.222,0.000,N
1001,-0.655,0.185,-0.605,147.222,105.556,313.889,1016.667,30.556,N
1002,-0.790,0.000,-0.740,141.667,108.333,313.889,1066.667,50.000,N
1003,-0.945,-0.135,-0.750,138.889,100.000,325.000,1061.111,5.556,N
1004,-0.855,-0.050,-0.755,119.444,105.556,336.111,1016.667,44.444,N
1005,-0.870,-0.010,-0.765,119.444,94.444,286.111,1041.667,25.000,N
1006,-0.875,-0.190,-0.865,1003805.556,100.000,319.444,1044.444,2.778,N
1007,-0.945,-0.075,-0.765,141.667,108.333,344.444,1077.778,33.333,N
1008,-0.820,-0.030,-0.690,152.778,97.222,319.444,1041.667,36.111,N
1009,-0.845,0.020,-0.640,136.111,100.000,327.778,1041.667,0.000,N
1010,-0.835,-0.030,-0.750,111.111,102.778,313.889,1047.222,5.556,N
1011,-0.915,-0.060,-0.735,127.778,105.556,338.889,1050.000,2.778,N
1012,-0.805,0.030,-0.605,150.000,108.333,330.556,1030.556,19.444,N
1013,-0.785,-0.025,-0.630,161.111,94.444,319.444,1038.889,8.333,N
1014,-0.760,0.005,-0.610,94.444,97.222,300.000,700.000,338.889,A
1015,-0.675,0.045,-0.570,127.778,94.444,319.444,1266.667,566.667,N
1016,-0.295,-1.655,-0.115,33.333,2.778,275.000,572.222,694.444,V
1017,-0.650,0.090,-0.630,155.556,105.556,300.000,1458.333,886.111,N
1018,-0.750,0.030,-0.610,108.333,100.000,319.444,1055.556,402.778,N
1019,-0.660,0.085,-0.555,122.222,100.000,322.222,1022.222,33.333,N
1020,-0.705,0.000,-0.620,152.778,91.667,325.000,988.889,33.333,N
1021,-0.815,-0.090,-0.725,163.889,94.444,316.667,1041.667,52.778,N
1022,-0.870,-0.180,-0.765,116.667,108.333,336.111,1025.000,16.667,N
1023,-0.890,-0.150,-0.775,150.000,108.333,325.000,1041.667,16.667,N
1024,-0.885,-0.050,-0.685,111.111,100.000,313.889,1047.222,5.556,N
1025,-0.790,-0.080,-0.725,169.444,105.556,327.778,1019.444,27.778,N
1026,-0.875,-0.030,-0.720,133.333,105.556,319.444,1041.667,22.222,N
1027,-0.795,0.025,-0.780,161.111,105.556,288.889,1000.000,41.667,N
1028,-0.970,-0.120,-0.890,136.111,105.556,308.333,1011.111,11.111,N
1029,-0.985,-0.185,-0.825,119.444,105.556,313.889,1019.444,8.333,N
1030,-0.940,-0.140,-0.810,141.667,94.444,305.556,988.889,30.556,N
1031,-0.860,-0.075,-0.730,119.444,102.778,325.000,1013.889,25.000,N
1032,-0.785,0.015,-0.610,111.111,102.778,313.889,1013.889,0.000,N
1033,-0.755,0.030,-0.630,105.556,100.000,330.556,994.444,19.444,N
1034,-0.710,0.085,-0.545,102.778,94.444,344.444,1000.000,5.556,N
1035,-0.730,0.060,-0.590,108.333,91.667,319.444,1033.333,33.333,N
1036,-0.720,0.085,-0.585,163.889,97.222,325.000,1000.000,33.333,N
1037,-0.720,-0.020,-0.600,144.444,111.111,338.889,986.111,13.889,N
1038,-0.730,0.005,-0.595,116.667,105.556,308.333,997.222,11.111,N
1039,-0.725,0.085,-0.665,136.111,105.556,316.667,988.889,8.333,N
1040,-0.790,0.030,-0.660,105.556,108.333,330.556,1002.778,13.889,N
1041,-0.790,-0.015,-0.730,116.667,100.000,302.778,986.111,16.667,N
1042,-0.830,-0.105,-0.765,138.889,100.000,313.889,980.556,5.556,N
1043,-0.865,-0.145,-0.750,152.778,105.556,325.000,1019.444,38.889,N
1044,-0.890,-0.150,-0.765,122.222,100.000,325.000,1002.778,16.667,N
1045,-0.910,-0.200,-0.820,141.667,102.778,308.333,991.667,11.111,N
1046,-0.850,-0.060,-0.760,116.667,100.000,241.667,1000.000,8.333,N
1047,-0.875,-0.135,-0.765,161.111,94.444,294.444,977.778,22.222,N
1048,-0.815,-0.050,-0.685,144.444,113.889,308.333,991.667,13.889,N
1049,-0.785,-0.085,-0.700,158.333,105.556,319.444,1008.333,16.667,N
1050,-0.730,-0.005,-0.645,144.444,108.333,319.444,988.889,19.444,N
1051,-0.745,-0.010,-0.615,150.000,102.778,344.444,1002.778,13.889,N
1052,-0.685,0.040,-0.520,155.556,100.000,325.000,1011.111,8.333,N
1053,-0.655,0.160,-0.525,155.556,105.556,311.111,1002.778,8.333,N
1054,-0.670,0.160,-0.575,147.222,108.333,311.111,994.444,8.333,N
1055,-0.675,0.060,-0.610,130.556,105.556,327.778,1011.111,16.667,N
1056,-0.785,0.000,-0.670,152.778,97.222,322.222,991.667,19.444,N
1057,-0.780,0.025,-0.715,125.000,88.889,322.222,1002.778,11.111,N
1058,-0.815,-0.005,-0.695,113.889,100.000,311.111,988.889,13.889,N
1059,-0.750,0.090,-0.630,119.444,100.000,286.111,983.333,5.556,N
1060,-0.755,0.040,-0.635,163.889,105.556,322.222,1002.778,19.444,N
1061,-0.695,0.150,-0.595,113.889,105.556,305.556,988.889,13.889,N
1062,-0.685,0.120,-0.580,102.778,102.778,319.444,988.889,0.000,N
1063,-0.680,0.155,-0.585,111.111,102.778,313.889,1002.778,13.889,N
1064,-0.730,0.075,-0.580,102.778,102.778,316.667,997.222,5.556,N
1065,-0.700,0.095,-0.590,136.111,100.000,316.667,997.222,0.000,N
1066,-0.720,0.060,-0.635,136.111,94.444,322.222,1030.556,33.333,N
1067,-0.795,0.000,-0.650,116.667,102.778,313.889,1016.667,13.889,N
1068,-0.780,0.000,-0.655,119.444,111.111,336.111,1011.111,5.556,N
1069,-0.800,-0.070,-0.635,108.333,102.778,319.444,1019.444,8.333,N
1070,-0.740,-0.050,-0.570,144.444,102.778,316.667,1000.000,19.444,N
1071,-0.700,0.045,-0.560,166.667,100.000,316.667,958.333,41.667,N
1072,-0.690,-0.010,-0.595,111.111,100.000,311.111,950.000,8.333,N
1073,-0.700,-0.010,-0.605,141.667,102.778,313.889,958.333,8.333,N
1074,-0.730,-0.015,-0.610,147.222,97.222,319.444,983.333,25.000,N
1075,-0.765,0.035,-0.625,119.444,100.000,327.778,997.222,13.889,N
1076,-0.740,0.035,-0.670,119.444,116.667,302.778,966.667,30.556,N
1077,-0.790,-0.030,-0.680,166.667,100.000,316.667,1013.889,47.222,N
1078,-0.790,-0.055,-0.670,169.444,102.778,313.889,1036.111,22.222,N
1079,-0.700,0.145,-0.580,141.667,102.778,311.111,1044.444,8.333,N
1080,-0.685,0.120,-0.520,147.222,102.778,316.667,1036.111,8.333,N
1081,-0.580,0.235,-0.485,113.889,100.000,336.111,1005.556,30.556,N
1082,-0.645,0.100,-0.580,116.667,100.000,341.667,1030.556,25.000,N
1083,-0.720,0.030,-0.580,163.889,102.778,325.000,1050.000,19.444,N
1084,-0.665,0.180,-0.580,136.111,102.778,316.667,1002.778,47.222,N
1085,-0.770,-0.005,-0.650,147.222,100.000,336.111,983.333,19.444,N
1086,-0.765,0.030,-0.635,163.889,100.000,311.111,1027.778,44.444,N
1087,-0.765,-0.040,-0.670,166.667,97.222,322.222,991.667,36.111,N
1088,-0.820,-0.125,-0.660,152.778,105.556,336.111,983.333,8.333,N
1089,-0.765,-0.085,-0.640,113.889,102.778,313.889,991.667,8.333,N
1090,-0.760,-0.115,-0.650,163.889,97.222,322.222,988.889,2.778,N
1091,-0.740,0.005,-0.660,150.000,100.000,322.222,994.444,5.556,N
1092,-0.810,-0.135,-0.700,141.667,105.556,313.889,991.667,2.778,N
1093,-0.810,-0.125,-0.675,141.667,100.000,319.444,988.889,2.778,N
1094,-0.775,0.010,-0.685,136.111,100.000,313.889,1000.000,11.111,N
1095,-0.825,-0.140,-0.715,144.444,100.000,313.889,1005.556,5.556,N
1096,-0.810,-0.130,-0.705,136.111,97.222,311.111,994.444,11.111,N
1097,-0.800,-0.125,-0.710,138.889,100.000,319.444,1000.000,5.556,N
1098,-0.820,-0.110,-0.670,116.667,105.556,313.889,1008.333,8.333,N
1099,-0.760,-0.055,-0.620,119.444,97.222,325.000,1013.889,5.556,N
1100,-0.705,0.070,-0.640,147.222,102.778,305.556,1027.778,13.889,N
1101,-0.790,-0.085,-0.685,133.333,100.000,316.667,1013.889,13.889,N
1102,-0.845,-0.150,-0.710,122.222,105.556,322.222,1025.000,11.111,N
1103,-0.805,-0.055,-0.715,150.000,100.000,302.778,1033.333,8.333,N
1104,-0.855,-0.190,-0.730,155.556,105.556,291.667,1036.111,2.778,N
1105,-0.795,-0.115,-0.630,138.889,108.333,352.778,1013.889,22.222,N
1106,-0.690,0.075,-0.580,138.889,108.333,322.222,1000.000,13.889,N
1107,-0.705,-0.010,-0.545,119.444,100.000,333.333,1019.444,19.444,N
1108,-0.630,-0.010,-0.495,169.444,100.000,347.222,1016.667,2.778,N
1109,-0.575,0.210,-0.505,116.667,94.444,319.444,983.333,33.333,N
1110,-0.725,-0.025,-0.620,158.333,102.778,338.889,1000.000,16.667,N
1111,-0.765,-0.050,-0.615,125.000,100.000,316.667,1036.111,36.111,N
1112,-0.725,0.030,-0.665,163.889,102.778,300.000,1005.556,30.556,N
1113,-0.750,0.135,-0.640,133.333,102.778,316.667,1008.333,2.778,N
1114,-0.875,-0.150,-0.800,136.111,100.000,316.667,1030.556,22.222,N
1115,-0.920,-0.230,-0.795,138.889,102.778,319.444,1011.111,19.444,N
1116,-0.855,-0.065,-0.720,119.444,94.444,322.222,1013.889,2.778,N
1117,-0.960,0.000,-0.610,127.778,111.111,325.000,1005.556,8.333,N
1118,-0.820,0.010,-0.835,163.889,102.778,316.667,1002.778,2.778,N
1119,-0.905,-0.160,-0.850,172.222,102.778,316.667,1033.333,30.556,N
1120,-0.950,-0.120,-0.520,58.333,105.556,336.111,1025.000,8.333,N
1121,-0.610,0.195,-0.445,113.889,102.778,338.889,997.222,27.778,N
1122,-0.590,0.140,-0.510,169.444,105.556,319.444,986.111,11.111,N
1123,-0.625,0.175,-0.550,158.333,111.111,297.222,988.889,2.778,N
1124,-0.875,-0.135,-0.635,1122769.444,94.444,319.444,1002.778,13.889,N
1125,-0.675,0.040,-0.550,113.889,113.889,305.556,1025.000,22.222,N
1126,-0.665,0.055,-0.515,138.889,105.556,319.444,1019.444,5.556,N
1127,-0.620,0.185,-0.530,122.222,94.444,325.000,1019.444,0.000,N
1128,-0.695,0.000,-0.605,116.667,105.556,305.556,1027.778,8.333,N
1129,-0.775,-0.110,-0.690,136.111,100.000,313.889,1019.444,8.333,N
1130,-0.815,-0.040,-0.660,138.889,100.000,322.222,997.222,22.222,N
1131,-0.800,-0.110,-0.730,161.111,91.667,319.444,994.444,2.778,N
1132,-0.840,-0.170,-0.730,158.333,97.222,322.222,997.222,2.778,N
1133,-0.845,-0.215,-0.755,169.444,105.556,327.778,1013.889,16.667,N
1134,-0.870,-0.125,-0.700,141.667,100.000,336.111,1013.889,0.000,N
1135,-0.800,-0.060,-0.700,108.333,97.222,313.889,994.444,19.444,N
1136,-0.820,-0.135,-0.715,125.000,88.889,316.667,1047.222,52.778,N
1137,-0.830,-0.180,-0.715,172.222,102.778,311.111,1025.000,22.222,N
1138,-0.870,-0.265,-0.825,161.111,97.222,313.889,1016.667,8.333,N
1139,-0.950,-0.320,-0.825,144.444,100.000,311.111,1047.222,30.556,N
1140,-0.890,-0.190,-0.710,138.889,102.778,316.667,1025.000,22.222,N
1141,-0.735,0.020,-0.605,119.444,113.889,336.111,1016.667,8.333,N
1142,-0.740,0.005,-0.610,155.556,108.333,330.556,1038.889,22.222,N
1143,-0.740,-0.065,-0.620,122.222,97.222,325.000,1033.333,5.556,N
1144,-0.730,0.000,-0.545,152.778,111.111,336.111,1033.333,0.000,N
1145,-0.670,0.005,-0.550,144.444,111.111,344.444,1027.778,5.556,N
1146,-0.670,-0.025,-0.530,152.778,100.000,302.778,1036.111,8.333,N
1147,-0.675,-0.020,-0.585,163.889,102.778,294.444,1044.444,8.333,N
1148,-0.700,-0.045,-0.565,116.667,102.778,325.000,1027.778,16.667,N
1149,-0.695,-0.045,-0.615,150.000,113.889,333.333,1033.333,5.556,N
1150,-0.835,-0.190,-0.750,138.889,100.000,308.333,1050.000,16.667,N
1151,-0.925,-0.255,-0.810,169.444,100.000,313.889,1033.333,16.667,N
1152,-0.915,-0.275,-0.810,144.444,105.556,341.667,1047.222,13.889,N
1153,-0.895,-0.175,-0.730,127.778,100.000,322.222,1047.222,0.000,N
1154,-0.840,-0.150,-0.785,155.556,100.000,286.111,1025.000,22.222,N
1155,-0.950,-0.280,-0.840,155.556,100.000,319.444,1036.111,11.111,N
1156,-0.960,-0.295,-0.835,116.667,105.556,330.556,1033.333,2.778,N
1157,-0.860,-0.015,-0.675,133.333,97.222,316.667,1044.444,11.111,N
1158,-0.840,-0.015,-0.680,102.778,100.000,313.889,1069.444,25.000,N
1159,-0.800,-0.020,-0.675,138.889,97.222,319.444,1038.889,30.556,N
1160,-0.740,0.095,-0.630,133.333,108.333,327.778,1058.333,19.444,N
1161,-0.730,0.125,-0.670,161.111,100.000,316.667,1061.111,2.778,N
1162,-0.775,0.010,-0.640,111.111,102.778,311.111,1055.556,5.556,N
1163,-0.725,0.150,-0.560,119.444,94.444,313.889,1044.444,11.111,N
1164,-0.710,0.095,-0.590,166.667,108.333,319.444,1011.111,33.333,N
1165,-0.755,0.035,-0.635,163.889,97.222,311.111,1033.333,22.222,N
1166,-0.765,0.030,-0.695,138.889,100.000,313.889,1038.889,5.556,N
1167,-0.815,-0.075,-0.675,116.667,94.444,325.000,1016.667,22.222,N
1168,-0.735,0.070,-0.635,169.444,97.222,319.444,1011.111,5.556,N
1169,-0.770,0.060,-0.655,97.222,94.444,316.667,1030.556,19.444,N
1170,-0.855,-0.075,-0.740,127.778,102.778,319.444,1033.333,2.778,N
1171,-0.875,-0.120,-0.790,130.556,105.556,322.222,1005.556,27.778,N
1172,-0.970,-0.255,-0.870,163.889,97.222,316.667,1025.000,19.444,N
1173,-0.970,-0.150,-0.800,130.556,97.222,316.667,1033.333,8.333,N
1174,-0.850,-0.025,-0.780,125.000,94.444,316.667,1036.111,2.778,N
1175,-0.895,-0.090,-0.780,136.111,105.556,311.111,1041.667,5.556,N
1176,-0.910,-0.165,-0.775,136.111,100.000,316.667,1038.889,2.778,N
1177,-0.880,-0.070,-0.720,122.222,97.222,322.222,1055.556,16.667,N
1178,-0.860,-0.120,-0.735,122.222,100.000,319.444,1036.111,19.444,N
1179,-0.860,-0.070,-0.690,158.333,94.444,316.667,1027.778,8.333,N
1180,-0.785,0.070,-0.690,116.667,88.889,316.667,1033.333,5.556,N
1181,-0.855,-0.105,-0.715,158.333,102.778,325.000,1038.889,5.556,N
1182,-0.795,-0.105,-0.650,150.000,105.556,338.889,1055.556,16.667,N
1183,-0.715,0.080,-0.585,113.889,116.667,338.889,1036.111,19.444,N
1184,-0.765,0.020,-0.670,161.111,97.222,319.444,1041.667,5.556,N
1185,-0.845,-0.095,-0.745,147.222,105.556,319.444,1050.000,8.333,N
1186,-0.880,-0.080,-0.780,150.000,102.778,344.444,1041.667,8.333,N
1187,-0.910,-0.170,-0.750,144.444,102.778,308.333,1036.111,5.556,N
1188,-0.860,-0.085,-0.760,147.222,108.333,308.333,1036.111,0.000,N
1189,-0.895,-0.190,-0.820,169.444,102.778,313.889,1047.222,11.111,N
1190,-0.885,0.020,-0.730,111.111,105.556,341.667,1044.444,2.778,N
1191,-0.890,-0.095,-0.775,161.111,102.778,325.000,1050.000,5.556,N
1192,-0.875,-0.150,-0.760,133.333,105.556,319.444,1038.889,11.111,N
1193,-0.890,-0.160,-0.725,125.000,105.556,327.778,1058.333,19.444,N
1194,-0.865,-0.075,-0.760,119.444,91.667,319.444,1036.111,22.222,N
1195,-0.870,-0.170,-0.740,163.889,97.222,313.889,1038.889,2.778,N
1196,-0.775,-0.065,-0.610,141.667,97.222,344.444,1044.444,5.556,N
1197,-0.740,-0.005,-0.655,133.333,91.667,313.889,1025.000,19.444,N
1198,-0.760,0.015,-0.585,116.667,105.556,344.444,1052.778,27.778,N
1199,-0.640,0.165,-0.530,163.889,97.222,322.222,1047.222,5.556,N
1200,-0.680,0.125,-0.535,155.556,100.000,325.000,1027.778,19.444,N
1201,-0.650,0.230,-0.510,136.111,97.222,325.000,1036.111,8.333,N
1202,-0.720,0.015,-0.610,169.444,100.000,313.889,1052.778,16.667,N
1203,-0.790,-0.080,-0.665,119.444,105.556,308.333,1041.667,11.111,N
1204,-0.765,0.120,-0.610,144.444,105.556,344.444,1027.778,13.889,N
1205,-0.875,-0.115,-0.700,1206519.444,97.222,319.444,1016.667,11.111,N
1206,-0.800,-0.010,-0.655,163.889,102.778,319.444,1033.333,16.667,N
1207,-0.790,0.050,-0.710,130.556,100.000,319.444,1066.667,33.333,N
1208,-0.860,-0.090,-0.790,147.222,105.556,336.111,1050.000,16.667,N
1209,-0.890,-0.055,-0.740,136.111,102.778,344.444,1058.333,8.333,N
1210,-0.905,-0.145,-0.810,144.444,97.222,308.333,1072.222,13.889,N
1211,-0.925,-0.205,-0.800,105.556,97.222,311.111,1063.889,8.333,N
1212,-0.910,-0.175,-0.765,116.667,102.778,327.778,1055.556,8.333,N
1213,-0.880,-0.070,-0.735,161.111,108.333,325.000,1036.111,19.444,N
1214,-0.845,-0.125,-0.660,141.667,100.000,333.333,1047.222,11.111,N
1215,-0.705,0.100,-0.600,147.222,102.778,341.667,1072.222,25.000,N
1216,-0.760,0.060,-0.585,127.778,108.333,319.444,1052.778,19.444,N
1217,-0.770,-0.055,-0.635,150.000,102.778,338.889,1052.778,0.000,N
1218,-0.800,-0.090,-0.630,150.000,97.222,322.222,1072.222,19.444,N
1219,-0.735,0.040,-0.570,155.556,100.000,333.333,1066.667,5.556,N
1220,-0.715,-0.005,-0.610,141.667,102.778,341.667,1052.778,13.889,N
1221,-0.725,0.120,-0.520,133.333,100.000,327.778,1058.333,5.556,N
1222,-0.705,0.105,-0.645,122.222,100.000,294.444,1027.778,30.556,N
1223,-0.790,-0.070,-0.680,116.667,105.556,341.667,1055.556,27.778,N
1224,-0.845,-0.030,-0.745,111.111,108.333,319.444,1025.000,30.556,N
1225,-0.875,-0.065,-0.740,113.889,97.222,325.000,1019.444,5.556,N
1226,-0.815,-0.035,-0.715,105.556,102.778,319.444,1044.444,25.000,N
1227,-0.730,0.060,-0.635,119.444,94.444,316.667,1022.222,22.222,N
1228,-0.750,0.000,-0.640,155.556,111.111,336.111,997.222,25.000,N
1229,-0.745,-0.015,-0.640,138.889,105.556,347.222,1022.222,25.000,N
1230,-0.730,-0.005,-0.580,163.889,100.000,333.333,1016.667,5.556,N
1231,-0.600,0.270,-0.500,125.000,111.111,327.778,1008.333,8.333,N
1232,-0.620,0.220,-0.515,136.111,105.556,316.667,1005.556,2.778,N
1233,-0.700,0.100,-0.595,125.000,97.222,319.444,991.667,13.889,N
1234,-0.710,0.045,-0.630,119.444,113.889,336.111,1025.000,33.333,N
1235,-0.775,0.015,-0.625,169.444,94.444,316.667,1013.889,11.111,N
1236,-0.715,0.015,-0.575,155.556,105.556,333.333,988.889,25.000,N
1237,-0.675,0.185,-0.525,152.778,102.778,297.222,997.222,8.333,N
1238,-0.720,0.110,-0.620,113.889,100.000,308.333,969.444,27.778,N
1239,-0.745,0.030,-0.605,122.222,97.222,336.111,1000.000,30.556,N
1240,-0.740,0.035,-0.610,138.889,100.000,311.111,1019.444,19.444,N
1241,-0.740,-0.015,-0.600,161.111,108.333,313.889,994.444,25.000,N
1242,-0.740,-0.070,-0.610,169.444,102.778,344.444,1008.333,13.889,N
1243,-0.800,-0.075,-0.660,58.333,86.111,311.111,1022.222,13.889,N
1244,-0.935,-0.175,-0.800,163.889,105.556,297.222,1000.000,22.222,N
1245,-0.925,-0.195,-0.785,113.889,102.778,311.111,983.333,16.667,N
1246,-0.895,-0.220,-0.750,108.333,105.556,336.111,1002.778,19.444,N
1247,-0.805,-0.180,-0.680,116.667,100.000,341.667,1002.778,0.000,N
1248,-0.795,-0.230,-0.735,141.667,113.889,316.667,1000.000,2.778,N
1249,-0.890,-0.230,-0.780,158.333,108.333,330.556,975.000,25.000,N
1250,-0.875,-0.165,-0.700,133.333,105.556,297.222,975.000,0.000,N
1251,-0.760,0.045,-0.570,138.889,100.000,313.889,1005.556,30.556,N
1252,-0.695,0.080,-0.550,116.667,108.333,313.889,975.000,30.556,N
1253,-0.625,0.100,-0.540,155.556,94.444,313.889,983.333,8.333,N
1254,-0.720,0.015,-0.585,113.889,105.556,316.667,1022.222,38.889,N
1255,-0.740,0.025,-0.590,133.333,102.778,322.222,1016.667,5.556,N
1256,-0.675,0.100,-0.560,150.000,100.000,305.556,1019.444,2.778,N
1257,-0.740,0.005,-0.650,147.222,108.333,336.111,1036.111,16.667,N
1258,-0.875,-0.280,-0.770,1260738.889,100.000,322.222,1036.111,0.000,N
1259,-0.730,-0.050,-0.630,152.778,105.556,313.889,1055.556,19.444,N
1260,-0.810,-0.135,-0.715,147.222,102.778,311.111,1036.111,19.444,N
1261,-0.875,-0.215,-0.780,136.111,100.000,311.111,1022.222,13.889,N
1262,-0.880,-0.095,-0.765,133.333,100.000,316.667,1033.333,11.111,N
1263,-0.915,-0.235,-0.785,141.667,97.222,311.111,1041.667,8.333,N
1264,-0.885,-0.230,-0.760,119.444,100.000,338.889,1044.444,2.778,N
1265,-0.875,-0.200,-0.760,136.111,108.333,344.444,1058.333,13.889,N
1266,-0.880,-0.260,-0.735,113.889,102.778,311.111,1038.889,19.444,N
1267,-0.865,-0.215,-0.735,122.222,100.000,316.667,1047.222,8.333,N
1268,-0.855,-0.130,-0.660,141.667,97.222,322.222,1038.889,8.333,N
1269,-0.735,0.065,-0.635,144.444,97.222,302.778,1019.444,19.444,N
1270,-0.790,-0.015,-0.685,108.333,102.778,316.667,1022.222,2.778,N
1271,-0.880,-0.210,-0.760,113.889,102.778,308.333,1047.222,25.000,N
1272,-0.870,-0.215,-0.700,119.444,105.556,336.111,1033.333,13.889,N
1273,-0.780,-0.025,-0.625,133.333,97.222,316.667,1050.000,16.667,N
1274,-0.740,-0.080,-0.605,141.667,111.111,316.667,1038.889,11.111,N
1275,-0.745,-0.100,-0.635,155.556,100.000,322.222,1052.778,13.889,N
1276,-0.740,0.045,-0.660,144.444,100.000,313.889,1052.778,0.000,N
1277,-0.805,-0.090,-0.705,119.444,100.000,316.667,1052.778,0.000,N
1278,-0.805,-0.135,-0.675,136.111,100.000,319.444,1038.889,13.889,N
1279,-0.775,-0.050,-0.695,113.889,116.667,336.111,1019.444,19.444,N
1280,-0.850,-0.195,-0.750,113.889,97.222,291.667,1033.333,13.889,N
1281,-0.880,-0.120,-0.765,130.556,102.778,313.889,1047.222,13.889,N
1282,-0.905,-0.075,-0.740,127.778,97.222,313.889,1027.778,19.444,N
1283,-0.900,-0.100,-0.770,130.556,105.556,319.444,1008.333,19.444,N
1284,-0.880,-0.055,-0.715,133.333,100.000,319.444,1030.556,22.222,N
1285,-0.895,-0.090,-0.780,161.111,111.111,330.556,994.444,36.111,N
1286,-0.975,-0.230,-0.855,161.111,113.889,330.556,1002.778,8.333,N
1287,-0.865,0.005,-0.720,116.667,105.556,336.111,997.222,5.556,N
1288,-0.855,-0.065,-0.695,161.111,100.000,319.444,1005.556,8.333,N
1289,-0.785,0.050,-0.680,147.222,102.778,341.667,1016.667,11.111,N
1290,-0.800,0.045,-0.575,113.889,102.778,338.889,1036.111,19.444,N
1291,-0.660,0.255,-0.515,119.444,108.333,311.111,1005.556,30.556,N
1292,-0.695,0.185,-0.565,144.444,111.111,347.222,1025.000,19.444,N
1293,-0.735,0.145,-0.635,144.444,105.556,313.889,1033.333,8.333,N
1294,-0.745,0.160,-0.655,161.111,105.556,319.444,1016.667,16.667,N
1295,-0.785,0.085,-0.680,130.556,102.778,319.444,1036.111,19.444,N
1296,-0.810,0.100,-0.655,138.889,100.000,313.889,1008.333,27.778,N
1297,-0.800,0.070,-0.680,150.000,105.556,341.667,1013.889,5.556,N
1298,-0.815,0.005,-0.695,147.222,116.667,338.889,1036.111,22.222,N
1299,-0.835,0.005,-0.700,133.333,97.222,316.667,1013.889,22.222,N
1300,-0.825,0.055,-0.745,136.111,111.111,352.778,1005.556,8.333,N
1301,-0.815,0.125,-0.640,125.000,102.778,322.222,1022.222,16.667,N
1302,-0.720,0.235,-0.600,108.333,102.778,313.889,1013.889,8.333,N
1303,-0.795,0.040,-0.670,130.556,102.778,322.222,991.667,22.222,N
1304,-0.840,-0.030,-0.725,158.333,105.556,300.000,997.222,5.556,N
1305,-0.775,0.035,-0.630,108.333,102.778,316.667,1013.889,16.667,N
1306,-0.665,0.135,-0.575,130.556,102.778,327.778,1022.222,8.333,N
1307,-0.730,0.060,-0.525,158.333,113.889,338.889,994.444,27.778,N
1308,-0.655,0.065,-0.660,177.778,88.889,311.111,986.111,8.333,N
1309,-0.640,0.160,-0.505,119.444,100.000,333.333,1013.889,27.778,N
1310,-0.660,0.085,-0.565,141.667,88.889,319.444,972.222,41.667,N
1311,-0.600,0.075,-0.580,130.556,97.222,311.111,941.667,30.556,N
1312,-0.680,0.140,-0.540,133.333,102.778,319.444,997.222,55.556,N
1313,-0.635,0.215,-0.585,144.444,100.000,316.667,975.000,22.222,N
1314,-0.755,0.035,-0.690,155.556,100.000,322.222,1019.444,44.444,N
1315,-0.790,0.035,-0.685,144.444,97.222,336.111,1025.000,5.556,N
1316,-0.815,0.030,-0.675,163.889,97.222,316.667,1013.889,11.111,N
1317,-0.765,0.035,-0.620,144.444,113.889,344.444,1050.000,36.111,N
1318,-0.740,0.050,-0.620,138.889,105.556,341.667,1069.444,19.444,N
1319,-0.685,0.215,-0.580,130.556,94.444,313.889,1050.000,19.444,N
1320,-0.780,0.025,-0.680,152.778,111.111,336.111,1058.333,8.333,N
1321,-0.780,0.080,-0.615,113.889,111.111,311.111,1061.111,2.778,N
1322,-0.710,0.125,-0.585,147.222,100.000,330.556,1072.222,11.111,N
1323,-0.720,0.130,-0.575,166.667,102.778,322.222,1086.111,13.889,N
1324,-0.585,0.335,-0.465,122.222,100.000,322.222,1055.556,30.556,N
1325,-0.630,0.205,-0.520,175.000,105.556,341.667,1088.889,33.333,N
1326,-0.690,0.160,-0.570,150.000,102.778,344.444,1100.000,11.111,N
1327,-0.675,0.050,-0.570,113.889,97.222,311.111,1063.889,36.111,N
1328,-0.685,0.160,-0.555,141.667,102.778,313.889,1058.333,5.556,N
1329,-0.700,0.075,-0.600,163.889,113.889,330.556,1058.333,0.000,N
1330,-0.700,0.115,-0.585,147.222,116.667,338.889,1058.333,0.000,N
1331,-0.675,0.160,-0.530,150.000,100.000,336.111,1069.444,11.111,N
1332,-0.745,0.110,-0.675,138.889,97.222,316.667,1016.667,52.778,N
1333,-0.830,0.015,-0.740,169.444,102.778,316.667,1063.889,47.222,N
1334,-0.855,-0.030,-0.730,161.111,100.000,319.444,1061.111,2.778,N
1335,-0.860,0.000,-0.650,161.111,102.778,325.000,1063.889,2.778,N
1336,-0.750,0.125,-0.705,155.556,116.667,333.333,1030.556,33.333,N
1337,-0.885,-0.080,-0.800,147.222,116.667,336.111,1030.556,0.000,N
1338,-0.830,0.010,-0.700,138.889,100.000,316.667,1052.778,22.222,N
1339,-0.785,0.035,-0.725,147.222,102.778,341.667,1047.222,5.556,N
1340,-0.870,-0.060,-0.755,144.444,105.556,344.444,1030.556,16.667,N
1341,-0.850,-0.070,-0.695,125.000,100.000,322.222,1044.444,13.889,N
1342,-0.780,0.000,-0.635,166.667,97.222,313.889,1075.000,30.556,N
1343,-0.700,0.205,-0.430,155.556,108.333,338.889,1058.333,16.667,N
1344,-0.515,0.345,-0.435,155.556,97.222,297.222,1036.111,22.222,N
1345,-0.610,0.205,-0.535,116.667,102.778,308.333,1058.333,22.222,N
1346,-0.765,-0.015,-0.690,111.111,100.000,344.444,1061.111,2.778,N
1347,-0.840,-0.085,-0.720,147.222,100.000,336.111,1077.778,16.667,N
1348,-0.885,-0.030,-0.730,136.111,100.000,316.667,1016.667,61.111,N
1349,-0.835,-0.050,-0.715,175.000,102.778,341.667,1044.444,27.778,N
1350,-0.825,-0.045,-0.770,152.778,102.778,330.556,1050.000,5.556,N
1351,-0.895,-0.135,-0.815,169.444,102.778,313.889,1044.444,5.556,N
1352,-0.960,-0.215,-0.865,166.667,105.556,316.667,1030.556,13.889,N
1353,-0.955,-0.255,-0.795,147.222,102.778,344.444,1016.667,13.889,N
1354,-0.935,-0.165,-0.795,166.667,100.000,313.889,986.111,30.556,N
1355,-0.865,-0.095,-0.760,175.000,97.222,316.667,1033.333,47.222,N
1356,-0.840,-0.075,-0.690,113.889,100.000,313.889,1008.333,25.000,N
1357,-0.795,-0.040,-0.675,138.889,105.556,319.444,994.444,13.889,N
1358,-0.770,-0.030,-0.630,105.556,97.222,313.889,1038.889,44.444,N
1359,-0.670,0.135,-0.555,144.444,100.000,347.222,1030.556,8.333,N
1360,-0.740,0.020,-0.700,169.444,102.778,322.222,1030.556,0.000,N
1361,-0.825,-0.115,-0.710,158.333,102.778,313.889,1058.333,27.778,N
1362,-0.780,0.050,-0.625,113.889,102.778,344.444,1050.000,8.333,N
1363,-0.720,0.060,-0.605,113.889,108.333,316.667,1036.111,13.889,N
1364,-0.750,-0.020,-0.655,144.444,102.778,344.444,1033.333,2.778,N
1365,-0.780,-0.045,-0.705,141.667,97.222,308.333,1027.778,5.556,N
1366,-0.805,0.005,-0.675,155.556,94.444,325.000,1055.556,27.778,N
1367,-0.780,-0.010,-0.705,147.222,94.444,305.556,1019.444,36.111,N
1368,-0.890,-0.115,-0.795,113.889,100.000,316.667,1033.333,13.889,N
1369,-0.895,-0.145,-0.770,102.778,100.000,313.889,1055.556,22.222,N
1370,-0.885,-0.065,-0.795,133.333,108.333,333.333,1030.556,25.000,N
1371,-0.925,-0.125,-0.825,125.000,97.222,316.667,1036.111,5.556,N
1372,-0.955,-0.210,-0.895,150.000,102.778,308.333,1050.000,13.889,N
1373,-0.980,-0.285,-0.885,141.667,100.000,311.111,1030.556,19.444,N
1374,-0.950,-0.215,-0.850,144.444,105.556,350.000,1033.333,2.778,N
1375,-0.895,-0.130,-0.735,136.111,97.222,344.444,1022.222,11.111,N
1376,-0.770,-0.040,-0.665,116.667,91.667,286.111,988.889,33.333,N
1377,-0.780,-0.060,-0.710,133.333,100.000,316.667,1008.333,19.444,N
1378,-0.785,-0.025,-0.740,155.556,91.667,313.889,997.222,11.111,N
1379,-0.785,-0.045,-0.700,144.444,102.778,313.889,1025.000,27.778,N
1380,-0.760,-0.050,-0.700,138.889,108.333,338.889,1033.333,8.333,N
1381,-0.825,-0.125,-0.720,150.000,105.556,305.556,1033.333,0.000,N
1382,-0.820,-0.070,-0.690,130.556,102.778,319.444,1047.222,13.889,N
1383,-0.795,0.050,-0.660,172.222,102.778,319.444,1041.667,5.556,N
1384,-0.815,-0.015,-0.740,113.889,94.444,308.333,1011.111,30.556,N
1385,-0.840,-0.065,-0.770,169.444,102.778,319.444,1055.556,44.444,N
1386,-0.900,-0.125,-0.795,163.889,100.000,316.667,1063.889,8.333,N
1387,-0.910,-0.190,-0.820,147.222,113.889,341.667,1052.778,11.111,N
1388,-0.930,-0.155,-0.825,119.444,97.222,313.889,1072.222,19.444,N
1389,-0.935,-0.175,-0.790,166.667,94.444,319.444,1041.667,30.556,N
1390,-0.800,0.025,-0.700,122.222,91.667,322.222,1055.556,13.889,N
1391,-0.880,-0.015,-0.700,150.000,102.778,325.000,1075.000,19.444,N
1392,-0.900,-0.070,-0.790,125.000,91.667,288.889,1063.889,11.111,N
1393,-0.970,-0.120,-0.885,150.000,102.778,302.778,1063.889,0.000,N
1394,-0.875,-0.090,-0.875,1401480.556,102.778,330.556,1066.667,2.778,N
1395,-0.940,-0.120,-0.790,125.000,102.778,355.556,1075.000,8.333,N
1396,-0.890,-0.030,-0.715,127.778,105.556,333.333,1063.889,11.111,N
1397,-0.800,0.070,-0.655,166.667,97.222,313.889,1041.667,22.222,N
1398,-0.715,0.195,-0.585,155.556,111.111,330.556,1058.333,16.667,N
1399,-0.765,0.105,-0.670,136.111,102.778,347.222,1052.778,5.556,N
1400,-0.825,0.035,-0.715,102.778,94.444,319.444,1058.333,5.556,N
1401,-0.810,0.115,-0.710,136.111,100.000,286.111,1066.667,8.333,N
1402,-0.845,0.020,-0.810,116.667,97.222,172.222,1047.222,19.444,N
1403,-0.820,0.000,-0.700,169.444,97.222,319.444,1058.333,11.111,N
1404,-0.845,0.000,-0.725,141.667,100.000,341.667,1044.444,13.889,N
1405,-0.860,0.000,-0.755,147.222,105.556,316.667,1033.333,11.111,N
1406,-0.860,0.015,-0.755,133.333,102.778,319.444,1050.000,16.667,N
1407,-0.865,-0.035,-0.755,133.333,97.222,316.667,1069.444,19.444,N
1408,-0.870,-0.010,-0.755,130.556,102.778,294.444,1063.889,5.556,N
1409,-0.865,-0.015,-0.700,175.000,102.778,319.444,1077.778,13.889,N
1410,-0.845,-0.075,-0.750,163.889,100.000,322.222,1058.333,19.444,N
1411,-0.855,-0.095,-0.720,113.889,100.000,338.889,1050.000,8.333,N
1412,-0.815,-0.020,-0.695,147.222,97.222,297.222,1041.667,8.333,N
1413,-0.800,0.060,-0.680,122.222,108.333,327.778,1033.333,8.333,N
1414,-0.730,0.115,-0.585,169.444,108.333,325.000,1047.222,13.889,N
1415,-0.650,0.105,-0.550,158.333,102.778,327.778,1058.333,11.111,N
1416,-0.605,0.195,-0.540,136.111,97.222,305.556,1050.000,8.333,N
1417,-0.580,0.150,-0.570,147.222,113.889,313.889,1038.889,11.111,N
1418,-0.635,0.140,-0.615,138.889,97.222,316.667,1055.556,16.667,N
1419,-0.780,-0.005,-0.670,138.889,100.000,316.667,1069.444,13.889,N
1420,-0.825,-0.065,-0.745,150.000,88.889,294.444,1052.778,16.667,N
1421,-0.795,-0.040,-0.700,150.000,102.778,291.667,1033.333,19.444,N
1422,-0.765,-0.070,-0.665,150.000,102.778,330.556,1027.778,5.556,N
1423,-0.805,-0.080,-0.690,147.222,91.667,327.778,1036.111,8.333,N
1424,-0.780,0.030,-0.670,116.667,94.444,311.111,997.222,38.889,N
1425,-0.740,-0.030,-0.690,152.778,102.778,333.333,1008.333,11.111,N
1426,-0.755,-0.110,-0.745,138.889,100.000,322.222,1013.889,5.556,N
1427,-0.830,-0.180,-0.760,141.667,100.000,322.222,1019.444,5.556,N
1428,-0.750,-0.020,-0.700,144.444,105.556,313.889,1025.000,5.556,N
1429,-0.695,0.120,-0.640,130.556,97.222,311.111,1025.000,0.000,N
1430,-0.830,0.070,-0.635,111.111,94.444,316.667,977.778,47.222,N
1431,-0.670,0.185,-0.595,150.000,97.222,316.667,1025.000,47.222,N
1432,-0.775,0.055,-0.690,125.000,97.222,325.000,1022.222,2.778,N
1433,-0.790,0.015,-0.685,116.667,97.222,308.333,1025.000,2.778,N
1434,-0.885,-0.055,-0.770,166.667,100.000,294.444,1047.222,22.222,N
1435,-0.875,-0.070,-0.710,105.556,100.000,319.444,1044.444,2.778,N
1436,-0.660,0.165,-0.425,152.778,111.111,336.111,1050.000,5.556,N
1437,-0.490,0.280,-0.365,161.111,100.000,316.667,1038.889,11.111,N
1438,-0.450,0.265,-0.425,155.556,108.333,302.778,1025.000,13.889,N
1439,-0.530,0.125,-0.520,150.000,111.111,338.889,963.889,61.111,N
1440,-0.585,0.075,-0.600,147.222,102.778,322.222,977.778,13.889,N
1441,-0.735,-0.065,-0.705,155.556,105.556,288.889,1027.778,50.000,N
1442,-0.800,-0.060,-0.695,144.444,102.778,313.889,1019.444,8.333,N
1443,-0.845,-0.070,-0.755,147.222,100.000,319.444,1016.667,2.778,N
1444,-0.895,-0.180,-0.790,152.778,105.556,338.889,1027.778,11.111,N
1445,-0.920,-0.170,-0.810,172.222,102.778,313.889,1055.556,27.778,N
1446,-0.930,-0.220,-0.800,119.444,100.000,297.222,1047.222,8.333,N
1447,-0.890,-0.185,-0.765,175.000,102.778,316.667,1058.333,11.111,N
1448,-0.945,-0.160,-0.785,125.000,102.778,322.222,1052.778,5.556,N
1449,-0.800,-0.055,-0.635,119.444,91.667,313.889,1061.111,8.333,N
1450,-0.710,-0.005,-0.590,175.000,105.556,350.000,1052.778,8.333,N
1451,-0.710,-0.005,-0.605,163.889,108.333,325.000,1052.778,0.000,N
1452,-0.650,0.155,-0.530,111.111,102.778,313.889,1050.000,2.778,N
1453,-0.755,0.000,-0.670,155.556,100.000,302.778,1044.444,5.556,N
1454,-0.810,-0.090,-0.725,172.222,100.000,313.889,1019.444,25.000,N
1455,-0.840,-0.040,-0.695,127.778,100.000,327.778,1025.000,5.556,N
1456,-0.770,-0.045,-0.675,138.889,102.778,319.444,1041.667,16.667,N
1457,-0.705,0.040,-0.655,155.556,100.000,308.333,1011.111,30.556,N
1458,-0.725,-0.040,-0.700,161.111,94.444,322.222,983.333,27.778,N
1459,-0.700,-0.055,-0.685,136.111,100.000,319.444,1002.778,19.444,N
1460,-0.660,0.045,-0.605,150.000,102.778,325.000,1022.222,19.444,N
1461,-0.635,-0.020,-0.645,150.000,97.222,311.111,1025.000,2.778,N
1462,-0.660,0.010,-0.625,133.333,94.444,313.889,1016.667,8.333,N
1463,-0.665,-0.010,-0.625,141.667,102.778,319.444,1011.111,5.556,N
1464,-0.690,-0.005,-0.680,150.000,94.444,316.667,1027.778,16.667,N
1465,-0.740,-0.095,-0.745,147.222,100.000,341.667,1008.333,19.444,N
1466,-0.875,-1.275,-0.875,1475958.333,94.444,-1475913.889,916.667,91.667,N
1467,-0.875,-1.175,-0.875,1476891.667,105.556,-1476838.889,933.333,16.667,N
1468,-0.875,-0.695,-0.970,1477808.333,102.778,325.000,916.667,16.667,N
1469,-0.835,-0.395,-0.860,144.444,94.444,338.889,902.778,13.889,N
1470,-0.875,-1.380,-0.875,1479630.556,97.222,-1479580.556,919.444,16.667,N
1471,-0.525,0.150,-0.300,127.778,94.444,294.444,900.000,19.444,N
1472,-0.170,0.490,-0.130,141.667,100.000,305.556,886.111,13.889,N
1473,-0.090,0.490,-0.160,147.222,97.222,277.778,927.778,41.667,N
1474,-0.160,0.475,-0.125,122.222,91.667,294.444,913.889,13.889,N
1475,-0.140,0.535,-0.160,138.889,100.000,311.111,925.000,11.111,N
1476,-0.210,0.445,-0.240,122.222,116.667,336.111,938.889,13.889,N
1477,-0.285,0.430,-0.295,138.889,102.778,319.444,922.222,16.667,N
1478,-0.370,0.305,-0.400,125.000,100.000,305.556,911.111,11.111,N
1479,-0.530,0.145,-0.505,152.778,94.444,325.000,936.111,25.000,N
1480,-0.545,0.220,-0.535,144.444,102.778,305.556,927.778,8.333,N
1481,-0.630,0.100,-0.635,130.556,97.222,313.889,922.222,5.556,N
1482,-0.670,0.080,-0.620,127.778,91.667,322.222,955.556,33.333,N
1483,-0.690,0.030,-0.725,147.222,97.222,277.778,922.222,33.333,N
1484,-0.735,0.040,-0.750,116.667,100.000,277.778,933.333,11.111,N
1485,-0.885,-0.080,-0.830,119.444,113.889,311.111,938.889,5.556,N
1486,-0.910,-0.125,-0.850,119.444,102.778,308.333,930.556,8.333,N
1487,-0.945,-0.100,-0.905,116.667,100.000,311.111,966.667,36.111,N
1488,-0.875,-0.155,-0.980,1496375.000,105.556,288.889,986.111,19.444,N
1489,-0.875,-0.130,-0.915,1497330.556,102.778,300.000,955.556,30.556,N
1490,-0.955,-0.090,-0.870,122.222,100.000,319.444,944.444,11.111,N
1491,-0.915,-0.105,-0.855,141.667,97.222,308.333,983.333,38.889,N
1492,-0.890,-0.065,-0.830,133.333,102.778,316.667,955.556,27.778,N
1493,-0.835,-0.025,-0.775,113.889,100.000,311.111,938.889,16.667,N
1494,-0.855,-0.055,-0.830,113.889,97.222,316.667,969.444,30.556,N
1495,-0.845,-0.020,-0.775,116.667,100.000,313.889,969.444,0.000,N
1496,-0.815,-0.010,-0.775,122.222,88.889,316.667,977.778,8.333,N
1497,-0.825,0.040,-0.745,166.667,91.667,313.889,975.000,2.778,N
1498,-0.640,0.235,-0.455,111.111,102.778,308.333,977.778,2.778,N
1499,-0.420,0.445,-0.360,141.667,108.333,313.889,969.444,8.333,N
1500,-0.435,0.365,-0.425,116.667,94.444,302.778,1005.556,36.111,N
1501,-0.540,0.300,-0.510,113.889,91.667,302.778,997.222,8.333,N
1502,-0.555,0.320,-0.550,127.778,100.000,286.111,986.111,11.111,N
1503,-0.805,0.050,-0.820,166.667,100.000,286.111,997.222,11.111,N
1504,-0.985,-0.175,-0.980,116.667,102.778,305.556,988.889,8.333,N
1505,-0.875,-0.265,-0.875,1512988.889,105.556,-1512933.333,1022.222,33.333,N
1506,-0.875,-0.305,-0.875,1513983.333,100.000,-1513933.333,994.444,27.778,N
1507,-0.875,-0.445,-0.875,1514958.333,102.778,-1514902.778,975.000,19.444,N
1508,-0.875,-0.375,-0.875,1515947.222,97.222,-1515897.222,988.889,13.889,N
1509,-0.875,-0.220,-0.975,1516913.889,102.778,288.889,966.667,22.222,N
1510,-0.900,0.015,-0.770,108.333,102.778,313.889,977.778,11.111,N
1511,-0.785,0.050,-0.720,113.889,102.778,313.889,972.222,5.556,N
1512,-0.800,0.030,-0.750,144.444,100.000,308.333,969.444,2.778,N
1513,-0.870,-0.030,-0.720,116.667,102.778,327.778,980.556,11.111,N
1514,-0.835,-0.150,-0.875,138.889,91.667,-1521744.444,980.556,0.000,N
1515,-0.875,-0.850,-0.875,1522752.778,97.222,-1522702.778,958.333,22.222,N
1516,-0.805,0.025,-0.640,116.667,97.222,294.444,961.111,2.778,N
1517,-0.595,-0.150,-0.855,111.111,108.333,333.333,991.667,30.556,N
1518,-0.645,0.120,-0.390,111.111,97.222,333.333,969.444,22.222,N
1519,-0.385,0.255,-0.320,163.889,94.444,308.333,930.556,38.889,N
1520,-0.300,0.205,-0.290,161.111,100.000,294.444,947.222,16.667,N
1521,-0.625,-0.440,-0.960,197.222,102.778,305.556,933.333,13.889,N
1522,-0.680,0.015,-0.290,147.222,102.778,313.889,913.889,19.444,N
1523,-0.265,0.185,-0.405,152.778,97.222,200.000,941.667,27.778,N
1524,-0.630,-0.140,-0.790,127.778,94.444,305.556,908.333,33.333,N
1525,-0.605,0.055,-0.515,155.556,102.778,319.444,902.778,5.556,N
1526,-0.430,0.205,-0.395,169.444,100.000,288.889,919.444,16.667,N
1527,-0.435,0.245,-0.435,152.778,97.222,305.556,905.556,13.889,N
1528,-0.535,0.130,-0.550,125.000,94.444,263.889,883.333,22.222,N
1529,-0.460,0.210,-0.265,141.667,94.444,277.778,897.222,13.889,N
1530,0.055,0.450,-0.360,150.000,100.000,111.111,891.667,5.556,N
1531,-0.620,0.055,-0.460,138.889,100.000,288.889,880.556,11.111,N
1532,-0.505,0.055,-0.475,138.889,111.111,294.444,894.444,13.889,N
1533,-0.485,0.130,-0.555,136.111,88.889,283.333,875.000,19.444,N
1534,-0.745,-0.165,-0.875,127.778,105.556,-1540108.333,855.556,19.444,N
1535,-0.875,-0.550,-0.875,1541025.000,100.000,-1540977.778,869.444,13.889,N
1536,-0.875,-1.040,-0.875,1541911.111,97.222,-1541852.778,886.111,16.667,N
1537,-0.875,-0.910,-0.875,1542758.333,105.556,-1542711.111,847.222,38.889,N
1538,-0.875,-0.430,-0.975,1543597.222,88.889,280.556,838.889,8.333,N
1539,-0.850,-0.185,-0.940,136.111,94.444,283.333,863.889,25.000,N
1540,-0.875,-0.650,-0.875,1545308.333,97.222,-1545252.778,847.222,16.667,N
1541,-0.870,-0.045,-0.770,133.333,97.222,247.222,838.889,8.333,N
1542,-0.875,-0.590,-0.875,1546991.667,88.889,-1546947.222,844.444,5.556,N
1543,-0.875,-0.715,-0.840,1547816.667,100.000,319.444,825.000,19.444,N
1544,-0.555,-0.220,-0.875,127.778,100.000,-1548580.556,811.111,13.889,N
1545,-0.875,-1.035,-0.875,1549433.333,116.667,-1549375.000,805.556,5.556,N
1546,-0.875,-0.760,-0.770,1550252.778,88.889,252.778,819.444,13.889,N
1547,-0.255,0.485,0.015,133.333,97.222,319.444,786.111,33.333,N
1548,0.120,0.595,0.090,136.111,97.222,266.667,769.444,16.667,N
1549,-0.075,0.410,-0.150,180.556,80.556,250.000,780.556,11.111,N
1550,-0.790,-0.450,-0.795,144.444,88.889,297.222,769.444,11.111,N
1551,-0.605,0.040,-0.395,141.667,94.444,302.778,761.111,8.333,N
1552,-0.345,0.045,-0.355,113.889,97.222,286.111,763.889,2.778,N
1553,-0.240,0.280,-0.375,141.667,97.222,247.222,772.222,8.333,N
1554,-0.225,0.405,-0.100,138.889,100.000,297.222,752.778,19.444,N
1555,-0.065,0.465,-0.100,141.667,94.444,272.222,763.889,11.111,N
1556,-0.115,0.380,-0.185,141.667,97.222,158.333,766.667,2.778,N
1557,-0.185,0.425,-0.180,127.778,102.778,261.111,775.000,8.333,N
1558,-0.230,0.345,-0.200,127.778,86.111,294.444,761.111,13.889,N
1559,-0.210,0.260,-0.320,136.111,102.778,283.333,766.667,5.556,N
1560,-0.340,0.195,-0.410,144.444,116.667,305.556,750.000,16.667,N
1561,-0.495,0.040,-0.525,125.000,105.556,291.667,775.000,25.000,N
1562,-0.805,-0.265,-0.875,133.333,116.667,-1562472.222,763.889,11.111,N
1563,-0.875,-1.165,-0.875,1563302.778,94.444,-1563250.000,772.222,8.333,N
1564,-0.875,-1.225,-0.875,1564088.889,97.222,-1564030.556,786.111,13.889,N
1565,-0.875,-0.430,-0.875,1564858.333,102.778,-1564800.000,769.444,16.667,N
1566,-0.875,-0.480,-0.875,1565636.111,88.889,-1565594.444,777.778,8.333,N
1567,-0.875,-0.330,-0.875,1566402.778,86.111,-1566355.556,766.667,11.111,N
1568,-0.875,-0.980,-0.875,1567191.667,100.000,-1567133.333,788.889,22.222,N
1569,-0.295,-0.140,-0.390,58.333,105.556,291.667,769.444,19.444,N
1570,-0.395,-0.585,-0.815,188.889,97.222,269.444,772.222,2.778,N
1571,-0.705,-0.250,-0.820,144.444,100.000,322.222,755.556,16.667,N
1572,-0.510,0.185,-0.445,141.667,97.222,283.333,763.889,8.333,N
1573,-0.365,0.325,-0.260,127.778,80.556,313.889,752.778,11.111,N
1574,0.050,0.925,0.405,130.556,94.444,275.000,741.667,11.111,N
1575,0.460,1.050,0.495,144.444,97.222,305.556,752.778,11.111,N
1576,0.445,0.965,0.370,133.333,88.889,261.111,744.444,8.333,N
1577,0.255,0.775,0.120,130.556,97.222,252.778,733.333,11.111,N
1578,0.030,0.765,0.115,127.778,77.778,125.000,727.778,5.556,N
1579,0.125,0.775,0.160,122.222,97.222,252.778,758.333,30.556,N
1580,0.070,0.645,0.050,119.444,83.333,236.111,733.333,25.000,N
1581,-0.060,0.475,-0.305,138.889,97.222,111.111,750.000,16.667,N
1582,-0.595,-0.055,-0.610,125.000,86.111,280.556,733.333,16.667,N
1583,-0.635,-0.070,-0.665,122.222,100.000,216.667,761.111,27.778,N
1584,-0.455,0.185,-0.380,144.444,94.444,280.556,752.778,8.333,N
1585,-0.375,0.095,-0.515,127.778,97.222,280.556,763.889,11.111,N
1586,-0.810,-0.345,-0.875,138.889,97.222,-1580672.222,772.222,8.333,N
1587,-0.875,-0.810,-0.875,1581513.889,94.444,-1581463.889,783.333,11.111,N
1588,-0.875,-0.820,-0.875,1582277.778,83.333,-1582233.333,763.889,19.444,N
1589,-0.875,-0.855,-0.875,1583041.667,80.556,-1583000.000,763.889,0.000,N
1590,-0.965,-0.430,-0.875,141.667,100.000,-1583766.667,783.333,19.444,N
1591,-0.875,-0.425,-0.875,1584611.111,83.333,-1584566.667,786.111,2.778,N
1592,-0.875,-0.520,-0.875,1585400.000,105.556,-1585341.667,788.889,2.778,N
1593,-0.875,-0.595,-0.875,1586172.222,97.222,-1586113.889,772.222,16.667,N
1594,-0.875,-0.715,-0.875,1586980.556,100.000,-1586922.222,808.333,36.111,N
1595,-0.875,-1.830,-0.875,1587775.000,75.000,-1587738.889,794.444,13.889,N
1596,-0.875,-1.220,-0.875,1588566.667,102.778,-1588508.333,791.667,2.778,N
1597,-0.875,-0.905,-0.875,1589380.556,100.000,-1589325.000,813.889,22.222,N
1598,-0.875,-0.600,-0.875,1590183.333,97.222,-1590133.333,802.778,11.111,N
1599,-0.875,-0.440,-0.875,1590969.444,100.000,-1590913.889,786.111,16.667,N
1600,-0.940,-0.285,-0.875,133.333,91.667,280.556,791.667,5.556,N
1601,-0.650,-0.045,-0.575,144.444,94.444,283.333,811.111,19.444,N
1602,-0.380,0.400,-0.250,141.667,100.000,272.222,772.222,38.889,N
1603,-0.145,0.505,-0.060,130.556,97.222,280.556,783.333,11.111,N
1604,0.035,0.695,-0.030,138.889,97.222,144.444,769.444,13.889,N
1605,-0.420,0.345,-0.320,133.333,97.222,247.222,761.111,8.333,N
1606,-0.145,0.570,-0.025,136.111,77.778,277.778,769.444,8.333,N
1607,-0.050,0.385,-0.225,136.111,97.222,286.111,766.667,2.778,N
1608,-0.200,0.360,-0.285,138.889,100.000,250.000,772.222,5.556,N
1609,-0.190,0.295,-0.240,127.778,97.222,244.444,755.556,16.667,N
1610,-0.335,0.065,-0.545,152.778,77.778,94.444,763.889,8.333,N
1611,-0.650,-0.130,-0.780,147.222,102.778,247.222,755.556,8.333,N
1612,-0.805,-0.305,-0.935,130.556,113.889,158.333,783.333,27.778,N
1613,-0.975,-0.525,-0.875,136.111,113.889,-1601747.222,777.778,5.556,N
1614,-0.875,-0.675,-0.875,1602569.444,91.667,-1602519.444,766.667,11.111,N
1615,-0.875,-0.720,-0.875,1603347.222,97.222,-1603291.667,777.778,11.111,N
1616,-0.875,-0.660,-0.875,1604122.222,80.556,-1604080.556,775.000,2.778,N
1617,-0.875,-0.685,-0.875,1604900.000,100.000,-1604844.444,777.778,2.778,N
1618,-0.875,-0.510,-0.875,1605680.556,97.222,-1605622.222,780.556,2.778,N
1619,-0.995,-0.510,-0.875,136.111,88.889,-1606427.778,794.444,13.889,N
1620,-0.935,-0.380,-0.875,141.667,97.222,272.222,772.222,22.222,N
1621,-0.755,-0.195,-0.635,141.667,116.667,283.333,775.000,2.778,N
1622,-0.635,-0.155,-0.695,138.889,94.444,283.333,786.111,11.111,N
1623,-0.720,-0.080,-0.550,136.111,105.556,402.778,783.333,2.778,N
1624,-0.580,-0.130,-0.665,136.111,100.000,252.778,783.333,0.000,N
1625,-0.675,-0.100,-0.640,127.778,97.222,247.222,769.444,13.889,N
1626,-0.910,-0.210,-0.640,141.667,97.222,269.444,775.000,5.556,N
1627,-0.920,-0.395,-0.875,150.000,91.667,-1612644.444,775.000,0.000,N
1628,-0.875,-0.555,-0.875,1613463.889,86.111,-1613419.444,769.444,5.556,N
1629,-0.875,-0.330,-0.870,1614230.556,102.778,288.889,766.667,2.778,N
1630,-0.610,0.135,-0.485,141.667,105.556,308.333,783.333,16.667,N
1631,-0.640,0.150,-0.825,127.778,105.556,116.667,752.778,30.556,N
1632,-0.875,-0.620,-0.875,1616525.000,116.667,-1616466.667,758.333,5.556,N
1633,-0.780,0.000,-0.665,144.444,86.111,300.000,758.333,0.000,N
1634,-0.460,0.345,-0.250,122.222,94.444,402.778,763.889,5.556,N
1635,0.285,0.820,0.380,125.000,77.778,150.000,747.222,16.667,N
1636,0.250,0.910,0.135,125.000,91.667,258.333,727.778,19.444,N
1637,-0.015,0.700,0.150,122.222,100.000,272.222,736.111,8.333,N
1638,0.560,1.160,0.430,119.444,97.222,108.333,733.333,2.778,N
1639,-0.065,0.545,-0.340,144.444,100.000,155.556,727.778,5.556,N
1640,-0.645,0.100,-0.755,133.333,86.111,100.000,727.778,0.000,N
1641,-0.675,0.170,-0.420,136.111,83.333,258.333,730.556,2.778,N
1642,-0.050,0.565,0.015,125.000,102.778,252.778,725.000,5.556,N
1643,0.000,0.580,-0.040,130.556,94.444,238.889,730.556,5.556,N
1644,-0.160,0.445,-0.245,133.333,94.444,183.333,711.111,19.444,N
1645,-0.345,0.170,-0.440,125.000,97.222,205.556,752.778,41.667,N
1646,-0.585,0.070,-0.645,127.778,105.556,255.556,713.889,38.889,N
1647,-0.585,0.070,-0.630,136.111,91.667,252.778,738.889,25.000,N
1648,-0.685,-0.145,-0.725,136.111,100.000,266.667,716.667,22.222,N
1649,-0.850,-0.260,-0.940,136.111,97.222,250.000,755.556,38.889,N
1650,-0.965,-0.300,-0.950,122.222,94.444,238.889,741.667,13.889,N
1651,-0.975,-0.320,-0.875,130.556,102.778,-1630455.556,747.222,5.556,N
1652,-0.875,-0.310,-0.985,1631266.667,116.667,283.333,755.556,8.333,N
1653,-0.995,-0.225,-0.830,133.333,105.556,286.111,772.222,16.667,N
1654,-0.780,-0.190,-0.860,130.556,97.222,272.222,763.889,8.333,N
1655,-0.935,-0.305,-0.875,127.778,88.889,-1633502.778,747.222,16.667,N
1656,-0.875,-0.685,-0.875,1634333.333,105.556,-1634275.000,783.333,36.111,N
1657,-0.875,-0.615,-0.875,1635105.556,100.000,-1635050.000,772.222,11.111,N
1658,-0.985,-0.280,-0.875,130.556,91.667,-1635825.000,772.222,0.000,N
1659,-0.910,-0.090,-0.770,125.000,100.000,275.000,761.111,11.111,N
1660,-0.720,-0.055,-0.695,125.000,94.444,252.778,802.778,41.667,N
1661,-0.640,0.000,-0.660,130.556,100.000,277.778,788.889,13.889,N
1662,-0.700,-0.090,-0.750,141.667,100.000,244.444,800.000,11.111,N
1663,-0.670,-0.090,-0.630,133.333,116.667,308.333,808.333,8.333,N
1664,-0.505,0.170,-0.415,138.889,94.444,252.778,805.556,2.778,N
1665,-0.355,0.315,-0.330,136.111,94.444,269.444,797.222,8.333,N
1666,-0.235,0.340,-0.265,136.111,100.000,230.556,791.667,5.556,N
1667,-0.220,0.280,-0.290,138.889,100.000,263.889,819.444,27.778,N
1668,-0.175,0.375,-0.370,136.111,97.222,144.444,775.000,44.444,N
1669,-0.230,0.320,-0.375,125.000,94.444,244.444,791.667,16.667,N
1670,-0.460,0.195,-0.405,133.333,111.111,255.556,769.444,22.222,N
1671,-0.390,0.230,-0.475,130.556,108.333,194.444,794.444,25.000,N
1672,-0.570,0.135,-0.745,133.333,108.333,116.667,797.222,2.778,N
1673,-0.870,-0.115,-0.565,141.667,94.444,263.889,791.667,5.556,N
1674,-0.625,-0.090,-0.745,141.667,102.778,122.222,825.000,33.333,N
1675,-0.840,-0.175,-0.955,138.889,94.444,219.444,788.889,36.111,N
1676,-0.930,-0.315,-0.875,133.333,100.000,-1650144.444,813.889,25.000,N
1677,-0.875,-0.420,-0.875,1651016.667,108.333,-1650958.333,816.667,2.778,N
1678,-0.875,-0.400,-0.875,1651852.778,100.000,-1651802.778,836.111,19.444,N
1679,-0.890,-0.375,-0.935,136.111,86.111,250.000,827.778,8.333,N
1680,-0.995,-0.480,-0.875,122.222,111.111,-1653422.222,797.222,30.556,N
1681,-0.875,-4.440,-0.875,1654283.333,5.556,-1654277.778,805.556,8.333,N
1682,-0.875,-3.460,-0.875,1655111.111,69.444,-1655075.000,827.778,22.222,N
1683,-0.875,-2.135,-0.875,1655913.889,94.444,-1655855.556,802.778,25.000,N
1684,-0.875,-1.110,-0.875,1656747.222,102.778,-1656691.667,833.333,30.556,N
1685,-0.875,-0.525,-0.875,1657577.778,97.222,-1657519.444,830.556,2.778,N
1686,-0.765,-0.120,-0.585,141.667,100.000,405.556,833.333,2.778,N
1687,-0.240,0.415,-0.030,144.444,97.222,266.667,833.333,0.000,N
1688,0.260,0.770,0.275,141.667,94.444,275.000,861.111,27.778,N
1689,0.480,1.125,0.690,141.667,105.556,272.222,841.667,19.444,N
1690,0.600,1.250,0.590,119.444,97.222,202.778,830.556,11.111,N
1691,0.465,0.950,0.225,138.889,94.444,141.667,825.000,5.556,N
1692,0.370,1.055,0.410,130.556,97.222,213.889,836.111,11.111,N
1693,0.375,0.960,0.235,138.889,102.778,208.333,836.111,0.000,N
1694,0.710,1.400,0.690,133.333,102.778,113.889,858.333,22.222,N
1695,0.490,1.065,0.320,158.333,100.000,108.333,863.889,5.556,N
1696,0.105,0.740,0.020,127.778,100.000,250.000,827.778,36.111,N
1697,-0.190,0.470,-0.320,138.889,100.000,255.556,844.444,16.667,N
1698,-0.465,0.075,-0.640,150.000,113.889,144.444,883.333,38.889,N
1699,-0.800,-0.185,-0.665,141.667,100.000,280.556,858.333,25.000,N
1700,-0.725,-0.165,-0.825,125.000,91.667,213.889,847.222,11.111,N
1701,-0.875,-0.260,-0.885,141.667,91.667,277.778,850.000,2.778,N
1702,-0.910,-0.335,-0.905,130.556,97.222,261.111,850.000,0.000,N
1703,-0.960,-0.250,-0.845,136.111,97.222,255.556,844.444,5.556,N
1704,-0.960,-0.285,-0.875,163.889,94.444,-1673622.222,869.444,25.000,N
1705,-0.875,-0.370,-0.955,1674527.778,80.556,255.556,855.556,13.889,N
1706,-0.875,-0.425,-0.875,1675383.333,97.222,-1675327.778,855.556,0.000,N
1707,-0.875,-0.450,-0.875,1676227.778,100.000,-1676175.000,844.444,11.111,N
1708,-0.875,-0.260,-0.915,1677122.222,100.000,263.889,894.444,50.000,N
1709,-0.795,-0.010,-0.690,119.444,83.333,222.222,872.222,22.222,N
1710,-0.900,-0.125,-0.785,108.333,100.000,244.444,850.000,22.222,N
1711,-0.700,0.115,-0.560,119.444,102.778,225.000,855.556,5.556,N
1712,-0.705,0.005,-0.705,119.444,91.667,263.889,866.667,11.111,N
1713,-0.725,-0.010,-0.655,130.556,91.667,244.444,875.000,8.333,N
1714,-0.575,0.110,-0.615,122.222,100.000,227.778,888.889,13.889,N
1715,-0.650,0.050,-0.605,113.889,97.222,272.222,858.333,30.556,N
1716,-0.510,0.310,-0.135,113.889,97.222,277.778,866.667,8.333,N
1717,0.070,0.810,0.185,141.667,102.778,286.111,866.667,0.000,N
1718,0.190,0.895,0.230,125.000,97.222,250.000,877.778,11.111,N
1719,0.025,0.695,-0.050,141.667,88.889,216.667,866.667,11.111,N
1720,-0.195,0.445,-0.280,138.889,100.000,244.444,852.778,13.889,N
1721,-0.420,0.215,-0.570,138.889,102.778,152.778,872.222,19.444,N
1722,-0.690,-0.035,-0.790,136.111,100.000,277.778,836.111,36.111,N
1723,-0.925,-0.345,-0.875,133.333,105.556,-1690030.556,858.333,22.222,N
1724,-0.875,-0.475,-0.875,1690944.444,97.222,-1690894.444,858.333,0.000,N
1725,-0.875,-0.685,-0.875,1691800.000,100.000,-1691741.667,855.556,2.778,N
1726,-0.875,-0.730,-0.875,1692666.667,113.889,-1692611.111,866.667,11.111,N
1727,-0.875,-0.745,-0.875,1693536.111,113.889,-1693477.778,869.444,2.778,N
1728,-0.875,-0.815,-0.875,1694413.889,86.111,-1694369.444,877.778,8.333,N
1729,-0.875,-0.820,-0.875,1695255.556,102.778,-1695197.222,841.667,36.111,N
1730,-0.875,-0.950,-0.875,1696083.333,94.444,-1696033.333,827.778,13.889,N
1731,-0.875,-0.800,-0.875,1696938.889,100.000,-1696880.556,855.556,27.778,N
1732,-0.875,-0.925,-0.875,1697769.444,91.667,-1697719.444,830.556,25.000,N
1733,-0.875,-0.530,-0.875,1698600.000,100.000,-1698541.667,830.556,0.000,N
1734,-0.905,-0.270,-0.845,136.111,105.556,247.222,850.000,19.444,N
1735,-0.740,-0.095,-0.705,141.667,100.000,250.000,838.889,11.111,N
1736,-0.645,-0.100,-0.620,136.111,102.778,269.444,836.111,2.778,N
1737,-0.565,-0.055,-0.500,155.556,116.667,266.667,850.000,13.889,N
1738,-0.465,0.080,-0.440,152.778,88.889,283.333,844.444,5.556,N
1739,-0.375,0.180,-0.360,141.667,105.556,288.889,836.111,8.333,N
1740,-0.410,0.160,-0.390,122.222,100.000,275.000,813.889,22.222,N
1741,-0.380,0.230,-0.285,130.556,102.778,275.000,830.556,16.667,N
1742,-0.165,0.415,-0.270,133.333,94.444,252.778,819.444,11.111,N
1743,-0.330,0.270,-0.375,138.889,105.556,261.111,827.778,8.333,N
1744,-0.405,0.205,-0.375,127.778,100.000,294.444,833.333,5.556,N
1745,-0.400,0.115,-0.450,133.333,105.556,277.778,827.778,5.556,N
1746,-0.500,0.115,-0.550,130.556,105.556,227.778,813.889,13.889,N
1747,-0.480,0.125,-0.520,133.333,102.778,266.667,825.000,11.111,N
1748,-0.665,-0.075,-0.645,147.222,100.000,266.667,855.556,30.556,N
1749,-0.590,-0.075,-0.640,144.444,83.333,261.111,838.889,16.667,N
1750,-0.735,-0.110,-0.585,136.111,91.667,280.556,825.000,13.889,N
1751,-0.450,0.200,-0.475,141.667,105.556,186.111,861.111,36.111,N
1752,-0.645,0.205,-0.325,105.556,91.667,286.111,836.111,25.000,N
1753,-0.360,0.310,-0.380,125.000,102.778,280.556,844.444,8.333,N
1754,-0.565,0.160,-0.690,125.000,102.778,252.778,858.333,13.889,N
1755,-0.880,-0.175,-0.815,122.222,116.667,269.444,850.000,8.333,N
1756,-0.865,-0.190,-0.950,166.667,105.556,283.333,850.000,0.000,N
1757,-0.875,-0.190,-0.810,1718702.778,102.778,283.333,836.111,13.889,N
1758,-0.800,0.030,-0.510,108.333,108.333,266.667,866.667,30.556,N
1759,-0.665,0.145,-0.570,119.444,94.444,247.222,858.333,8.333,N
1760,-0.930,-0.125,-0.610,108.333,102.778,286.111,841.667,16.667,N
1761,-0.420,0.330,-0.320,113.889,97.222,294.444,872.222,30.556,N
1762,-0.275,0.390,-0.385,152.778,102.778,272.222,847.222,25.000,N
1763,-0.680,0.160,-0.395,111.111,105.556,208.333,861.111,13.889,N
1764,-0.600,0.220,-0.455,125.000,105.556,258.333,872.222,11.111,N
1765,-0.480,0.255,-0.515,102.778,91.667,280.556,875.000,2.778,N
1766,-0.710,0.165,-0.485,119.444,102.778,263.889,861.111,13.889,N
1767,-0.625,0.170,-0.395,125.000,105.556,308.333,888.889,27.778,N
1768,-0.380,0.350,-0.310,127.778,108.333,261.111,880.556,8.333,N
1769,-0.480,0.310,-0.335,100.000,97.222,258.333,872.222,8.333,N
1770,-0.500,0.150,-0.555,147.222,97.222,269.444,847.222,25.000,N
1771,-0.590,0.100,-0.545,100.000,94.444,280.556,861.111,13.889,N
1772,-0.715,0.050,-0.515,127.778,97.222,286.111,847.222,13.889,N
1773,-0.635,0.060,-0.630,127.778,97.222,288.889,847.222,0.000,N
1774,-0.655,0.175,-0.560,144.444,102.778,288.889,844.444,2.778,N
1775,-0.715,0.045,-0.685,130.556,100.000,258.333,833.333,11.111,N
1776,-0.860,-0.120,-0.760,147.222,100.000,288.889,841.667,8.333,N
1777,-0.775,-0.010,-0.810,130.556,102.778,297.222,858.333,16.667,N
1778,-0.875,-0.465,-0.845,1736736.111,97.222,313.889,855.556,2.778,N
1779,-0.635,0.120,-0.400,150.000,86.111,244.444,863.889,8.333,N
1780,-0.505,0.310,-0.540,138.889,94.444,280.556,850.000,13.889,N
1781,-0.635,0.175,-0.590,133.333,91.667,216.667,880.556,30.556,N
1782,-0.680,-0.020,-0.655,136.111,97.222,291.667,866.667,13.889,N
1783,-0.615,0.105,-0.590,133.333,105.556,283.333,883.333,16.667,N
1784,-0.740,-0.080,-0.700,138.889,100.000,280.556,872.222,11.111,N
1785,-0.485,0.230,-0.525,141.667,100.000,277.778,861.111,11.111,N
1786,-0.855,-0.120,-0.635,113.889,100.000,308.333,836.111,25.000,N
1787,-0.675,-0.050,-0.650,155.556,88.889,263.889,880.556,44.444,N
1788,-0.550,0.155,-0.460,108.333,116.667,277.778,863.889,16.667,N
1789,-0.560,0.150,-0.460,141.667,108.333,275.000,858.333,5.556,N
1790,-0.530,0.095,-0.530,108.333,102.778,277.778,866.667,8.333,N
1791,-0.455,0.220,-0.300,152.778,94.444,241.667,855.556,11.111,N
1792,-0.625,0.045,-0.610,130.556,91.667,272.222,863.889,8.333,N
1793,-0.715,-0.105,-0.750,150.000,100.000,275.000,886.111,22.222,N
1794,-0.935,-0.225,-0.780,125.000,94.444,266.667,863.889,22.222,N
1795,-0.850,-0.230,-0.875,172.222,105.556,252.778,861.111,2.778,N
1796,-0.875,-0.410,-0.860,1752300.000,102.778,302.778,850.000,11.111,N
1797,-0.940,-0.280,-0.855,138.889,116.667,294.444,869.444,19.444,N
1798,-0.790,-0.085,-0.700,113.889,94.444,308.333,855.556,13.889,N
1799,-0.865,-0.205,-0.810,136.111,105.556,300.000,833.333,22.222,N
1800,-0.715,-0.030,-0.665,141.667,102.778,238.889,838.889,5.556,N
1801,-0.720,-0.030,-0.520,125.000,88.889,283.333,838.889,0.000,N
1802,-0.655,0.010,-0.710,136.111,102.778,283.333,847.222,8.333,N
1803,-0.860,-0.080,-0.580,144.444,105.556,286.111,844.444,2.778,N
1804,-0.795,-0.135,-0.715,166.667,83.333,250.000,858.333,13.889,N
1805,-0.780,-0.035,-0.680,166.667,100.000,286.111,833.333,25.000,N
1806,-0.915,-0.125,-0.720,113.889,94.444,288.889,833.333,0.000,N
1807,-0.655,0.090,-0.540,111.111,105.556,288.889,869.444,36.111,N
1808,-0.910,-0.210,-0.870,116.667,91.667,247.222,836.111,33.333,N
1809,-0.875,-0.355,-0.875,1763252.778,94.444,-1763202.778,794.444,41.667,N
1810,-0.995,-0.055,-0.630,113.889,100.000,280.556,780.556,13.889,N
1811,-0.620,0.050,-0.630,144.444,91.667,263.889,822.222,41.667,N
