id,Pamp,Ramp,Tamp,PR,QRS,QT,RRI,dRRI,label
1,-0.120,1.375,0.070,58.333,72.222,355.556,891.667,444.444,N
2,-0.110,1.385,0.000,58.333,80.556,375.000,880.556,11.111,N
3,0.055,1.115,0.365,61.111,102.778,122.222,525.000,355.556,V
4,-0.160,1.285,0.020,55.556,72.222,358.333,1038.889,513.889,N
5,-0.140,1.295,-0.040,58.333,75.000,322.222,722.222,316.667,N
6,-0.135,1.340,-0.015,55.556,69.444,322.222,811.111,88.889,N
7,0.005,1.125,0.220,55.556,105.556,122.222,455.556,355.556,V
8,-0.210,1.235,-0.050,55.556,75.000,358.333,847.222,391.667,N
9,-0.155,1.390,-0.105,172.222,86.111,350.000,663.889,183.333,N
10,-0.135,1.320,0.040,58.333,83.333,355.556,1280.556,616.667,N
11,-0.140,1.345,-0.025,163.889,83.333,330.556,758.333,522.222,N
12,-0.190,1.355,-0.085,61.111,80.556,325.000,916.667,158.333,N
13,-0.230,1.355,-0.095,83.333,83.333,358.333,1002.778,86.111,N
14,-0.185,1.285,0.020,150.000,83.333,305.556,969.444,33.333,N
15,-0.185,1.355,-0.020,55.556,61.111,308.333,705.556,263.889,N
16,-0.210,1.400,-0.030,172.222,72.222,325.000,730.556,25.000,N
17,-0.080,1.025,0.240,194.444,111.111,127.778,505.556,225.000,V
18,-0.195,1.275,-0.050,58.333,80.556,355.556,863.889,358.333,N
19,-0.200,1.420,-0.140,155.556,66.667,316.667,697.222,166.667,N
20,-0.240,1.380,-0.060,58.333,72.222,322.222,700.000,2.778,N
21,-0.060,1.180,0.345,172.222,108.333,119.444,447.222,252.778,V
22,-0.260,1.255,-0.060,55.556,77.778,341.667,1019.444,572.222,N
23,-0.250,1.345,-0.115,69.444,72.222,322.222,933.333,86.111,N
24,-0.185,1.470,0.015,100.000,86.111,341.667,825.000,108.333,N
25,0.010,1.140,0.215,188.889,105.556,122.222,491.667,333.333,V
26,-0.160,1.440,0.050,86.111,86.111,336.111,1061.111,569.444,N
27,-0.085,1.610,0.060,108.333,72.222,325.000,638.889,422.222,N
28,-0.175,1.555,-0.005,188.889,69.444,319.444,680.556,41.667,N
29,-0.180,1.420,-0.040,125.000,75.000,338.889,750.000,69.444,N
30,-0.195,1.495,0.005,69.444,86.111,355.556,1194.444,444.444,N
31,-0.220,1.420,-0.055,180.556,83.333,341.667,744.444,450.000,N
32,-0.255,1.375,-0.090,113.889,86.111,341.667,752.778,8.333,N
33,-0.250,1.435,-0.065,66.667,83.333,341.667,883.333,130.556,N
34,-0.235,1.445,-0.085,122.222,86.111,355.556,752.778,130.556,N
35,-0.255,1.290,-0.105,194.444,80.556,327.778,741.667,11.111,N
36,-0.105,1.060,0.310,197.222,102.778,127.778,486.111,255.556,V
37,-0.260,1.235,-0.060,88.889,75.000,358.333,858.333,372.222,N
38,-0.235,0.975,-0.130,125.000,102.778,327.778,716.667,141.667,N
39,-0.210,1.345,-0.055,127.778,80.556,361.111,822.222,105.556,N
40,-0.055,1.150,0.210,58.333,108.333,122.222,480.556,341.667,V
41,-0.285,1.080,-0.140,113.889,77.778,372.222,819.444,338.889,N
42,-0.200,1.295,-0.165,155.556,77.778,363.889,675.000,144.444,N
43,-0.230,1.315,-0.070,150.000,83.333,358.333,977.778,302.778,N
44,-0.190,1.420,-0.060,55.556,75.000,341.667,788.889,188.889,N
45,-0.085,1.070,0.400,197.222,108.333,125.000,497.222,291.667,V
46,-0.180,1.460,0.025,94.444,63.889,311.111,808.333,311.111,N
47,-0.170,1.525,-0.025,194.444,80.556,355.556,669.444,138.889,N
48,-0.185,1.415,-0.035,55.556,72.222,338.889,725.000,55.556,N
49,-0.180,1.490,-0.105,72.222,77.778,341.667,683.333,41.667,N
50,-0.245,1.305,-0.095,69.444,83.333,352.778,827.778,144.444,N
51,-0.230,1.415,-0.070,55.556,75.000,341.667,722.222,105.556,N
52,-0.070,1.055,0.315,166.667,111.111,127.778,458.333,263.889,V
53,-0.170,1.405,0.040,69.444,80.556,355.556,1019.444,561.111,N
54,-0.090,1.395,-0.075,144.444,80.556,338.889,644.444,375.000,N
55,-0.175,1.445,-0.035,58.333,75.000,355.556,744.444,100.000,N
56,-0.170,1.420,-0.090,172.222,75.000,327.778,697.222,47.222,N
57,-0.160,1.390,0.030,63.889,86.111,375.000,1258.333,561.111,N
58,-0.205,1.240,0.000,72.222,75.000,352.778,1077.778,180.556,N
59,-0.215,1.160,-0.040,127.778,83.333,341.667,752.778,325.000,N
60,-0.205,1.400,-0.080,52.778,69.444,308.333,641.667,111.111,N
61,-0.245,1.300,-0.070,108.333,80.556,330.556,705.556,63.889,N
62,-0.225,1.330,-0.110,191.667,75.000,338.889,633.333,72.222,N
63,-0.270,1.155,-0.120,63.889,83.333,344.444,819.444,186.111,N
64,-0.255,1.275,-0.110,116.667,86.111,341.667,719.444,100.000,N
65,-0.220,1.340,-0.030,133.333,83.333,358.333,816.667,97.222,N
66,-0.220,1.320,-0.080,186.111,80.556,350.000,869.444,52.778,N
67,-0.100,1.005,0.340,55.556,113.889,127.778,541.667,327.778,V
68,-0.160,1.420,0.045,61.111,77.778,338.889,1033.333,491.667,N
69,-0.100,1.500,-0.010,166.667,66.667,308.333,638.889,394.444,N
70,-0.160,1.440,0.030,125.000,77.778,330.556,775.000,136.111,N
71,0.030,1.465,-0.230,133.333,116.667,405.556,408.333,366.667,V
72,-0.190,1.390,0.005,44.444,66.667,361.111,994.444,586.111,N
73,-0.170,1.480,-0.085,150.000,77.778,336.111,719.444,275.000,N
74,-0.210,1.360,-0.045,83.333,69.444,338.889,919.444,200.000,N
75,-0.165,1.395,-0.085,188.889,69.444,322.222,686.111,233.333,N
76,-0.250,1.350,-0.065,197.222,77.778,322.222,741.667,55.556,N
77,-0.220,1.260,-0.125,52.778,75.000,316.667,619.444,122.222,N
78,-0.240,1.320,-0.060,147.222,80.556,341.667,713.889,94.444,N
79,-0.060,1.080,0.160,163.889,111.111,125.000,452.778,261.111,V
80,-0.215,1.305,-0.045,69.444,75.000,350.000,919.444,466.667,N
81,-0.210,1.410,-0.120,180.556,83.333,358.333,727.778,191.667,N
82,-0.245,1.415,-0.030,130.556,83.333,358.333,930.556,202.778,N
83,-0.215,1.405,-0.060,194.444,77.778,341.667,1216.667,286.111,N
84,-0.205,1.405,-0.015,88.889,83.333,322.222,941.667,275.000,N
85,-0.190,1.415,0.000,133.333,83.333,311.111,711.111,230.556,N
86,-0.210,1.445,-0.045,136.111,83.333,358.333,669.444,41.667,N
87,-0.260,1.315,-0.090,172.222,77.778,361.111,772.222,102.778,N
88,-0.235,1.305,-0.040,58.333,75.000,327.778,883.333,111.111,N
89,-0.085,1.090,0.250,58.333,113.889,127.778,511.111,372.222,V
90,-0.205,1.345,-0.025,72.222,80.556,347.222,886.111,375.000,N
91,-0.170,1.360,-0.115,161.111,80.556,338.889,688.889,197.222,N
92,-0.225,1.430,-0.050,61.111,75.000,325.000,647.222,41.667,N
93,-0.050,1.160,0.320,172.222,108.333,125.000,447.222,200.000,V
94,-0.215,1.395,-0.065,63.889,80.556,361.111,772.222,325.000,N
95,-0.175,1.450,-0.135,183.333,80.556,355.556,688.889,83.333,N
96,-0.235,1.355,-0.060,122.222,83.333,350.000,769.444,80.556,N
97,-0.060,1.185,0.285,163.889,111.111,125.000,461.111,308.333,V
98,-0.200,1.400,-0.020,52.778,72.222,358.333,1055.556,594.444,N
99,-0.190,1.440,-0.085,58.333,77.778,308.333,738.889,316.667,N
100,-0.190,1.420,-0.080,144.444,77.778,311.111,633.333,105.556,N
101,-0.210,1.420,-0.050,144.444,75.000,308.333,633.333,0.000,N
102,-0.050,1.185,0.290,172.222,108.333,122.222,427.778,205.556,V
103,-0.160,1.340,0.050,69.444,86.111,405.556,1363.889,936.111,N
104,-0.140,1.340,-0.125,155.556,75.000,344.444,736.111,627.778,N
105,-0.200,1.395,-0.005,58.333,77.778,341.667,852.778,116.667,N
106,-0.125,1.465,-0.015,61.111,77.778,330.556,883.333,30.556,N
107,-0.015,1.100,0.155,175.000,111.111,125.000,480.556,402.778,V
108,-0.135,1.380,0.010,55.556,75.000,308.333,850.000,369.444,N
109,-0.135,1.200,-0.080,186.111,69.444,308.333,647.222,202.778,N
110,-0.180,1.295,-0.040,158.333,77.778,325.000,605.556,41.667,N
111,-0.190,1.350,-0.035,175.000,77.778,308.333,680.556,75.000,N
112,-0.210,1.265,-0.015,66.667,66.667,352.778,1177.778,497.222,N
113,-0.150,1.290,-0.015,52.778,66.667,319.444,683.333,494.444,N
114,-0.150,1.200,0.060,50.000,75.000,338.889,1019.444,336.111,N
115,-0.135,1.155,0.085,166.667,72.222,311.111,763.889,255.556,N
116,0.020,0.930,0.270,197.222,100.000,119.444,494.444,269.444,V
117,-0.160,1.140,0.010,61.111,86.111,330.556,1050.000,555.556,N
118,-0.170,1.160,0.060,58.333,80.556,325.000,747.222,302.778,N
119,0.030,1.070,0.310,183.333,111.111,125.000,475.000,272.222,V
120,-0.095,1.325,0.050,113.889,86.111,341.667,880.556,405.556,N
121,-0.135,1.340,-0.045,197.222,69.444,333.333,730.556,150.000,N
122,-0.185,1.440,0.025,172.222,83.333,338.889,738.889,8.333,N
123,-0.120,1.495,0.005,188.889,77.778,308.333,672.222,66.667,N
124,0.005,1.150,0.345,180.556,105.556,125.000,438.889,233.333,V
125,-0.130,1.285,0.030,58.333,72.222,325.000,808.333,369.444,N
126,-0.140,1.130,-0.035,61.111,72.222,319.444,719.444,88.889,N
127,-0.075,1.430,0.135,55.556,77.778,355.556,1230.556,511.111,N
128,-0.040,1.515,0.115,191.667,80.556,325.000,719.444,511.111,N
129,-0.085,1.440,0.085,63.889,80.556,322.222,752.778,33.333,N
130,0.055,1.100,0.425,52.778,102.778,119.444,530.556,222.222,V
131,-0.075,1.360,0.145,61.111,75.000,341.667,1047.222,516.667,N
132,-0.030,1.355,0.005,166.667,72.222,311.111,644.444,402.778,N
133,-0.125,1.370,0.030,77.778,77.778,325.000,672.222,27.778,N
134,0.030,1.185,0.385,169.444,108.333,122.222,447.222,225.000,V
135,-0.115,1.320,0.040,161.111,86.111,377.778,1238.889,791.667,N
136,-0.105,1.470,-0.015,158.333,77.778,341.667,694.444,544.444,N
137,-0.145,1.450,0.055,58.333,86.111,336.111,897.222,202.778,N
138,-0.110,1.325,-0.005,50.000,69.444,325.000,747.222,150.000,N
139,-0.170,1.315,-0.060,163.889,66.667,311.111,694.444,52.778,N
140,-0.165,1.310,-0.045,55.556,72.222,322.222,841.667,147.222,N
141,-0.135,1.485,0.060,113.889,80.556,325.000,875.000,33.333,N
142,0.060,1.150,0.280,172.222,108.333,122.222,441.667,433.333,V
143,-0.210,1.155,-0.070,66.667,86.111,372.222,827.778,386.111,N
144,-0.190,1.190,-0.115,152.778,72.222,322.222,686.111,141.667,N
145,-0.235,1.125,-0.135,58.333,80.556,344.444,675.000,11.111,N
146,-0.085,1.035,0.270,58.333,111.111,125.000,491.667,183.333,V
147,-0.255,1.240,-0.060,66.667,116.667,352.778,930.556,438.889,N
148,-0.250,1.195,-0.160,102.778,83.333,338.889,900.000,30.556,N
149,-0.255,1.140,-0.135,91.667,72.222,305.556,622.222,277.778,N
150,-0.260,1.170,-0.145,66.667,83.333,325.000,594.444,27.778,N
151,-0.125,0.915,0.185,58.333,102.778,127.778,475.000,119.444,V
152,-0.245,1.045,-0.130,58.333,91.667,369.444,1061.111,586.111,N
153,-0.295,0.885,-0.185,58.333,80.556,341.667,888.889,172.222,N
154,-0.120,0.960,0.100,58.333,108.333,125.000,483.333,405.556,V
155,-0.255,0.970,-0.125,61.111,83.333,347.222,833.333,350.000,N
156,-0.240,0.940,-0.175,133.333,83.333,341.667,655.556,177.778,N
157,-0.215,1.010,-0.115,58.333,80.556,311.111,627.778,27.778,N
158,-0.195,0.940,-0.160,63.889,113.889,325.000,602.778,25.000,N
159,-0.250,0.915,-0.150,86.111,111.111,336.111,655.556,52.778,N
160,-0.185,1.045,-0.025,58.333,113.889,338.889,816.667,161.111,N
161,0.000,0.975,0.240,58.333,111.111,122.222,480.556,336.111,V
162,-0.240,0.905,-0.110,58.333,83.333,355.556,919.444,438.889,N
163,-0.165,0.935,-0.050,58.333,83.333,327.778,755.556,163.889,N
164,-0.055,0.845,0.290,58.333,113.889,127.778,508.333,247.222,V
165,-0.160,0.995,-0.020,63.889,113.889,325.000,894.444,386.111,N
166,-0.185,0.955,-0.070,194.444,80.556,322.222,683.333,211.111,N
167,-0.185,0.970,-0.055,63.889,116.667,308.333,802.778,119.444,N
168,-0.075,0.820,0.070,197.222,116.667,130.556,452.778,350.000,V
169,-0.215,0.925,-0.100,50.000,97.222,341.667,886.111,433.333,N
170,-0.250,0.865,-0.150,55.556,77.778,308.333,752.778,133.333,N
171,-0.240,0.935,-0.115,61.111,80.556,325.000,669.444,83.333,N
172,-0.215,0.940,-0.125,52.778,75.000,325.000,694.444,25.000,N
173,-0.125,0.835,0.100,161.111,111.111,127.778,455.556,238.889,V
174,-0.270,0.905,-0.120,63.889,77.778,338.889,850.000,394.444,N
175,-0.240,1.095,-0.125,100.000,83.333,325.000,738.889,111.111,N
176,-0.090,0.915,0.210,58.333,102.778,122.222,477.778,261.111,V
177,-0.215,1.090,-0.075,61.111,83.333,344.444,733.333,255.556,N
178,-0.240,1.105,-0.080,105.556,75.000,358.333,775.000,41.667,N
179,-0.195,1.150,-0.005,58.333,77.778,341.667,855.556,80.556,N
180,-0.020,0.985,0.200,58.333,108.333,127.778,500.000,355.556,V
181,-0.200,1.005,-0.060,63.889,83.333,341.667,805.556,305.556,N
182,-0.140,1.185,-0.090,166.667,80.556,322.222,616.667,188.889,N
183,-0.140,1.290,-0.015,58.333,75.000,325.000,611.111,5.556,N
184,0.010,1.080,0.330,58.333,108.333,119.444,447.222,163.889,V
185,-0.070,1.160,0.095,61.111,80.556,336.111,938.889,491.667,N
186,-0.010,1.310,0.110,58.333,80.556,341.667,1361.111,422.222,N
187,-0.085,1.310,0.030,69.444,86.111,322.222,891.667,469.444,N
188,0.025,1.220,0.330,169.444,111.111,122.222,466.667,425.000,V
189,-0.030,1.430,0.095,144.444,77.778,341.667,825.000,358.333,N
190,-0.055,1.375,0.020,100.000,83.333,341.667,808.333,16.667,N
191,0.020,1.135,0.330,186.111,111.111,127.778,469.444,338.889,V
192,-0.110,1.315,0.015,44.444,63.889,325.000,822.222,352.778,N
193,-0.180,1.380,-0.055,197.222,80.556,325.000,755.556,66.667,N
194,-0.165,1.400,-0.065,188.889,83.333,352.778,672.222,83.333,N
195,-0.165,1.315,-0.040,66.667,83.333,341.667,961.111,288.889,N
196,-0.150,1.235,0.090,50.000,66.667,338.889,752.778,208.333,N
197,-0.165,1.270,-0.020,119.444,83.333,344.444,700.000,52.778,N
198,-0.125,1.195,0.010,94.444,80.556,344.444,755.556,55.556,N
199,-0.125,1.355,0.040,55.556,75.000,325.000,1016.667,261.111,N
200,-0.080,1.325,-0.005,194.444,77.778,291.667,686.111,330.556,N
201,-0.125,1.455,0.005,169.444,72.222,316.667,658.333,27.778,N
202,-0.030,1.090,0.385,194.444,113.889,127.778,483.333,175.000,V
203,-0.140,1.425,0.025,188.889,77.778,344.444,955.556,472.222,N
204,-0.125,1.375,-0.090,194.444,83.333,311.111,686.111,269.444,N
205,-0.150,1.370,0.025,41.667,61.111,294.444,763.889,77.778,N
206,-0.065,1.580,0.065,63.889,80.556,319.444,591.667,172.222,N
207,-0.095,1.435,-0.015,63.889,77.778,322.222,811.111,219.444,N
208,-0.195,1.200,-0.140,177.778,80.556,311.111,680.556,130.556,N
209,-0.115,1.150,0.035,61.111,113.889,341.667,1269.444,588.889,N
210,-0.110,1.335,0.030,83.333,86.111,322.222,722.222,547.222,N
211,-0.160,1.270,-0.055,127.778,77.778,322.222,641.667,80.556,N
212,-0.055,1.040,0.310,58.333,111.111,125.000,494.444,147.222,V
213,-0.060,1.550,0.225,102.778,86.111,341.667,897.222,402.778,N
214,0.055,1.465,0.090,52.778,72.222,305.556,636.111,261.111,N
215,-0.055,1.165,0.105,66.667,83.333,338.889,661.111,25.000,N
216,0.105,1.240,0.425,161.111,105.556,119.444,444.444,216.667,V
217,-0.075,1.460,0.100,58.333,86.111,352.778,811.111,366.667,N
218,-0.020,1.570,0.000,122.222,69.444,305.556,650.000,161.111,N
219,-0.160,1.445,-0.025,50.000,66.667,325.000,777.778,127.778,N
220,-0.180,1.435,-0.045,77.778,86.111,347.222,727.778,50.000,N
221,-0.180,1.200,0.005,58.333,80.556,341.667,1163.889,436.111,N
222,-0.140,1.320,-0.040,144.444,75.000,302.778,652.778,511.111,N
223,-0.245,1.185,-0.105,66.667,80.556,322.222,686.111,33.333,N
224,-0.105,1.050,0.170,172.222,108.333,119.444,438.889,247.222,V
225,0.200,1.705,-0.425,58.333,116.667,116.667,875.000,436.111,V
226,-0.210,1.445,-0.010,63.889,80.556,341.667,866.667,8.333,N
227,-0.010,1.105,0.285,191.667,102.778,125.000,480.556,386.111,V
228,-0.270,1.265,-0.120,58.333,72.222,355.556,1263.889,783.333,N
229,-0.220,1.420,-0.075,169.444,83.333,322.222,794.444,469.444,N
230,-0.075,1.025,0.265,191.667,105.556,122.222,455.556,338.889,V
231,-0.225,1.420,-0.035,61.111,75.000,325.000,900.000,444.444,N
232,-0.165,1.480,-0.085,186.111,83.333,352.778,661.111,238.889,N
233,-0.190,1.415,-0.015,136.111,75.000,313.889,636.111,25.000,N
234,-0.170,1.395,-0.090,66.667,80.556,352.778,691.667,55.556,N
235,-0.060,1.190,0.245,58.333,111.111,127.778,475.000,216.667,V
236,-0.200,1.295,-0.055,72.222,80.556,327.778,800.000,325.000,N
237,-0.180,1.325,-0.105,133.333,83.333,338.889,661.111,138.889,N
238,-0.185,1.255,-0.090,141.667,75.000,325.000,638.889,22.222,N
239,-0.090,1.115,0.255,158.333,108.333,122.222,436.111,202.778,V
240,-0.310,1.130,-0.140,138.889,75.000,344.444,880.556,444.444,N
241,-0.250,1.355,-0.190,100.000,83.333,341.667,627.778,252.778,N
242,-0.310,1.190,-0.160,116.667,69.444,341.667,700.000,72.222,N
243,-0.095,1.125,0.200,58.333,113.889,130.556,472.222,227.778,V
244,-0.165,1.400,0.000,55.556,80.556,375.000,1102.778,630.556,N
245,-0.200,1.280,-0.085,58.333,77.778,358.333,1263.889,161.111,N
246,-0.200,1.400,-0.045,130.556,75.000,325.000,838.889,425.000,N
247,-0.045,1.255,0.250,180.556,105.556,125.000,452.778,386.111,V
248,-0.135,1.305,-0.005,63.889,80.556,341.667,847.222,394.444,N
249,-0.125,1.415,-0.010,197.222,80.556,336.111,688.889,158.333,N
250,-0.140,1.375,-0.065,152.778,86.111,355.556,766.667,77.778,N
251,-0.065,1.090,0.225,191.667,111.111,133.333,488.889,277.778,V
252,-0.280,1.275,-0.110,69.444,83.333,355.556,811.111,322.222,N
253,-0.175,1.415,-0.030,66.667,116.667,325.000,1330.556,519.444,N
254,-0.245,1.265,-0.085,69.444,83.333,322.222,919.444,411.111,N
255,-0.310,1.195,-0.175,194.444,77.778,311.111,675.000,244.444,N
256,-0.160,1.480,0.035,100.000,83.333,325.000,1236.111,561.111,N
257,-0.230,1.310,-0.015,58.333,77.778,358.333,894.444,341.667,N
258,-0.175,1.385,-0.020,130.556,83.333,341.667,652.778,241.667,N
259,-0.230,1.375,-0.050,55.556,72.222,336.111,927.778,275.000,N
260,-0.220,1.220,-0.030,166.667,86.111,322.222,827.778,100.000,N
261,-0.035,1.210,0.250,197.222,108.333,122.222,463.889,363.889,V
262,-0.185,1.360,-0.030,66.667,83.333,352.778,938.889,475.000,N
263,-0.160,1.340,-0.055,63.889,86.111,325.000,877.778,61.111,N
264,-0.145,1.400,0.040,61.111,75.000,341.667,777.778,100.000,N
265,-0.155,1.370,-0.040,136.111,86.111,352.778,791.667,13.889,N
266,-0.055,1.115,0.200,186.111,113.889,127.778,500.000,291.667,V
267,-0.150,0.960,0.015,58.333,105.556,358.333,975.000,475.000,N
268,-0.090,0.735,-0.045,63.889,113.889,308.333,652.778,322.222,N
269,-0.180,0.880,0.015,58.333,111.111,325.000,697.222,44.444,N
270,0.025,1.080,0.325,58.333,105.556,127.778,469.444,227.778,V
271,-0.075,1.240,0.105,52.778,100.000,358.333,908.333,438.889,N
272,-0.015,0.995,0.100,63.889,116.667,358.333,1444.444,536.111,N
273,-0.055,1.290,0.145,183.333,83.333,338.889,786.111,658.333,N
274,0.145,1.190,0.305,191.667,108.333,125.000,472.222,313.889,V
275,-0.045,1.155,0.115,58.333,86.111,361.111,819.444,347.222,N
276,-0.035,1.205,0.050,163.889,116.667,327.778,669.444,150.000,N
277,-0.105,1.280,0.065,55.556,72.222,305.556,625.000,44.444,N
278,-0.075,1.450,0.060,77.778,63.889,277.778,622.222,2.778,N
279,-0.090,1.400,0.060,72.222,69.444,322.222,708.333,86.111,N
280,-0.080,1.430,0.125,136.111,86.111,338.889,716.667,8.333,N
281,0.065,1.110,0.540,58.333,113.889,130.556,550.000,166.667,V
282,-0.035,1.450,0.155,63.889,86.111,344.444,994.444,444.444,N
283,-0.115,1.215,-0.030,152.778,75.000,341.667,775.000,219.444,N
284,-0.225,1.295,-0.020,69.444,80.556,338.889,777.778,2.778,N
285,-0.040,1.125,0.465,55.556,108.333,122.222,480.556,297.222,V
286,-0.205,1.325,-0.080,66.667,83.333,338.889,719.444,238.889,N
287,-0.225,1.295,-0.190,144.444,75.000,325.000,591.667,127.778,N
288,-0.295,1.265,-0.165,58.333,77.778,341.667,663.889,72.222,N
289,-0.120,1.055,0.240,58.333,113.889,133.333,483.333,180.556,V
290,-0.275,1.290,-0.085,66.667,83.333,372.222,894.444,411.111,N
291,-0.185,1.310,-0.115,141.667,80.556,325.000,691.667,202.778,N
292,-0.260,1.255,-0.090,66.667,83.333,355.556,1025.000,333.333,N
293,-0.245,1.230,-0.085,58.333,83.333,327.778,741.667,283.333,N
294,-0.090,1.075,0.375,194.444,105.556,122.222,486.111,255.556,V
295,-0.235,1.205,-0.050,91.667,75.000,322.222,880.556,394.444,N
296,-0.125,1.355,-0.075,55.556,75.000,344.444,611.111,269.444,N
297,-0.170,1.330,-0.090,58.333,75.000,325.000,636.111,25.000,N
298,-0.230,1.230,-0.070,63.889,83.333,358.333,872.222,236.111,N
299,-0.070,1.130,0.215,177.778,108.333,125.000,483.333,388.889,V
300,-0.170,1.190,-0.050,58.333,77.778,361.111,961.111,477.778,N
301,-0.165,1.295,-0.020,61.111,77.778,325.000,916.667,44.444,N
302,-0.020,1.075,0.195,175.000,105.556,119.444,452.778,463.889,V
303,-0.165,0.935,-0.050,58.333,113.889,336.111,891.667,438.889,N
304,-0.175,1.070,-0.100,188.889,72.222,322.222,652.778,238.889,N
305,-0.180,1.225,-0.065,66.667,83.333,319.444,613.889,38.889,N
306,-0.185,1.160,-0.070,94.444,83.333,344.444,708.333,94.444,N
307,-0.065,1.105,0.180,58.333,111.111,125.000,475.000,233.333,V
308,-0.200,1.120,-0.015,52.778,77.778,358.333,919.444,444.444,N
309,-0.140,1.120,-0.150,138.889,80.556,344.444,616.667,302.778,N
310,-0.265,1.080,-0.130,188.889,83.333,333.333,830.556,213.889,N
311,-0.305,1.165,-0.160,63.889,80.556,305.556,827.778,2.778,N
312,-0.160,0.955,0.075,180.556,105.556,122.222,430.556,397.222,V
313,-0.260,0.975,-0.125,58.333,83.333,361.111,930.556,500.000,N
314,-0.245,1.180,-0.160,161.111,80.556,358.333,683.333,247.222,N
315,-0.320,1.070,-0.245,163.889,80.556,338.889,702.778,19.444,N
316,-0.195,0.820,0.085,58.333,111.111,133.333,497.222,205.556,V
317,-0.270,1.220,-0.060,58.333,83.333,352.778,844.444,347.222,N
318,-0.145,1.395,-0.035,172.222,72.222,308.333,683.333,161.111,N
319,-0.180,1.305,-0.110,175.000,75.000,308.333,636.111,47.222,N
320,-0.110,1.000,0.270,175.000,108.333,122.222,450.000,186.111,V
321,-0.240,1.340,-0.030,55.556,72.222,325.000,813.889,363.889,N
322,-0.165,1.255,-0.095,63.889,83.333,344.444,708.333,105.556,N
323,-0.200,1.350,0.010,136.111,102.778,361.111,972.222,263.889,N
324,0.010,1.185,0.255,186.111,113.889,125.000,500.000,472.222,V
325,-0.250,1.150,-0.145,66.667,83.333,338.889,997.222,497.222,N
326,-0.155,1.280,-0.035,155.556,83.333,336.111,636.111,361.111,N
327,-0.140,1.300,-0.015,55.556,72.222,325.000,719.444,83.333,N
328,-0.015,1.080,0.300,172.222,108.333,122.222,450.000,269.444,V
329,-0.090,1.250,0.105,63.889,80.556,341.667,1141.667,691.667,N
330,0.105,-0.890,1.085,194.444,2.778,258.333,480.556,661.111,V
331,-0.175,1.095,-0.030,100.000,83.333,372.222,905.556,425.000,N
332,-0.065,1.210,0.010,161.111,83.333,325.000,708.333,197.222,N
333,-0.150,1.180,0.050,66.667,116.667,355.556,1158.333,450.000,N
334,-0.105,1.130,-0.020,52.778,75.000,308.333,686.111,472.222,N
335,-0.200,1.120,-0.090,63.889,80.556,308.333,641.667,44.444,N
336,-0.185,1.030,-0.040,58.333,75.000,305.556,694.444,52.778,N
337,-0.200,1.090,-0.035,138.889,72.222,308.333,616.667,77.778,N
338,-0.170,1.120,-0.090,61.111,80.556,325.000,586.111,30.556,N
339,-0.175,1.125,-0.100,150.000,86.111,358.333,622.222,36.111,N
340,-0.200,1.045,-0.110,61.111,86.111,358.333,666.667,44.444,N
341,-0.180,1.195,-0.025,58.333,113.889,336.111,788.889,122.222,N
342,-0.205,1.100,-0.095,166.667,83.333,308.333,727.778,61.111,N
343,-0.095,0.820,0.115,197.222,105.556,125.000,463.889,263.889,V
344,-0.190,1.130,-0.025,55.556,102.778,311.111,825.000,361.111,N
345,-0.145,1.250,-0.080,77.778,102.778,291.667,605.556,219.444,N
346,-0.175,1.085,-0.030,58.333,102.778,311.111,613.889,8.333,N
347,0.035,0.995,0.315,58.333,113.889,127.778,491.667,122.222,V
348,-0.130,1.145,0.080,52.778,102.778,358.333,1088.889,597.222,N
349,-0.075,1.150,-0.030,172.222,75.000,325.000,700.000,388.889,N
350,-0.155,1.100,-0.055,66.667,83.333,330.556,677.778,22.222,N
351,-0.015,1.030,0.210,61.111,105.556,125.000,463.889,213.889,V
352,-0.065,1.195,0.085,58.333,80.556,344.444,911.111,447.222,N
353,-0.035,1.155,-0.050,161.111,77.778,305.556,636.111,275.000,N
354,-0.150,1.115,0.020,61.111,77.778,322.222,700.000,63.889,N
355,-0.080,1.230,0.075,52.778,69.444,322.222,741.667,41.667,N
356,-0.095,1.190,0.025,58.333,80.556,325.000,655.556,86.111,N
357,-0.100,1.360,0.015,63.889,83.333,322.222,641.667,13.889,N
358,0.015,1.075,0.320,58.333,113.889,136.111,486.111,155.556,V
359,-0.080,1.265,0.080,58.333,80.556,344.444,972.222,486.111,N
360,-0.080,1.305,-0.070,102.778,69.444,322.222,644.444,327.778,N
361,-0.175,1.225,-0.050,58.333,80.556,330.556,755.556,111.111,N
362,-0.240,1.210,-0.050,52.778,75.000,305.556,797.222,41.667,N
363,-0.050,0.910,0.185,194.444,105.556,122.222,450.000,347.222,V
364,-0.090,1.380,0.095,58.333,102.778,341.667,916.667,466.667,N
365,-0.045,1.365,0.030,155.556,75.000,325.000,647.222,269.444,N
366,-0.140,1.465,-0.060,69.444,86.111,341.667,597.222,50.000,N
367,-0.170,1.350,-0.085,163.889,83.333,341.667,663.889,66.667,N
368,-0.055,1.035,0.325,58.333,116.667,136.111,519.444,144.444,V
369,-0.170,1.460,0.075,58.333,75.000,308.333,822.222,302.778,N
370,-0.105,1.430,-0.095,58.333,77.778,308.333,566.667,255.556,N
371,-0.160,1.465,0.000,77.778,77.778,325.000,802.778,236.111,N
372,-0.120,1.470,-0.075,197.222,83.333,308.333,688.889,113.889,N
373,-0.215,1.475,-0.055,177.778,75.000,322.222,611.111,77.778,N
374,-0.085,1.055,0.350,194.444,105.556,125.000,483.333,127.778,V
375,-0.200,1.370,-0.065,63.889,80.556,341.667,833.333,350.000,N
376,-0.185,1.310,-0.070,55.556,75.000,308.333,794.444,38.889,N
377,-0.040,1.175,0.290,58.333,111.111,130.556,483.333,311.111,V
378,-0.160,1.495,0.045,58.333,75.000,341.667,1000.000,516.667,N
379,-0.100,1.455,-0.030,186.111,83.333,322.222,677.778,322.222,N
380,-0.165,1.465,-0.065,63.889,80.556,305.556,644.444,33.333,N
381,-0.205,1.470,-0.115,125.000,61.111,263.889,597.222,47.222,N
382,-0.110,0.965,0.245,58.333,116.667,130.556,494.444,102.778,V
383,-0.230,1.485,-0.025,88.889,75.000,322.222,836.111,341.667,N
384,-0.225,1.460,-0.060,72.222,75.000,308.333,763.889,72.222,N
385,-0.100,1.065,0.380,58.333,116.667,130.556,513.889,250.000,V
386,-0.230,1.360,-0.030,55.556,75.000,322.222,836.111,322.222,N
387,-0.175,1.385,-0.090,172.222,77.778,313.889,719.444,116.667,N
388,-0.195,1.520,0.015,80.556,80.556,325.000,772.222,52.778,N
389,0.015,1.270,0.335,186.111,108.333,122.222,455.556,316.667,V
390,-0.190,1.435,0.010,61.111,77.778,341.667,875.000,419.444,N
391,-0.170,1.505,-0.020,122.222,72.222,322.222,780.556,94.444,N
392,0.000,1.230,0.355,58.333,111.111,130.556,463.889,316.667,V
393,-0.195,1.285,-0.075,69.444,86.111,375.000,1011.111,547.222,N
394,-0.215,1.365,-0.065,94.444,77.778,322.222,908.333,102.778,N
395,-0.070,1.160,0.130,197.222,113.889,127.778,472.222,436.111,V
396,-0.230,1.140,-0.065,72.222,86.111,336.111,1172.222,700.000,N
397,-0.190,0.905,-0.065,177.778,83.333,325.000,658.333,513.889,N
398,-0.205,1.300,-0.065,63.889,77.778,305.556,583.333,75.000,N
399,-0.215,1.290,-0.080,180.556,86.111,358.333,619.444,36.111,N
400,-0.070,1.170,0.210,58.333,113.889,127.778,483.333,136.111,V
401,-0.195,1.465,0.000,58.333,86.111,369.444,838.889,355.556,N
402,-0.130,1.490,-0.095,166.667,86.111,325.000,677.778,161.111,N
403,-0.240,1.310,-0.150,141.667,77.778,311.111,658.333,19.444,N
404,-0.130,1.025,0.200,55.556,105.556,119.444,455.556,202.778,V
405,-0.245,1.570,-0.030,75.000,77.778,322.222,800.000,344.444,N
406,-0.180,1.555,0.015,80.556,80.556,322.222,850.000,50.000,N
407,0.015,1.255,0.295,186.111,111.111,125.000,455.556,394.444,V
408,-0.185,1.520,0.015,80.556,86.111,377.778,811.111,355.556,N
409,-0.145,1.430,-0.015,50.000,66.667,319.444,1755.556,944.444,N
410,-0.145,1.460,-0.030,186.111,83.333,322.222,647.222,1108.333,N
411,-0.165,1.330,-0.005,58.333,72.222,305.556,688.889,41.667,N
412,-0.005,1.175,0.240,188.889,111.111,125.000,450.000,238.889,V
413,-0.185,1.325,-0.010,55.556,75.000,327.778,833.333,383.333,N
414,-0.150,1.385,-0.100,108.333,75.000,322.222,586.111,247.222,N
415,-0.165,1.480,0.080,66.667,80.556,325.000,991.667,405.556,N
416,-0.115,1.395,0.000,127.778,80.556,375.000,725.000,266.667,N
417,-0.080,1.485,0.065,55.556,77.778,313.889,811.111,86.111,N
418,0.070,1.325,0.400,58.333,111.111,127.778,480.556,330.556,V
419,-0.135,1.510,0.115,75.000,80.556,344.444,1038.889,558.333,N
420,-0.105,1.585,-0.015,41.667,55.556,275.000,766.667,272.222,N
421,-0.015,1.230,0.285,163.889,105.556,122.222,436.111,330.556,V
422,-0.285,1.275,-0.110,163.889,77.778,308.333,713.889,277.778,N
423,-0.200,1.555,-0.115,194.444,80.556,311.111,652.778,61.111,N
424,-0.285,1.410,-0.090,119.444,72.222,338.889,741.667,88.889,N
425,-0.145,1.120,0.255,58.333,111.111,127.778,511.111,230.556,V
426,-0.270,1.290,-0.050,58.333,86.111,361.111,811.111,300.000,N
427,-0.195,1.455,-0.120,180.556,77.778,338.889,669.444,141.667,N
428,-0.195,1.600,-0.005,83.333,83.333,322.222,688.889,19.444,N
429,-0.165,1.460,-0.015,61.111,80.556,322.222,777.778,88.889,N
430,-0.215,1.455,-0.010,58.333,75.000,308.333,1013.889,236.111,N
431,-0.185,1.410,-0.065,163.889,77.778,305.556,619.444,394.444,N
432,-0.235,1.480,-0.060,86.111,75.000,344.444,658.333,38.889,N
433,-0.220,1.430,-0.115,191.667,77.778,327.778,719.444,61.111,N
434,-0.205,1.550,-0.125,47.222,63.889,308.333,622.222,97.222,N
435,-0.200,1.535,-0.075,58.333,80.556,325.000,633.333,11.111,N
436,-0.050,1.110,0.445,63.889,111.111,125.000,502.778,130.556,V
437,-0.200,1.370,-0.040,72.222,77.778,341.667,755.556,252.778,N
438,-0.150,1.405,-0.105,127.778,77.778,308.333,619.444,136.111,N
439,-0.180,1.600,0.040,133.333,113.889,338.889,861.111,241.667,N
440,-0.160,1.530,-0.005,52.778,75.000,325.000,1383.333,522.222,N
441,-0.225,1.390,-0.020,163.889,83.333,322.222,844.444,538.889,N
442,-0.020,1.110,0.140,197.222,113.889,127.778,483.333,361.111,V
443,-0.235,1.420,-0.060,72.222,72.222,341.667,972.222,488.889,N
444,-0.195,1.365,-0.075,180.556,77.778,319.444,658.333,313.889,N
445,-0.230,1.410,-0.090,183.333,83.333,308.333,636.111,22.222,N
446,-0.180,1.430,0.000,58.333,69.444,322.222,841.667,205.556,N
447,-0.180,1.345,-0.040,197.222,80.556,308.333,641.667,200.000,N
448,-0.220,1.410,-0.075,58.333,75.000,325.000,641.667,0.000,N
449,-0.075,1.130,0.265,186.111,113.889,130.556,461.111,180.556,V
450,-0.215,1.265,-0.040,75.000,80.556,344.444,988.889,527.778,N
451,-0.155,1.470,-0.060,166.667,72.222,327.778,694.444,294.444,N
452,-0.190,1.455,0.005,58.333,80.556,325.000,825.000,130.556,N
453,-0.190,1.405,0.015,97.222,80.556,308.333,886.111,61.111,N
454,0.015,1.155,0.330,175.000,108.333,122.222,427.778,458.333,V
455,-0.190,1.455,-0.015,63.889,83.333,322.222,841.667,413.889,N
456,-0.190,1.385,-0.060,197.222,83.333,327.778,711.111,130.556,N
457,-0.205,1.410,-0.070,191.667,83.333,344.444,680.556,30.556,N
458,-0.225,1.435,-0.145,141.667,72.222,319.444,683.333,2.778,N
459,-0.335,1.255,-0.150,80.556,83.333,327.778,769.444,86.111,N
460,-0.270,1.265,-0.145,50.000,66.667,291.667,1102.778,333.333,N
461,-0.260,1.275,0.005,63.889,83.333,308.333,1213.889,111.111,N
462,-0.220,1.245,-0.005,180.556,83.333,305.556,638.889,575.000,N
463,-0.230,1.120,-0.010,155.556,83.333,319.444,688.889,50.000,N
464,-0.140,1.420,0.045,47.222,66.667,325.000,1288.889,600.000,N
465,-0.095,1.485,0.055,183.333,86.111,325.000,669.444,619.444,N
466,-0.210,1.440,0.045,94.444,77.778,325.000,877.778,208.333,N
467,-0.145,1.410,0.050,75.000,108.333,325.000,1163.889,286.111,N
468,-0.160,1.295,0.020,75.000,77.778,291.667,850.000,313.889,N
469,-0.240,1.335,-0.035,66.667,88.889,327.778,788.889,61.111,N
470,-0.040,1.120,0.210,197.222,105.556,119.444,480.556,308.333,V
471,-0.290,1.240,-0.075,61.111,83.333,358.333,969.444,488.889,N
472,-0.210,1.245,-0.150,55.556,77.778,341.667,627.778,341.667,N
473,-0.265,1.255,-0.190,52.778,69.444,322.222,611.111,16.667,N
474,-0.275,1.260,-0.155,183.333,86.111,322.222,663.889,52.778,N
475,-0.135,1.070,0.205,58.333,116.667,127.778,480.556,183.333,V
476,-0.285,1.205,-0.085,61.111,75.000,338.889,911.111,430.556,N
477,-0.285,1.160,-0.160,69.444,80.556,341.667,1175.000,263.889,N
478,-0.300,1.040,-0.200,116.667,83.333,327.778,775.000,400.000,N
479,-0.140,0.985,0.045,58.333,108.333,130.556,480.556,294.444,V
480,-0.260,1.195,-0.085,58.333,80.556,358.333,1030.556,550.000,N
481,-0.215,1.245,-0.110,119.444,116.667,338.889,613.889,416.667,N
482,-0.205,1.255,-0.095,97.222,83.333,322.222,627.778,13.889,N
483,-0.215,1.175,-0.090,108.333,80.556,327.778,727.778,100.000,N
484,-0.195,1.280,-0.115,163.889,80.556,341.667,655.556,72.222,N
485,-0.235,1.090,-0.065,133.333,83.333,325.000,736.111,80.556,N
486,-0.195,0.965,-0.145,194.444,83.333,325.000,641.667,94.444,N
487,-0.235,0.835,-0.155,61.111,100.000,344.444,666.667,25.000,N
488,-0.105,0.960,0.085,58.333,116.667,133.333,522.222,144.444,V
489,-0.205,1.245,-0.005,77.778,86.111,375.000,1016.667,494.444,N
490,-0.215,1.185,-0.125,108.333,77.778,325.000,741.667,275.000,N
491,-0.125,0.985,0.220,58.333,113.889,130.556,497.222,244.444,V
492,-0.280,1.065,-0.095,66.667,116.667,338.889,911.111,413.889,N
493,-0.290,1.030,-0.160,186.111,113.889,322.222,902.778,8.333,N
494,-0.235,1.085,-0.175,52.778,72.222,322.222,600.000,302.778,N
495,-0.285,1.165,-0.175,127.778,116.667,313.889,622.222,22.222,N
496,-0.310,1.100,-0.235,63.889,83.333,338.889,688.889,66.667,N
497,-0.185,0.955,0.100,58.333,111.111,127.778,472.222,216.667,V
498,-0.315,0.995,-0.115,66.667,86.111,341.667,847.222,375.000,N
499,-0.235,1.175,-0.115,61.111,116.667,358.333,1213.889,366.667,N
500,-0.190,1.140,-0.140,147.222,63.889,288.889,633.333,580.556,N
501,-0.245,1.090,-0.145,125.000,72.222,308.333,591.667,41.667,N
502,-0.095,0.965,0.225,58.333,108.333,125.000,450.000,141.667,V
503,-0.240,1.140,-0.090,63.889,83.333,341.667,755.556,305.556,N
504,-0.185,1.285,-0.060,72.222,88.889,369.444,1258.333,502.778,N
505,-0.205,1.370,-0.085,169.444,86.111,322.222,777.778,480.556,N
506,-0.275,1.250,-0.085,61.111,116.667,308.333,763.889,13.889,N
507,-0.095,1.140,0.255,58.333,108.333,122.222,480.556,283.333,V
508,-0.245,1.275,-0.040,63.889,116.667,327.778,919.444,438.889,N
509,-0.190,1.295,-0.145,100.000,116.667,322.222,586.111,333.333,N
510,-0.230,1.170,-0.105,97.222,83.333,325.000,630.556,44.444,N
511,-0.065,1.160,0.285,58.333,108.333,125.000,427.778,202.778,V
512,-0.170,1.225,-0.040,86.111,83.333,369.444,827.778,400.000,N
513,-0.160,1.220,-0.135,55.556,75.000,338.889,683.333,144.444,N
514,-0.265,1.205,-0.155,63.889,80.556,325.000,691.667,8.333,N
515,-0.130,1.060,0.220,61.111,116.667,127.778,466.667,225.000,V
516,-0.275,1.300,-0.080,66.667,116.667,341.667,919.444,452.778,N
517,-0.260,1.210,-0.125,194.444,102.778,311.111,777.778,141.667,N
518,-0.125,1.065,0.235,183.333,105.556,125.000,455.556,322.222,V
519,-0.220,1.330,-0.035,80.556,77.778,325.000,827.778,372.222,N
520,-0.130,1.305,-0.115,130.556,80.556,322.222,619.444,208.333,N
521,-0.200,1.305,0.010,138.889,116.667,369.444,905.556,286.111,N
522,-0.135,1.335,-0.090,125.000,80.556,325.000,622.222,283.333,N
523,-0.175,1.275,-0.090,66.667,83.333,325.000,641.667,19.444,N
524,-0.190,1.125,-0.115,77.778,83.333,311.111,611.111,30.556,N
525,-0.210,1.090,-0.065,58.333,72.222,322.222,894.444,283.333,N
526,-0.160,1.150,-0.070,144.444,83.333,311.111,652.778,241.667,N
527,-0.230,1.205,-0.130,66.667,80.556,308.333,572.222,80.556,N
528,-0.135,0.930,0.260,58.333,111.111,122.222,488.889,83.333,V
529,-0.280,1.200,-0.100,63.889,77.778,338.889,841.667,352.778,N
530,-0.255,1.280,-0.100,58.333,80.556,341.667,947.222,105.556,N
531,-0.275,1.210,-0.130,58.333,83.333,344.444,866.667,80.556,N
532,-0.130,1.080,0.215,58.333,116.667,133.333,505.556,361.111,V
533,-0.180,1.140,-0.060,52.778,69.444,322.222,1022.222,516.667,N
534,-0.155,1.325,-0.085,188.889,80.556,300.000,636.111,386.111,N
535,-0.205,1.440,-0.025,130.556,80.556,325.000,638.889,2.778,N
536,-0.165,1.455,-0.105,41.667,63.889,275.000,616.667,22.222,N
537,-0.140,1.155,0.250,186.111,113.889,125.000,455.556,161.111,V
538,-0.175,1.400,0.045,100.000,116.667,341.667,813.889,358.333,N
539,-0.120,1.380,-0.005,152.778,86.111,352.778,752.778,61.111,N
540,-0.100,1.400,-0.020,119.444,72.222,325.000,669.444,83.333,N
541,-0.125,1.390,-0.030,55.556,75.000,327.778,616.667,52.778,N
542,-0.025,1.160,0.325,58.333,111.111,130.556,483.333,133.333,V
543,-0.225,1.250,-0.050,86.111,75.000,325.000,783.333,300.000,N
544,-0.270,1.140,-0.155,66.667,80.556,338.889,744.444,38.889,N
545,-0.050,1.185,0.305,58.333,111.111,127.778,472.222,272.222,V
546,-0.225,1.450,-0.035,58.333,80.556,361.111,886.111,413.889,N
547,-0.210,1.260,-0.090,83.333,80.556,355.556,788.889,97.222,N
548,-0.070,1.020,0.210,58.333,111.111,130.556,505.556,283.333,V
549,-0.240,1.380,-0.060,52.778,72.222,338.889,1033.333,527.778,N
550,-0.165,1.540,-0.085,66.667,69.444,308.333,630.556,402.778,N
551,-0.210,1.360,-0.115,63.889,77.778,308.333,661.111,30.556,N
552,-0.225,1.395,-0.100,183.333,83.333,341.667,636.111,25.000,N
553,-0.160,1.550,-0.080,155.556,72.222,311.111,572.222,63.889,N
554,-0.165,1.365,0.040,61.111,83.333,325.000,772.222,200.000,N
555,0.040,-1.010,1.120,183.333,5.556,241.667,469.444,302.778,V
556,-0.155,1.345,-0.020,86.111,88.889,372.222,938.889,469.444,N
557,-0.115,1.410,-0.065,183.333,83.333,355.556,644.444,294.444,N
558,-0.165,1.465,-0.020,58.333,77.778,344.444,641.667,2.778,N
559,-0.135,1.485,-0.005,144.444,83.333,341.667,672.222,30.556,N
560,-0.120,1.600,-0.060,136.111,69.444,302.778,625.000,47.222,N
561,-0.170,1.460,-0.020,150.000,80.556,325.000,661.111,36.111,N
562,-0.030,1.270,0.415,197.222,111.111,125.000,469.444,191.667,V
563,-0.140,1.450,0.035,63.889,86.111,347.222,877.778,408.333,N
564,-0.170,1.425,-0.145,169.444,83.333,355.556,722.222,155.556,N
565,-0.160,1.010,0.190,63.889,116.667,130.556,530.556,191.667,V
566,-0.340,1.035,-0.110,86.111,113.889,372.222,919.444,388.889,N
567,-0.275,1.145,-0.135,63.889,83.333,341.667,794.444,125.000,N
568,-0.250,1.230,-0.090,197.222,86.111,322.222,819.444,25.000,N
569,-0.090,1.190,0.150,158.333,111.111,122.222,438.889,380.556,V
570,-0.225,1.450,-0.035,52.778,72.222,341.667,933.333,494.444,N
571,-0.165,1.525,-0.040,194.444,77.778,319.444,672.222,261.111,N
572,-0.120,1.570,0.050,127.778,83.333,358.333,883.333,211.111,N
573,0.050,1.245,0.160,180.556,108.333,122.222,483.333,400.000,V
574,-0.165,1.410,-0.045,116.667,83.333,355.556,1002.778,519.444,N
575,-0.170,1.455,-0.035,186.111,83.333,322.222,719.444,283.333,N
576,-0.025,1.130,0.420,58.333,111.111,130.556,505.556,213.889,V
577,-0.230,1.305,-0.010,83.333,69.444,325.000,725.000,219.444,N
578,-0.185,1.335,-0.060,166.667,83.333,322.222,702.778,22.222,N
579,-0.170,1.195,-0.115,86.111,66.667,305.556,616.667,86.111,N
580,-0.165,1.035,-0.065,172.222,105.556,327.778,622.222,5.556,N
581,0.015,1.010,0.275,58.333,113.889,130.556,480.556,141.667,V
582,-0.140,1.430,0.075,52.778,72.222,325.000,897.222,416.667,N
583,-0.120,1.485,-0.080,163.889,77.778,338.889,641.667,255.556,N
584,-0.170,1.345,0.000,144.444,80.556,341.667,800.000,158.333,N
585,-0.115,1.410,-0.015,169.444,72.222,308.333,708.333,91.667,N
586,-0.120,1.350,-0.015,152.778,77.778,308.333,602.778,105.556,N
587,-0.140,1.405,-0.040,52.778,69.444,275.000,697.222,94.444,N
588,-0.190,1.580,0.000,100.000,80.556,322.222,844.444,147.222,N
589,0.000,1.305,0.280,175.000,108.333,122.222,441.667,402.778,V
590,-0.135,1.495,0.080,47.222,66.667,341.667,1038.889,597.222,N
591,-0.080,1.625,0.030,197.222,66.667,325.000,736.111,302.778,N
592,-0.100,1.515,0.010,163.889,83.333,344.444,697.222,38.889,N
593,-0.130,1.495,-0.045,50.000,69.444,308.333,608.333,88.889,N
594,-0.045,1.170,0.410,58.333,116.667,130.556,508.333,100.000,V
595,-0.160,1.460,0.045,197.222,83.333,327.778,719.444,211.111,N
596,-0.085,1.645,-0.045,161.111,77.778,308.333,577.778,141.667,N
597,-0.185,1.530,-0.020,186.111,69.444,327.778,641.667,63.889,N
598,-0.220,1.455,-0.080,61.111,83.333,341.667,925.000,283.333,N
599,-0.195,1.490,-0.125,72.222,72.222,341.667,627.778,297.222,N
600,-0.235,1.520,-0.080,186.111,83.333,325.000,711.111,83.333,N
601,-0.200,1.485,-0.090,141.667,77.778,322.222,675.000,36.111,N
602,-0.210,1.530,-0.075,55.556,75.000,338.889,680.556,5.556,N
603,-0.180,1.605,-0.070,130.556,77.778,308.333,638.889,41.667,N
604,-0.190,1.480,-0.030,194.444,80.556,327.778,630.556,8.333,N
605,-0.120,1.540,-0.050,58.333,69.444,305.556,580.556,50.000,N
606,-0.150,1.370,-0.050,183.333,86.111,341.667,608.333,27.778,N
607,-0.110,1.485,-0.015,177.778,77.778,325.000,627.778,19.444,N
608,0.030,1.280,0.405,58.333,113.889,136.111,494.444,133.333,V
609,-0.025,1.445,0.255,72.222,77.778,347.222,1116.667,622.222,N
610,-0.010,1.380,-0.050,197.222,63.889,355.556,722.222,394.444,N
611,-0.105,1.430,-0.005,197.222,83.333,338.889,636.111,86.111,N
612,0.055,1.300,0.465,61.111,116.667,130.556,513.889,122.222,V
613,-0.030,1.660,0.180,147.222,83.333,325.000,702.778,188.889,N
614,0.035,1.765,0.120,83.333,66.667,294.444,602.778,100.000,N
615,0.040,1.700,0.155,88.889,69.444,291.667,602.778,0.000,N
616,0.160,1.310,0.570,58.333,113.889,125.000,513.889,88.889,V
617,0.045,1.670,0.295,100.000,80.556,338.889,830.556,316.667,N
618,0.115,1.660,0.130,188.889,69.444,325.000,655.556,175.000,N
619,0.000,1.540,0.125,125.000,80.556,344.444,738.889,83.333,N
620,-0.035,1.335,0.120,66.667,86.111,341.667,822.222,83.333,N
621,0.180,1.340,0.365,58.333,105.556,119.444,441.667,380.556,V
622,-0.065,1.435,0.160,61.111,69.444,325.000,961.111,519.444,N
623,-0.020,1.340,0.010,175.000,75.000,308.333,672.222,288.889,N
624,0.060,1.270,0.390,58.333,111.111,130.556,480.556,191.667,V
625,-0.050,1.460,0.100,55.556,69.444,352.778,897.222,416.667,N
626,-0.090,1.500,-0.025,188.889,77.778,358.333,786.111,111.111,N
627,-0.105,1.640,0.010,75.000,72.222,322.222,633.333,152.778,N
628,-0.120,1.490,0.010,58.333,75.000,338.889,669.444,36.111,N
629,0.040,1.310,0.390,61.111,111.111,127.778,472.222,197.222,V
630,-0.095,1.490,0.130,58.333,77.778,325.000,994.444,522.222,N
631,-0.005,1.610,0.095,177.778,77.778,325.000,650.000,344.444,N
632,-0.010,1.535,0.155,88.889,86.111,355.556,691.667,41.667,N
633,0.170,1.365,0.490,58.333,116.667,130.556,511.111,180.556,V
634,-0.005,1.535,0.145,72.222,75.000,344.444,925.000,413.889,N
635,-0.010,1.580,-0.010,161.111,63.889,330.556,705.556,219.444,N
636,-0.115,1.420,-0.045,152.778,72.222,338.889,641.667,63.889,N
637,-0.150,1.420,-0.015,52.778,100.000,322.222,966.667,325.000,N
638,-0.110,1.525,0.005,66.667,83.333,305.556,661.111,305.556,N
639,-0.120,1.425,-0.055,175.000,83.333,325.000,630.556,30.556,N
640,-0.055,1.140,0.310,188.889,108.333,122.222,458.333,172.222,V
641,-0.175,1.345,0.025,63.889,80.556,325.000,861.111,402.778,N
642,-0.110,1.355,-0.070,125.000,72.222,338.889,608.333,252.778,N
643,-0.155,1.415,-0.045,86.111,83.333,322.222,644.444,36.111,N
644,0.030,1.170,0.260,58.333,108.333,125.000,475.000,169.444,V
645,-0.100,1.240,0.125,61.111,80.556,358.333,883.333,408.333,N
646,-0.055,1.280,-0.005,150.000,83.333,338.889,738.889,144.444,N
647,-0.135,1.195,-0.015,191.667,80.556,313.889,658.333,80.556,N
648,-0.130,1.340,0.005,69.444,113.889,319.444,761.111,102.778,N
649,-0.105,1.310,-0.020,58.333,72.222,322.222,1122.222,361.111,N
650,-0.205,1.270,-0.045,55.556,72.222,325.000,930.556,191.667,N
651,-0.135,1.305,0.015,108.333,80.556,344.444,833.333,97.222,N
652,0.015,1.190,0.210,197.222,113.889,125.000,491.667,341.667,V
653,-0.155,1.215,-0.005,50.000,100.000,341.667,1083.333,591.667,N
654,-0.135,1.170,-0.045,177.778,80.556,325.000,694.444,388.889,N
655,-0.185,1.235,-0.095,161.111,77.778,308.333,650.000,44.444,N
656,-0.190,1.280,-0.100,61.111,80.556,308.333,650.000,0.000,N
657,-0.180,1.360,-0.025,61.111,80.556,338.889,902.778,252.778,N
658,-0.130,1.355,0.005,61.111,77.778,355.556,833.333,69.444,N
659,0.075,1.225,0.305,58.333,111.111,125.000,491.667,341.667,V
660,-0.085,1.315,0.020,52.778,72.222,308.333,1047.222,555.556,N
661,-0.100,1.280,0.005,50.000,69.444,327.778,811.111,236.111,N
662,0.085,1.205,0.365,55.556,105.556,122.222,477.778,333.333,V
663,-0.070,1.485,0.120,61.111,113.889,322.222,805.556,327.778,N
664,-0.035,1.440,-0.005,83.333,83.333,305.556,636.111,169.444,N
665,-0.105,1.305,0.085,58.333,77.778,325.000,808.333,172.222,N
666,-0.085,1.225,-0.020,161.111,80.556,325.000,700.000,108.333,N
667,-0.185,1.105,-0.005,63.889,116.667,358.333,905.556,205.556,N
668,-0.110,1.240,0.075,152.778,116.667,338.889,686.111,219.444,N
669,-0.075,1.275,0.085,66.667,116.667,341.667,730.556,44.444,N
670,-0.090,1.295,0.020,180.556,113.889,308.333,647.222,83.333,N
671,-0.175,1.155,0.010,69.444,113.889,322.222,805.556,158.333,N
672,-0.155,0.880,-0.010,66.667,116.667,338.889,1113.889,308.333,N
673,-0.220,0.710,-0.100,77.778,111.111,341.667,777.778,336.111,N
674,0.005,0.860,0.060,58.333,111.111,133.333,544.444,233.333,V
675,-0.245,1.080,0.020,66.667,113.889,355.556,994.444,450.000,N
676,-0.090,1.265,0.070,58.333,77.778,322.222,708.333,286.111,N
677,-0.095,1.275,0.040,75.000,102.778,322.222,663.889,44.444,N
678,-0.175,1.235,-0.045,58.333,116.667,319.444,847.222,183.333,N
679,-0.220,0.980,-0.155,188.889,108.333,308.333,619.444,227.778,N
680,-0.215,1.130,-0.040,61.111,108.333,308.333,686.111,66.667,N
681,-0.005,1.095,0.185,58.333,111.111,127.778,433.333,252.778,V
682,-0.205,1.170,0.000,66.667,113.889,358.333,875.000,441.667,N
683,-0.130,1.150,-0.065,55.556,105.556,341.667,736.111,138.889,N
684,-0.190,1.060,-0.130,197.222,83.333,327.778,741.667,5.556,N
685,-0.095,1.015,0.130,58.333,113.889,127.778,508.333,233.333,V
686,-0.200,1.150,0.040,61.111,83.333,361.111,941.667,433.333,N
687,-0.020,1.380,0.060,161.111,77.778,291.667,647.222,294.444,N
688,-0.070,1.315,0.130,61.111,113.889,311.111,716.667,69.444,N
689,-0.045,1.380,0.125,72.222,116.667,322.222,858.333,141.667,N
690,0.125,1.265,0.270,191.667,108.333,119.444,455.556,402.778,V
691,-0.090,1.210,0.045,55.556,102.778,361.111,947.222,491.667,N
692,-0.185,1.105,0.045,66.667,116.667,375.000,827.778,119.444,N
693,0.125,1.240,0.315,58.333,113.889,130.556,494.444,333.333,V
694,-0.030,1.265,0.125,66.667,113.889,355.556,1005.556,511.111,N
695,-0.075,1.210,0.050,55.556,77.778,344.444,1191.667,186.111,N
696,0.005,1.305,0.215,163.889,77.778,313.889,669.444,522.222,N
697,-0.005,1.225,0.080,88.889,113.889,336.111,591.667,77.778,N
698,-0.095,1.130,0.025,58.333,113.889,372.222,716.667,125.000,N
699,-0.080,1.270,0.035,136.111,83.333,322.222,700.000,16.667,N
700,-0.030,1.310,0.070,155.556,80.556,325.000,683.333,16.667,N
701,-0.100,1.250,0.030,150.000,116.667,322.222,713.889,30.556,N
702,0.020,1.140,0.275,58.333,113.889,130.556,469.444,244.444,V
703,-0.110,1.105,0.050,58.333,100.000,322.222,1152.778,683.333,N
704,-0.155,1.055,-0.075,183.333,86.111,325.000,725.000,427.778,N
705,-0.145,1.195,-0.005,130.556,80.556,341.667,713.889,11.111,N
706,0.025,1.215,0.300,58.333,113.889,133.333,491.667,222.222,V
707,-0.150,1.160,-0.025,111.111,83.333,375.000,822.222,330.556,N
708,-0.030,1.265,0.035,188.889,83.333,352.778,841.667,19.444,N
709,0.065,1.280,0.350,61.111,111.111,127.778,480.556,361.111,V
710,-0.085,1.335,0.090,63.889,113.889,344.444,1063.889,583.333,N
711,-0.030,1.370,0.040,119.444,83.333,322.222,636.111,427.778,N
712,-0.080,1.330,-0.020,97.222,75.000,308.333,561.111,75.000,N
713,-0.080,1.355,0.000,50.000,69.444,308.333,588.889,27.778,N
714,0.040,1.240,0.485,58.333,111.111,125.000,486.111,102.778,V
715,-0.020,1.415,0.120,47.222,63.889,322.222,811.111,325.000,N
716,0.000,1.445,0.005,130.556,83.333,338.889,666.667,144.444,N
717,-0.070,1.445,0.030,188.889,61.111,297.222,672.222,5.556,N
718,0.075,1.270,0.425,58.333,111.111,130.556,472.222,200.000,V
719,-0.130,1.275,0.025,141.667,77.778,347.222,797.222,325.000,N
720,-0.090,1.340,-0.030,175.000,77.778,308.333,669.444,127.778,N
721,-0.135,1.425,0.020,63.889,77.778,305.556,702.778,33.333,N
722,0.020,1.280,0.330,58.333,108.333,122.222,438.889,263.889,V
723,-0.130,1.520,0.055,77.778,80.556,327.778,725.000,286.111,N
724,-0.065,1.645,0.025,66.667,86.111,336.111,794.444,69.444,N
725,0.010,1.245,0.380,58.333,116.667,133.333,511.111,283.333,V
726,-0.185,1.575,-0.010,58.333,77.778,325.000,1008.333,497.222,N
727,-0.150,1.495,-0.120,166.667,63.889,322.222,688.889,319.444,N
728,-0.170,1.525,-0.050,102.778,69.444,325.000,755.556,66.667,N
729,-0.050,1.250,0.490,172.222,108.333,122.222,452.778,302.778,V
730,-0.235,1.320,-0.110,52.778,69.444,305.556,813.889,361.111,N
731,-0.180,1.415,-0.055,191.667,80.556,313.889,686.111,127.778,N
732,-0.055,1.800,0.160,63.889,83.333,344.444,925.000,238.889,N
733,0.000,1.790,0.050,152.778,72.222,322.222,702.778,222.222,N
734,-0.100,1.585,-0.005,150.000,83.333,336.111,747.222,44.444,N
735,-0.035,1.250,0.495,61.111,113.889,127.778,516.667,230.556,V
736,-0.090,1.595,0.010,58.333,75.000,327.778,688.889,172.222,N
737,-0.105,1.560,-0.055,191.667,77.778,308.333,688.889,0.000,N
738,-0.035,1.690,0.030,55.556,72.222,288.889,844.444,155.556,N
739,-0.065,1.665,-0.005,69.444,63.889,319.444,713.889,130.556,N
740,-0.090,1.645,-0.010,100.000,63.889,305.556,630.556,83.333,N
741,-0.075,1.650,0.000,172.222,72.222,327.778,622.222,8.333,N
742,0.030,1.285,0.600,58.333,111.111,130.556,483.333,138.889,V
743,-0.110,1.560,0.050,152.778,86.111,355.556,844.444,361.111,N
744,-0.100,1.425,-0.095,133.333,69.444,316.667,650.000,194.444,N
745,-0.125,1.495,0.025,58.333,63.889,327.778,675.000,25.000,N
746,0.100,1.285,0.545,58.333,108.333,125.000,483.333,191.667,V
747,-0.140,1.485,0.075,66.667,83.333,338.889,941.667,458.333,N
748,-0.025,1.470,0.080,58.333,77.778,308.333,738.889,202.778,N
749,0.100,1.270,0.495,58.333,111.111,125.000,463.889,275.000,V
750,-0.085,1.640,0.105,133.333,83.333,358.333,777.778,313.889,N
751,-0.035,1.690,0.070,58.333,83.333,358.333,830.556,52.778,N
752,0.115,1.310,0.535,63.889,113.889,130.556,516.667,313.889,V
753,-0.090,1.560,0.035,52.778,69.444,355.556,872.222,355.556,N
754,-0.050,1.620,-0.070,161.111,58.333,291.667,658.333,213.889,N
755,-0.120,1.625,-0.045,61.111,77.778,308.333,550.000,108.333,N
756,-0.125,1.550,-0.075,58.333,61.111,291.667,563.889,13.889,N
757,-0.165,1.325,-0.040,186.111,80.556,325.000,675.000,111.111,N
758,-0.110,1.520,-0.055,47.222,63.889,319.444,530.556,144.444,N
759,-0.115,1.505,-0.070,144.444,77.778,336.111,647.222,116.667,N
760,0.005,1.160,0.410,58.333,113.889,127.778,500.000,147.222,V
761,-0.135,1.520,-0.005,138.889,69.444,338.889,1041.667,541.667,N
762,-0.080,1.540,-0.040,183.333,86.111,341.667,694.444,347.222,N
763,-0.120,1.630,0.005,163.889,77.778,305.556,597.222,97.222,N
764,-0.015,1.180,0.615,197.222,113.889,127.778,469.444,127.778,V
765,-0.100,1.585,0.045,58.333,77.778,338.889,844.444,375.000,N
766,-0.135,1.230,0.035,86.111,113.889,322.222,758.333,86.111,N
767,0.060,1.010,0.255,58.333,108.333,127.778,458.333,300.000,V
768,-0.150,1.475,0.045,180.556,80.556,361.111,1016.667,558.333,N
769,-0.065,1.480,-0.015,194.444,77.778,344.444,780.556,236.111,N
770,-0.070,1.570,0.005,125.000,63.889,311.111,686.111,94.444,N
771,-0.040,1.560,0.035,50.000,63.889,325.000,769.444,83.333,N
772,0.070,1.330,0.450,58.333,108.333,125.000,477.778,291.667,V
773,-0.080,1.490,0.050,66.667,83.333,338.889,758.333,280.556,N
774,-0.010,1.585,0.050,50.000,63.889,288.889,600.000,158.333,N
775,-0.050,1.570,0.020,138.889,83.333,341.667,569.444,30.556,N
776,0.045,1.160,0.510,58.333,111.111,127.778,505.556,63.889,V
777,-0.095,1.475,0.095,58.333,75.000,341.667,730.556,225.000,N
778,-0.015,1.695,0.075,61.111,83.333,358.333,938.889,208.333,N
779,-0.040,1.510,0.055,86.111,80.556,338.889,786.111,152.778,N
780,-0.040,1.560,0.050,66.667,80.556,322.222,630.556,155.556,N
781,-0.030,1.700,0.045,138.889,66.667,291.667,605.556,25.000,N
782,0.060,1.255,0.525,58.333,108.333,125.000,466.667,138.889,V
783,-0.110,1.480,0.115,77.778,77.778,338.889,791.667,325.000,N
784,-0.090,1.425,-0.010,58.333,77.778,325.000,747.222,44.444,N
785,0.040,1.315,0.490,61.111,113.889,127.778,455.556,291.667,V
786,-0.080,1.480,0.095,55.556,72.222,355.556,875.000,419.444,N
787,-0.060,1.470,-0.005,58.333,75.000,344.444,816.667,58.333,N
788,-0.100,1.515,-0.040,77.778,63.889,325.000,688.889,127.778,N
789,-0.030,1.100,0.430,58.333,113.889,127.778,522.222,166.667,V
790,-0.190,1.425,-0.025,63.889,80.556,330.556,775.000,252.778,N
791,-0.130,1.325,-0.105,88.889,75.000,308.333,613.889,161.111,N
792,-0.175,1.400,-0.065,55.556,72.222,308.333,613.889,0.000,N
793,-0.055,1.120,0.460,61.111,105.556,125.000,475.000,138.889,V
794,-0.190,1.435,-0.045,138.889,83.333,336.111,1105.556,630.556,N
795,-0.175,1.475,-0.160,169.444,69.444,325.000,616.667,488.889,N
796,-0.245,1.355,-0.130,69.444,83.333,344.444,763.889,147.222,N
797,-0.065,1.145,0.210,58.333,111.111,127.778,472.222,291.667,V
798,-0.250,1.295,-0.100,88.889,75.000,338.889,819.444,347.222,N
799,-0.195,1.450,-0.085,197.222,83.333,327.778,719.444,100.000,N
800,-0.045,1.115,0.435,58.333,113.889,133.333,475.000,244.444,V
801,-0.135,1.510,0.035,69.444,83.333,322.222,697.222,222.222,N
802,-0.120,1.500,-0.040,175.000,77.778,311.111,705.556,8.333,N
803,-0.125,1.610,-0.020,100.000,66.667,294.444,641.667,63.889,N
804,-0.140,1.525,-0.060,63.889,83.333,338.889,747.222,105.556,N
805,-0.230,1.425,-0.080,72.222,72.222,341.667,791.667,44.444,N
806,-0.185,1.560,-0.045,66.667,80.556,338.889,858.333,66.667,N
807,-0.045,1.190,0.265,172.222,111.111,122.222,455.556,402.778,V
808,-0.145,1.450,0.015,58.333,80.556,319.444,883.333,427.778,N
809,-0.105,1.305,-0.095,177.778,61.111,291.667,675.000,208.333,N
810,-0.205,1.255,-0.070,125.000,72.222,325.000,677.778,2.778,N
811,-0.025,1.110,0.415,58.333,105.556,122.222,502.778,175.000,V
812,-0.185,1.365,-0.040,136.111,69.444,338.889,691.667,188.889,N
813,-0.135,1.310,-0.145,188.889,72.222,305.556,636.111,55.556,N
814,-0.185,1.465,-0.025,63.889,80.556,322.222,711.111,75.000,N
815,-0.020,1.200,0.495,63.889,111.111,127.778,486.111,225.000,V
816,-0.200,1.300,-0.065,58.333,77.778,325.000,1075.000,588.889,N
817,-0.145,1.430,0.000,194.444,80.556,325.000,736.111,338.889,N
818,0.025,1.185,0.445,58.333,111.111,125.000,458.333,277.778,V
819,-0.175,1.340,-0.035,113.889,80.556,352.778,977.778,519.444,N
820,-0.110,1.425,-0.105,116.667,66.667,325.000,633.333,344.444,N
821,-0.245,1.295,-0.135,66.667,116.667,338.889,933.333,300.000,N
822,-0.245,1.275,-0.185,186.111,83.333,341.667,683.333,250.000,N
823,-0.265,1.270,-0.105,58.333,80.556,325.000,675.000,8.333,N
824,-0.195,1.375,-0.115,186.111,72.222,297.222,641.667,33.333,N
825,-0.120,1.065,0.265,61.111,111.111,125.000,466.667,175.000,V
826,-0.245,1.150,-0.140,61.111,83.333,327.778,741.667,275.000,N
827,-0.225,1.290,-0.135,52.778,97.222,305.556,1125.000,383.333,N
828,-0.215,1.230,-0.080,58.333,77.778,308.333,755.556,369.444,N
829,-0.045,1.080,0.360,58.333,108.333,127.778,483.333,272.222,V
830,-0.205,1.290,-0.090,86.111,83.333,355.556,1005.556,522.222,N
831,-0.190,1.270,-0.090,194.444,86.111,336.111,741.667,263.889,N
832,-0.195,1.285,-0.065,58.333,77.778,322.222,702.778,38.889,N
833,-0.030,1.110,0.410,55.556,102.778,125.000,486.111,216.667,V
834,-0.220,1.350,-0.070,80.556,113.889,305.556,752.778,266.667,N
835,-0.215,1.235,-0.150,77.778,80.556,316.667,627.778,125.000,N
836,-0.205,1.330,-0.075,138.889,75.000,288.889,650.000,22.222,N
837,-0.195,1.235,-0.095,191.667,77.778,338.889,697.222,47.222,N
838,-0.230,1.295,-0.150,63.889,83.333,336.111,608.333,88.889,N
839,-0.215,1.300,-0.050,69.444,86.111,322.222,786.111,177.778,N
840,-0.015,1.245,0.445,58.333,113.889,127.778,480.556,305.556,V
841,-0.160,1.270,-0.035,91.667,105.556,327.778,958.333,477.778,N
842,-0.225,1.280,-0.150,52.778,72.222,327.778,991.667,33.333,N
843,-0.220,1.240,-0.105,186.111,69.444,325.000,686.111,305.556,N
844,-0.220,1.210,-0.105,119.444,72.222,325.000,716.667,30.556,N
845,-0.095,1.070,0.310,58.333,116.667,133.333,500.000,216.667,V
846,-0.245,1.240,-0.045,83.333,83.333,358.333,997.222,497.222,N
847,-0.165,1.285,-0.170,197.222,80.556,322.222,711.111,286.111,N
848,-0.220,1.270,-0.135,163.889,69.444,294.444,683.333,27.778,N
849,-0.180,1.325,-0.085,47.222,66.667,311.111,616.667,66.667,N
850,-0.030,1.165,0.380,58.333,105.556,127.778,480.556,136.111,V
851,-0.170,1.270,-0.045,50.000,69.444,325.000,808.333,327.778,N
852,-0.175,1.300,-0.125,161.111,80.556,308.333,608.333,200.000,N
853,-0.135,1.320,-0.055,150.000,86.111,327.778,619.444,11.111,N
854,0.050,1.195,0.425,58.333,111.111,130.556,491.667,127.778,V
855,-0.095,1.245,-0.005,61.111,80.556,341.667,752.778,261.111,N
856,-0.145,1.325,-0.015,172.222,116.667,355.556,958.333,205.556,N
857,-0.065,1.385,0.030,63.889,80.556,311.111,761.111,197.222,N
858,-0.075,1.365,-0.010,144.444,77.778,325.000,663.889,97.222,N
859,-0.120,1.260,-0.095,155.556,83.333,302.778,627.778,36.111,N
860,-0.090,1.035,0.205,58.333,108.333,125.000,438.889,188.889,V
861,-0.145,0.875,-0.045,55.556,102.778,341.667,811.111,372.222,N
862,-0.155,1.230,-0.075,66.667,113.889,336.111,830.556,19.444,N
863,-0.150,1.230,-0.070,61.111,80.556,322.222,775.000,55.556,N
864,-0.140,1.155,-0.085,158.333,105.556,327.778,644.444,130.556,N
865,-0.180,1.260,-0.030,63.889,116.667,325.000,791.667,147.222,N
866,-0.145,1.255,-0.090,113.889,83.333,325.000,647.222,144.444,N
867,-0.180,1.275,-0.015,58.333,111.111,319.444,825.000,177.778,N
868,-0.145,1.385,-0.010,66.667,113.889,322.222,1247.222,422.222,N
869,-0.135,1.345,-0.010,63.889,113.889,325.000,1041.667,205.556,N
870,-0.185,1.240,-0.020,186.111,86.111,322.222,738.889,302.778,N
871,-0.165,1.255,-0.030,47.222,69.444,327.778,697.222,41.667,N
872,-0.140,1.395,-0.025,52.778,66.667,327.778,669.444,27.778,N
873,-0.105,1.400,-0.035,50.000,66.667,291.667,780.556,111.111,N
874,-0.130,1.420,-0.030,66.667,63.889,288.889,566.667,213.889,N
875,-0.130,1.335,-0.025,102.778,80.556,302.778,605.556,38.889,N
876,-0.135,1.305,-0.030,61.111,111.111,308.333,705.556,100.000,N
877,-0.070,1.540,-0.030,77.778,111.111,311.111,566.667,138.889,N
878,-0.070,1.450,0.050,58.333,111.111,322.222,836.111,269.444,N
879,-0.070,1.305,0.030,72.222,83.333,330.556,741.667,94.444,N
880,-0.080,1.375,-0.015,116.667,86.111,338.889,627.778,113.889,N
881,-0.165,1.275,-0.005,61.111,80.556,325.000,827.778,200.000,N
882,-0.150,1.310,0.000,88.889,75.000,308.333,627.778,200.000,N
883,0.000,0.950,0.305,194.444,105.556,125.000,452.778,175.000,V
884,-0.155,1.340,-0.030,66.667,113.889,338.889,955.556,502.778,N
885,-0.140,1.280,-0.135,133.333,80.556,291.667,597.222,358.333,N
886,-0.165,-0.775,0.745,50.000,13.889,252.778,486.111,111.111,V
887,-0.285,1.135,-0.200,63.889,113.889,350.000,819.444,333.333,N
888,-0.230,1.170,-0.210,183.333,69.444,322.222,730.556,88.889,N
889,-0.200,1.355,-0.055,55.556,105.556,327.778,991.667,261.111,N
890,-0.160,1.390,-0.115,113.889,80.556,322.222,655.556,336.111,N
891,-0.230,1.295,-0.110,177.778,77.778,322.222,663.889,8.333,N
892,-0.090,1.185,0.430,58.333,111.111,122.222,461.111,202.778,V
893,-0.210,1.210,-0.075,141.667,75.000,322.222,802.778,341.667,N
894,-0.215,1.210,-0.200,130.556,86.111,338.889,625.000,177.778,N
895,-0.235,1.235,-0.125,172.222,72.222,327.778,669.444,44.444,N
896,-0.035,1.100,0.420,58.333,116.667,133.333,488.889,180.556,V
897,-0.155,1.365,-0.050,83.333,116.667,358.333,1055.556,566.667,N
898,-0.160,1.330,-0.140,147.222,80.556,338.889,652.778,402.778,N
899,-0.215,1.230,-0.155,69.444,75.000,341.667,719.444,66.667,N
900,-0.205,1.300,-0.105,55.556,100.000,325.000,1066.667,347.222,N
901,-0.180,1.280,-0.085,77.778,75.000,288.889,705.556,361.111,N
902,-0.195,1.350,-0.065,63.889,83.333,341.667,722.222,16.667,N
903,-0.050,1.235,0.430,58.333,111.111,125.000,469.444,252.778,V
904,-0.165,1.330,-0.045,55.556,77.778,341.667,905.556,436.111,N
905,-0.165,1.465,-0.055,72.222,83.333,338.889,777.778,127.778,N
906,0.075,1.280,0.455,58.333,108.333,130.556,505.556,272.222,V
907,-0.145,1.535,0.005,86.111,83.333,355.556,844.444,338.889,N
908,-0.175,1.690,-0.055,58.333,83.333,341.667,963.889,119.444,N
909,-0.100,1.565,-0.025,188.889,69.444,288.889,719.444,244.444,N
910,-0.155,1.630,0.005,61.111,77.778,322.222,761.111,41.667,N
911,0.005,1.440,0.485,58.333,108.333,122.222,438.889,322.222,V
912,-0.225,1.420,-0.115,61.111,80.556,358.333,922.222,483.333,N
913,-0.160,1.525,-0.110,127.778,77.778,341.667,633.333,288.889,N
914,-0.165,1.515,-0.090,88.889,72.222,341.667,741.667,108.333,N
915,-0.040,1.280,0.310,58.333,111.111,122.222,469.444,272.222,V
916,-0.160,1.625,0.000,111.111,77.778,338.889,872.222,402.778,N
917,-0.095,1.755,-0.055,108.333,72.222,294.444,627.778,244.444,N
918,-0.190,1.555,-0.080,63.889,75.000,325.000,652.778,25.000,N
919,-0.190,1.440,-0.175,197.222,83.333,311.111,622.222,30.556,N
920,-0.235,1.505,-0.200,152.778,58.333,297.222,572.222,50.000,N
921,-0.285,1.345,-0.150,55.556,69.444,325.000,666.667,94.444,N
922,-0.110,1.095,0.355,58.333,113.889,127.778,497.222,169.444,V
923,-0.175,1.590,0.025,61.111,83.333,338.889,963.889,466.667,N
924,-0.170,1.570,-0.050,63.889,80.556,327.778,780.556,183.333,N
925,-0.095,1.165,0.515,58.333,113.889,130.556,494.444,286.111,V
926,-0.255,1.435,-0.175,41.667,58.333,322.222,786.111,291.667,N
927,-0.260,1.580,-0.135,91.667,72.222,325.000,613.889,172.222,N
928,-0.120,1.685,-0.075,61.111,63.889,291.667,586.111,27.778,N
929,-0.160,1.645,-0.135,119.444,83.333,319.444,575.000,11.111,N
930,-0.125,1.085,0.470,58.333,111.111,125.000,519.444,55.556,V
931,-0.130,1.780,0.060,63.889,80.556,325.000,861.111,341.667,N
932,-0.090,1.750,-0.035,66.667,66.667,322.222,752.778,108.333,N
933,-0.010,1.205,0.650,66.667,113.889,127.778,550.000,202.778,V
934,-0.020,1.705,0.105,66.667,63.889,302.778,830.556,280.556,N
935,-0.005,1.690,0.060,58.333,58.333,311.111,672.222,158.333,N
936,-0.025,1.630,0.065,63.889,80.556,308.333,622.222,50.000,N
937,0.015,1.720,0.110,61.111,75.000,325.000,630.556,8.333,N
938,0.010,1.695,-0.005,80.556,75.000,319.444,602.778,27.778,N
939,-0.035,1.640,0.015,72.222,77.778,344.444,747.222,144.444,N
940,0.030,1.330,0.485,58.333,108.333,127.778,483.333,263.889,V
941,-0.105,1.570,-0.065,63.889,66.667,341.667,772.222,288.889,N
942,-0.135,1.485,-0.145,197.222,80.556,341.667,663.889,108.333,N
943,-0.200,1.375,-0.180,197.222,75.000,319.444,663.889,0.000,N
944,-0.145,1.225,0.400,63.889,111.111,122.222,488.889,175.000,V
945,-0.285,1.465,-0.105,69.444,113.889,333.333,852.778,363.889,N
946,-0.200,1.415,-0.235,108.333,75.000,325.000,569.444,283.333,N
947,-0.230,1.385,-0.125,38.889,61.111,327.778,719.444,150.000,N
948,-0.245,1.300,-0.105,58.333,77.778,341.667,800.000,80.556,N
949,-0.130,1.555,-0.035,130.556,83.333,341.667,805.556,5.556,N
950,0.030,1.375,0.410,58.333,102.778,122.222,497.222,308.333,V
951,-0.115,1.410,0.025,72.222,83.333,344.444,863.889,366.667,N
952,-0.065,1.510,-0.050,63.889,83.333,327.778,755.556,108.333,N
953,-0.030,1.215,0.405,58.333,105.556,122.222,450.000,305.556,V
954,-0.100,1.045,0.030,61.111,116.667,347.222,880.556,430.556,N
955,-0.075,1.275,-0.035,105.556,80.556,336.111,769.444,111.111,N
956,0.015,1.260,0.420,58.333,116.667,127.778,486.111,283.333,V
957,-0.005,1.385,-0.060,55.556,72.222,366.667,794.444,308.333,N
958,-0.125,1.400,-0.125,161.111,61.111,311.111,700.000,94.444,N
959,-0.175,1.395,-0.100,61.111,80.556,358.333,930.556,230.556,N
960,-0.185,1.225,-0.145,63.889,80.556,375.000,786.111,144.444,N
961,-0.135,1.150,0.360,58.333,108.333,125.000,461.111,325.000,V
962,-0.140,1.435,-0.085,136.111,108.333,341.667,750.000,288.889,N
963,0.025,1.385,-0.100,152.778,80.556,366.667,663.889,86.111,N
964,-0.105,1.390,-0.045,119.444,69.444,305.556,613.889,50.000,N
965,-0.075,1.495,-0.045,119.444,69.444,308.333,583.333,30.556,N
966,0.080,1.230,0.490,58.333,113.889,130.556,502.778,80.556,V
967,-0.110,1.325,-0.025,155.556,86.111,352.778,1013.889,511.111,N
968,-0.180,1.240,-0.145,66.667,55.556,294.444,613.889,400.000,N
969,-0.150,1.405,-0.040,163.889,83.333,333.333,750.000,136.111,N
970,-0.135,1.280,-0.045,152.778,61.111,291.667,544.444,205.556,N
971,-0.170,1.330,-0.110,147.222,66.667,297.222,552.778,8.333,N
972,-0.090,1.305,-0.060,147.222,63.889,322.222,583.333,30.556,N
973,-0.060,1.065,0.395,180.556,111.111,127.778,463.889,119.444,V
974,-0.155,1.315,-0.020,50.000,69.444,344.444,900.000,436.111,N
975,-0.250,1.240,-0.260,197.222,69.444,341.667,805.556,94.444,N
976,-0.165,1.040,0.180,58.333,113.889,127.778,483.333,322.222,V
977,-0.270,1.290,-0.190,58.333,77.778,308.333,838.889,355.556,N
978,-0.300,1.240,-0.225,41.667,58.333,305.556,750.000,88.889,N
979,-0.160,1.085,0.380,61.111,108.333,127.778,455.556,294.444,V
980,-0.255,1.195,-0.180,52.778,63.889,330.556,777.778,322.222,N
981,-0.200,1.345,-0.120,83.333,86.111,338.889,1111.111,333.333,N
982,-0.160,1.300,-0.055,194.444,77.778,336.111,708.333,402.778,N
983,-0.215,1.375,-0.110,144.444,80.556,325.000,736.111,27.778,N
984,-0.120,1.085,0.340,58.333,113.889,127.778,491.667,244.444,V
985,-0.175,1.590,-0.060,66.667,86.111,358.333,894.444,402.778,N
986,-0.145,1.555,-0.075,52.778,72.222,325.000,769.444,125.000,N
987,-0.055,1.265,0.580,58.333,111.111,127.778,486.111,283.333,V
988,-0.190,1.510,-0.075,100.000,80.556,330.556,775.000,288.889,N
989,-0.180,1.380,-0.165,58.333,72.222,327.778,591.667,183.333,N
990,-0.185,1.300,-0.100,138.889,61.111,347.222,636.111,44.444,N
991,-0.100,1.540,-0.110,108.333,83.333,325.000,622.222,13.889,N
992,-0.175,1.455,-0.125,155.556,66.667,338.889,672.222,50.000,N
993,-0.160,1.610,-0.085,180.556,80.556,341.667,691.667,19.444,N
994,-0.105,1.645,0.010,122.222,80.556,300.000,675.000,16.667,N
995,0.045,1.305,0.635,58.333,111.111,127.778,494.444,180.556,V
996,-0.125,1.455,-0.050,91.667,72.222,325.000,725.000,230.556,N
997,-0.100,1.630,-0.035,166.667,83.333,325.000,608.333,116.667,N
998,-0.085,1.510,-0.030,177.778,113.889,308.333,697.222,88.889,N
999,-0.135,1.375,-0.090,144.444,86.111,316.667,630.556,66.667,N
1000,-0.195,1.430,-0.125,80.556,83.333,355.556,655.556,25.000,N
1001,0.005,1.175,0.255,58.333,116.667,130.556,494.444,161.111,V
1002,-0.255,1.345,-0.145,86.111,83.333,352.778,875.000,380.556,N
1003,-0.210,1.275,-0.175,86.111,61.111,327.778,616.667,258.333,N
1004,-0.125,1.370,0.010,186.111,80.556,283.333,686.111,69.444,N
1005,-0.115,1.580,0.270,55.556,100.000,119.444,455.556,230.556,V
1006,0.035,1.320,0.020,80.556,63.889,375.000,786.111,330.556,N
1007,0.005,1.285,0.200,119.444,72.222,316.667,694.444,91.667,N
1008,0.200,1.205,0.375,197.222,97.222,125.000,466.667,227.778,V
1009,0.050,1.370,0.170,125.000,75.000,355.556,897.222,430.556,N
1010,-0.015,1.175,-0.095,63.889,80.556,350.000,811.111,86.111,N
1011,0.020,1.200,0.380,58.333,113.889,127.778,497.222,313.889,V
1012,-0.060,1.480,0.100,102.778,86.111,355.556,919.444,422.222,N
1013,0.045,1.555,0.065,150.000,86.111,325.000,647.222,272.222,N
1014,-0.025,1.425,0.020,194.444,77.778,325.000,694.444,47.222,N
1015,0.030,1.205,0.395,58.333,111.111,125.000,491.667,202.778,V
1016,-0.085,1.290,0.040,63.889,83.333,330.556,1111.111,619.444,N
1017,-0.050,1.385,-0.030,175.000,86.111,336.111,658.333,452.778,N
1018,-0.130,1.265,-0.070,41.667,63.889,308.333,688.889,30.556,N
1019,0.010,1.175,0.375,58.333,116.667,133.333,513.889,175.000,V
1020,-0.105,1.380,0.035,52.778,102.778,341.667,811.111,297.222,N
1021,-0.095,1.270,-0.065,197.222,83.333,338.889,727.778,83.333,N
1022,-0.115,1.390,-0.070,169.444,86.111,322.222,619.444,108.333,N
1023,-0.160,1.315,-0.075,122.222,72.222,308.333,636.111,16.667,N
1024,-0.020,1.225,0.335,58.333,111.111,125.000,447.222,188.889,V
1025,-0.235,1.120,-0.095,77.778,80.556,344.444,841.667,394.444,N
1026,-0.125,1.375,-0.110,180.556,83.333,372.222,641.667,200.000,N
1027,-0.075,1.390,0.040,63.889,83.333,358.333,711.111,69.444,N
1028,-0.035,1.470,0.015,47.222,63.889,305.556,633.333,77.778,N
1029,-0.045,1.445,-0.005,119.444,83.333,319.444,625.000,8.333,N
1030,-0.115,1.260,-0.030,188.889,72.222,305.556,716.667,91.667,N
1031,-0.130,1.200,-0.085,52.778,69.444,325.000,680.556,36.111,N
1032,-0.125,1.195,-0.050,127.778,83.333,327.778,541.667,138.889,N
1033,-0.095,1.420,0.080,116.667,80.556,319.444,655.556,113.889,N
1034,-0.010,1.375,0.025,191.667,77.778,308.333,625.000,30.556,N
1035,-0.100,1.280,-0.020,50.000,100.000,344.444,938.889,313.889,N
1036,-0.100,1.340,-0.040,52.778,69.444,322.222,772.222,166.667,N
1037,-0.150,1.370,-0.030,133.333,80.556,302.778,647.222,125.000,N
1038,-0.055,1.150,0.295,58.333,111.111,130.556,488.889,158.333,V
1039,-0.205,1.230,-0.035,50.000,66.667,341.667,825.000,336.111,N
1040,-0.150,1.090,-0.205,188.889,75.000,330.556,688.889,136.111,N
1041,-0.260,1.165,-0.170,116.667,83.333,308.333,630.556,58.333,N
1042,-0.130,1.080,0.225,58.333,111.111,125.000,455.556,175.000,V
1043,-0.280,1.170,-0.075,166.667,83.333,327.778,791.667,336.111,N
1044,-0.200,1.175,-0.190,105.556,100.000,325.000,575.000,216.667,N
1045,-0.240,1.085,-0.095,61.111,80.556,325.000,686.111,111.111,N
1046,-0.040,1.175,0.180,58.333,113.889,127.778,458.333,227.778,V
1047,-0.240,1.200,-0.060,72.222,116.667,355.556,1000.000,541.667,N
1048,-0.190,1.155,-0.090,55.556,80.556,341.667,1155.556,155.556,N
1049,-0.220,1.005,-0.130,63.889,86.111,327.778,1136.111,19.444,N
1050,-0.180,0.805,-0.125,188.889,100.000,272.222,661.111,475.000,N
1051,-0.230,1.090,-0.105,61.111,113.889,311.111,655.556,5.556,N
1052,-0.090,1.065,0.175,58.333,113.889,130.556,475.000,180.556,V
1053,-0.245,1.180,-0.070,136.111,83.333,369.444,763.889,288.889,N
1054,-0.120,-0.870,0.915,63.889,16.667,241.667,561.111,202.778,V
1055,-0.240,1.215,-0.210,169.444,83.333,355.556,722.222,161.111,N
1056,-0.130,1.010,0.230,58.333,113.889,127.778,497.222,225.000,V
1057,-0.285,1.100,-0.175,83.333,116.667,338.889,1016.667,519.444,N
1058,-0.110,1.295,-0.025,52.778,100.000,325.000,1338.889,322.222,N
1059,-0.150,1.265,-0.030,144.444,108.333,308.333,1002.778,336.111,N
1060,-0.055,1.430,0.125,66.667,83.333,327.778,1038.889,36.111,N
1061,0.035,1.495,0.145,180.556,86.111,325.000,700.000,338.889,N
1062,-0.020,1.350,0.105,169.444,75.000,294.444,672.222,27.778,N
1063,0.035,1.530,0.110,61.111,77.778,322.222,691.667,19.444,N
1064,0.100,1.285,0.495,58.333,113.889,127.778,472.222,219.444,V
1065,-0.080,1.355,0.090,66.667,83.333,325.000,783.333,311.111,N
1066,-0.015,1.455,0.030,163.889,63.889,291.667,644.444,138.889,N
1067,-0.070,1.375,0.035,144.444,69.444,308.333,666.667,22.222,N
1068,-0.075,1.390,0.000,186.111,83.333,322.222,655.556,11.111,N
1069,-0.140,1.315,-0.065,197.222,66.667,291.667,647.222,8.333,N
1070,-0.065,1.120,0.305,58.333,113.889,127.778,486.111,161.111,V
1071,-0.240,1.095,-0.075,108.333,72.222,352.778,819.444,333.333,N
1072,-0.245,1.195,-0.140,197.222,86.111,338.889,877.778,58.333,N
1073,-0.255,1.155,-0.140,63.889,63.889,291.667,730.556,147.222,N
1074,-0.260,1.270,-0.165,155.556,102.778,305.556,638.889,91.667,N
1075,-0.325,1.075,-0.205,47.222,63.889,294.444,658.333,19.444,N
1076,-0.200,1.225,-0.055,61.111,108.333,305.556,997.222,338.889,N
1077,-0.150,1.250,-0.045,105.556,113.889,319.444,1327.778,330.556,N
1078,-0.135,1.205,-0.050,52.778,75.000,311.111,1366.667,38.889,N
1079,-0.195,1.155,-0.050,166.667,83.333,338.889,747.222,619.444,N
1080,-0.050,1.165,0.170,58.333,111.111,122.222,436.111,311.111,V
1081,-0.150,1.420,-0.010,94.444,80.556,338.889,875.000,438.889,N
1082,-0.130,1.290,-0.015,175.000,80.556,327.778,694.444,180.556,N
1083,-0.100,1.355,-0.050,58.333,80.556,338.889,652.778,41.667,N
1084,-0.100,1.405,0.040,52.778,102.778,322.222,991.667,338.889,N
1085,-0.115,1.230,-0.090,80.556,83.333,341.667,758.333,233.333,N
1086,-0.095,1.120,0.240,58.333,113.889,125.000,505.556,252.778,V
1087,0.105,1.590,0.595,58.333,116.667,405.556,597.222,91.667,V
1088,-0.120,1.320,0.120,58.333,105.556,125.000,372.222,225.000,V
1089,-0.125,1.295,0.020,50.000,66.667,325.000,977.778,605.556,N
1090,-0.120,1.190,-0.125,188.889,58.333,319.444,708.333,269.444,N
1091,-0.140,1.250,-0.080,94.444,77.778,305.556,622.222,86.111,N
1092,-0.105,1.335,0.005,44.444,66.667,336.111,661.111,38.889,N
1093,0.070,1.280,0.455,58.333,108.333,125.000,455.556,205.556,V
1094,-0.015,1.410,0.105,105.556,75.000,327.778,1091.667,636.111,N
1095,-0.060,1.305,-0.045,197.222,72.222,297.222,669.444,422.222,N
1096,-0.105,1.430,0.105,83.333,83.333,338.889,1141.667,472.222,N
1097,-0.100,1.355,-0.125,172.222,52.778,291.667,605.556,536.111,N
1098,-0.250,1.305,-0.075,113.889,83.333,358.333,1041.667,436.111,N
1099,-0.165,1.365,-0.055,186.111,77.778,338.889,677.778,363.889,N
1100,-0.180,1.435,-0.105,77.778,72.222,322.222,650.000,27.778,N
1101,-0.270,1.185,-0.155,91.667,75.000,341.667,780.556,130.556,N
1102,-0.125,1.255,-0.055,52.778,69.444,297.222,841.667,61.111,N
1103,-0.145,1.145,0.245,55.556,105.556,122.222,480.556,361.111,V
1104,-0.245,1.235,-0.080,58.333,72.222,355.556,1177.778,697.222,N
1105,-0.210,1.285,-0.105,58.333,80.556,294.444,850.000,327.778,N
1106,-0.210,1.385,-0.105,158.333,75.000,325.000,633.333,216.667,N
1107,-0.240,1.370,-0.135,144.444,77.778,322.222,669.444,36.111,N
1108,-0.275,1.310,-0.155,97.222,86.111,327.778,722.222,52.778,N
1109,-0.120,1.210,0.250,58.333,111.111,125.000,466.667,255.556,V
1110,-0.145,1.430,0.015,66.667,83.333,375.000,1383.333,916.667,N
1111,-0.140,1.440,-0.140,50.000,63.889,308.333,700.000,683.333,N
1112,-0.120,1.240,0.315,58.333,108.333,125.000,461.111,238.889,V
1113,-0.110,1.420,0.035,58.333,75.000,325.000,813.889,352.778,N
1114,-0.090,1.495,-0.030,183.333,83.333,341.667,675.000,138.889,N
1115,-0.105,1.545,0.020,52.778,69.444,341.667,1119.444,444.444,N
1116,-0.120,1.460,-0.070,197.222,61.111,305.556,725.000,394.444,N
1117,-0.215,1.400,-0.145,172.222,86.111,336.111,691.667,33.333,N
1118,-0.260,1.395,-0.165,58.333,75.000,338.889,688.889,2.778,N
1119,-0.140,1.180,0.205,58.333,111.111,125.000,461.111,227.778,V
1120,-0.280,1.205,-0.130,52.778,69.444,341.667,816.667,355.556,N
1121,-0.130,-1.225,0.860,177.778,0.000,219.444,475.000,341.667,V
1122,-0.235,1.320,-0.115,108.333,75.000,344.444,861.111,386.111,N
1123,-0.225,1.530,-0.095,69.444,63.889,338.889,1127.778,266.667,N
1124,-0.210,1.455,-0.105,105.556,72.222,325.000,702.778,425.000,N
1125,-0.315,1.350,-0.165,58.333,80.556,308.333,822.222,119.444,N
1126,-0.275,1.445,-0.115,72.222,83.333,336.111,811.111,11.111,N
1127,-0.115,1.150,0.300,177.778,108.333,122.222,472.222,338.889,V
1128,-0.275,1.435,-0.110,86.111,83.333,361.111,1394.444,922.222,N
1129,-0.250,1.385,-0.230,175.000,69.444,288.889,666.667,727.778,N
1130,-0.395,1.225,-0.300,166.667,83.333,338.889,594.444,72.222,N
1131,-0.365,1.360,-0.210,80.556,83.333,325.000,663.889,69.444,N
1132,-0.110,1.140,0.365,58.333,111.111,130.556,466.667,197.222,V
1133,-0.300,1.320,-0.075,66.667,83.333,344.444,816.667,350.000,N
1134,-0.200,1.515,-0.215,55.556,72.222,308.333,688.889,127.778,N
1135,-0.310,1.530,-0.115,69.444,69.444,288.889,636.111,52.778,N
1136,-0.175,1.335,-0.005,55.556,75.000,341.667,950.000,313.889,N
1137,-0.115,1.250,0.040,58.333,116.667,319.444,713.889,236.111,N
1138,-0.005,1.230,0.615,191.667,108.333,122.222,469.444,244.444,V
1139,-0.205,1.675,-0.055,72.222,100.000,305.556,933.333,463.889,N
1140,-0.145,1.645,-0.050,119.444,83.333,341.667,1111.111,177.778,N
1141,-0.135,1.490,0.030,169.444,86.111,355.556,933.333,177.778,N
1142,-0.010,1.490,0.085,72.222,75.000,322.222,902.778,30.556,N
1143,-0.150,1.470,-0.005,75.000,105.556,341.667,1283.333,380.556,N
1144,-0.165,1.485,-0.025,63.889,111.111,305.556,991.667,291.667,N
1145,-0.185,1.370,-0.075,158.333,58.333,291.667,611.111,380.556,N
1146,-0.240,1.260,-0.090,66.667,86.111,338.889,877.778,266.667,N
1147,-0.120,0.995,0.380,58.333,113.889,127.778,577.778,300.000,V
1148,-0.180,1.445,-0.010,102.778,83.333,338.889,788.889,211.111,N
1149,-0.210,1.375,-0.175,150.000,80.556,336.111,661.111,127.778,N
1150,-0.290,1.270,-0.180,102.778,72.222,322.222,625.000,36.111,N
1151,-0.180,1.080,0.320,186.111,113.889,127.778,463.889,161.111,V
1152,-0.305,1.330,-0.140,47.222,61.111,305.556,808.333,344.444,N
1153,-0.330,1.235,-0.235,144.444,77.778,325.000,750.000,58.333,N
1154,-0.220,1.110,0.260,58.333,111.111,127.778,452.778,297.222,V
1155,-0.260,1.325,-0.080,52.778,69.444,358.333,1088.889,636.111,N
1156,-0.185,1.295,-0.150,197.222,86.111,341.667,677.778,411.111,N
1157,-0.235,1.345,-0.080,172.222,83.333,352.778,705.556,27.778,N
1158,-0.030,1.210,0.440,58.333,111.111,125.000,497.222,208.333,V
1159,-0.090,1.425,0.035,47.222,61.111,308.333,777.778,280.556,N
1160,-0.110,1.320,-0.105,169.444,83.333,341.667,605.556,172.222,N
1161,-0.150,1.455,-0.060,44.444,61.111,308.333,641.667,36.111,N
1162,-0.050,1.250,0.365,58.333,113.889,130.556,447.222,194.444,V
1163,-0.125,-1.165,1.005,63.889,0.000,241.667,455.556,8.333,V
1164,0.720,1.020,0.280,197.222,111.111,125.000,483.333,27.778,V
1165,-0.145,1.415,0.040,77.778,66.667,344.444,850.000,366.667,N
1166,-0.100,1.495,-0.095,50.000,72.222,338.889,1041.667,191.667,N
1167,-0.185,1.450,-0.035,55.556,75.000,327.778,983.333,58.333,N
1168,-0.160,1.315,-0.050,194.444,69.444,311.111,708.333,275.000,N
1169,-0.195,1.385,-0.070,127.778,75.000,308.333,627.778,80.556,N
1170,-0.190,1.370,-0.075,125.000,69.444,327.778,680.556,52.778,N
1171,-0.195,1.375,-0.095,63.889,80.556,341.667,855.556,175.000,N
1172,-0.095,1.140,0.235,177.778,111.111,127.778,466.667,388.889,V
1173,-0.170,1.350,-0.045,63.889,80.556,358.333,900.000,433.333,N
1174,-0.170,1.385,-0.080,52.778,75.000,338.889,1011.111,111.111,N
1175,-0.165,1.380,-0.090,69.444,72.222,327.778,663.889,347.222,N
1176,-0.215,1.245,-0.135,150.000,83.333,327.778,611.111,52.778,N
1177,-0.180,1.400,-0.135,55.556,69.444,308.333,588.889,22.222,N
1178,-0.135,1.135,0.360,58.333,113.889,125.000,447.222,141.667,V
1179,-0.170,1.350,-0.020,102.778,83.333,338.889,800.000,352.778,N
1180,-0.140,1.310,-0.115,197.222,83.333,361.111,627.778,172.222,N
1181,-0.170,1.210,-0.125,194.444,83.333,377.778,747.222,119.444,N
1182,-0.190,1.310,-0.115,47.222,63.889,341.667,1236.111,488.889,N
1183,-0.205,1.375,-0.070,69.444,80.556,319.444,822.222,413.889,N
1184,-0.070,1.105,0.300,183.333,108.333,125.000,444.444,377.778,V
1185,-0.235,1.210,-0.115,72.222,69.444,338.889,975.000,530.556,N
1186,-0.195,1.240,-0.160,172.222,75.000,325.000,686.111,288.889,N
1187,-0.235,1.285,-0.100,58.333,80.556,336.111,613.889,72.222,N
1188,-0.165,1.290,-0.060,58.333,77.778,330.556,819.444,205.556,N
1189,-0.185,1.285,-0.145,97.222,63.889,305.556,638.889,180.556,N
1190,-0.190,1.335,-0.075,72.222,77.778,347.222,738.889,100.000,N
1191,-0.175,1.340,-0.035,66.667,113.889,338.889,1144.444,405.556,N
1192,-0.185,1.190,-0.080,102.778,72.222,308.333,691.667,452.778,N
1193,-0.195,1.200,-0.070,58.333,80.556,330.556,769.444,77.778,N
1194,-0.070,1.090,0.235,163.889,105.556,122.222,452.778,316.667,V
1195,-0.230,1.080,-0.050,72.222,83.333,352.778,727.778,275.000,N
1196,-0.130,1.215,-0.050,55.556,72.222,311.111,630.556,97.222,N
1197,-0.120,1.170,-0.025,58.333,80.556,372.222,758.333,127.778,N
1198,0.055,1.130,0.210,58.333,111.111,127.778,480.556,277.778,V
1199,-0.070,1.330,0.040,61.111,77.778,358.333,936.111,455.556,N
1200,-0.085,1.225,-0.105,191.667,75.000,308.333,644.444,291.667,N
1201,-0.200,1.145,-0.130,125.000,75.000,308.333,566.667,77.778,N
1202,-0.145,0.880,0.210,52.778,105.556,122.222,500.000,66.667,V
1203,-0.265,1.065,-0.080,66.667,86.111,341.667,741.667,241.667,N
1204,-0.185,1.225,-0.210,102.778,72.222,308.333,588.889,152.778,N
1205,-0.245,1.210,-0.100,58.333,83.333,336.111,647.222,58.333,N
1206,-0.005,1.095,0.310,58.333,111.111,130.556,522.222,125.000,V
1207,-0.190,1.200,-0.060,108.333,77.778,358.333,816.667,294.444,N
1208,-0.195,1.160,-0.165,158.333,75.000,341.667,716.667,100.000,N
1209,-0.195,1.280,-0.010,55.556,75.000,330.556,813.889,97.222,N
1210,-0.085,1.355,-0.030,141.667,72.222,322.222,616.667,197.222,N
1211,-0.125,1.305,-0.035,63.889,80.556,325.000,905.556,288.889,N
1212,-0.130,1.355,0.020,55.556,75.000,327.778,697.222,208.333,N
1213,-0.085,1.375,-0.015,44.444,61.111,325.000,650.000,47.222,N
1214,-0.010,1.165,0.370,58.333,113.889,127.778,469.444,180.556,V
1215,-0.130,1.275,-0.010,75.000,77.778,358.333,830.556,361.111,N
1216,-0.160,1.260,-0.135,61.111,80.556,341.667,702.778,127.778,N
1217,-0.230,1.180,-0.185,55.556,69.444,319.444,841.667,138.889,N
1218,-0.185,-1.255,0.680,172.222,2.778,250.000,447.222,394.444,V
1219,-0.385,1.015,-0.215,61.111,113.889,358.333,927.778,480.556,N
1220,-0.215,1.160,-0.110,61.111,83.333,311.111,583.333,344.444,N
1221,-0.090,1.285,-0.075,80.556,83.333,308.333,536.111,47.222,N
1222,-0.095,1.300,0.020,69.444,83.333,338.889,786.111,250.000,N
1223,-0.045,1.250,-0.035,175.000,80.556,341.667,658.333,127.778,N
1224,-0.120,1.355,-0.010,94.444,80.556,341.667,683.333,25.000,N
1225,0.030,1.160,0.385,58.333,116.667,130.556,505.556,177.778,V
1226,-0.155,1.210,-0.040,58.333,77.778,341.667,875.000,369.444,N
1227,-0.115,1.120,-0.115,169.444,75.000,311.111,663.889,211.111,N
1228,-0.155,0.935,-0.110,61.111,100.000,325.000,655.556,8.333,N
1229,-0.180,0.855,-0.100,69.444,113.889,322.222,655.556,0.000,N
1230,-0.120,1.215,0.005,86.111,97.222,305.556,736.111,80.556,N
1231,-0.080,1.235,-0.005,119.444,105.556,327.778,700.000,36.111,N
1232,-0.110,1.365,0.000,61.111,113.889,361.111,791.667,91.667,N
1233,-0.145,1.155,-0.190,163.889,86.111,358.333,736.111,55.556,N
1234,-0.260,1.050,-0.130,55.556,77.778,341.667,694.444,41.667,N
1235,-0.050,1.060,0.190,58.333,108.333,125.000,463.889,230.556,V
1236,-0.110,1.380,0.010,66.667,113.889,338.889,994.444,530.556,N
1237,-0.100,1.265,-0.120,111.111,63.889,311.111,625.000,369.444,N
1238,-0.225,1.135,-0.075,63.889,80.556,325.000,719.444,94.444,N
1239,-0.160,1.250,-0.140,197.222,83.333,358.333,666.667,52.778,N
1240,-0.190,1.255,-0.165,144.444,111.111,325.000,613.889,52.778,N
1241,-0.205,1.205,-0.100,147.222,77.778,355.556,636.111,22.222,N
1242,0.025,1.220,0.405,58.333,111.111,127.778,502.778,133.333,V
1243,-0.075,1.365,0.095,138.889,111.111,352.778,988.889,486.111,N
1244,-0.075,1.240,0.010,63.889,80.556,355.556,775.000,213.889,N
1245,0.095,1.315,0.375,58.333,105.556,122.222,447.222,327.778,V
1246,0.100,1.580,0.210,61.111,111.111,322.222,969.444,522.222,N
1247,0.050,1.430,0.075,197.222,83.333,341.667,702.778,266.667,N
1248,0.065,1.490,0.125,61.111,77.778,341.667,877.778,175.000,N
1249,0.075,1.525,0.175,152.778,69.444,308.333,627.778,250.000,N
1250,0.090,1.645,0.135,122.222,69.444,305.556,630.556,2.778,N
1251,0.020,1.425,0.095,52.778,72.222,358.333,800.000,169.444,N
1252,0.105,1.310,0.390,61.111,116.667,127.778,477.778,322.222,V
1253,0.015,1.520,0.135,72.222,111.111,319.444,791.667,313.889,N
1254,0.010,1.405,0.020,113.889,63.889,75.000,858.333,66.667,N
1255,-0.005,1.275,0.240,52.778,102.778,113.889,430.556,427.778,V
1256,-0.060,1.480,0.095,66.667,80.556,361.111,1169.444,738.889,N
1257,-0.090,1.295,-0.050,63.889,83.333,325.000,780.556,388.889,N
1258,-0.160,1.295,-0.080,191.667,80.556,341.667,650.000,130.556,N
1259,-0.135,1.330,-0.045,144.444,77.778,322.222,616.667,33.333,N
1260,-0.035,1.210,0.355,63.889,116.667,127.778,469.444,147.222,V
1261,-0.095,1.310,-0.040,94.444,80.556,358.333,1394.444,925.000,N
1262,-0.175,1.210,-0.170,47.222,66.667,308.333,1352.778,41.667,N
1263,-0.190,1.165,-0.165,55.556,69.444,330.556,941.667,411.111,N
1264,-0.230,1.275,-0.100,194.444,80.556,358.333,905.556,36.111,N
1265,-0.220,1.255,-0.050,180.556,80.556,325.000,722.222,183.333,N
1266,-0.200,1.435,-0.110,88.889,72.222,305.556,672.222,50.000,N
1267,-0.245,1.330,-0.120,136.111,66.667,291.667,630.556,41.667,N
1268,-0.090,1.480,-0.065,127.778,63.889,311.111,608.333,22.222,N
1269,-0.065,1.180,0.355,169.444,108.333,122.222,441.667,166.667,V
1270,-0.175,1.230,-0.055,111.111,102.778,308.333,819.444,377.778,N
1271,-0.180,1.325,-0.135,150.000,83.333,311.111,744.444,75.000,N
1272,-0.110,1.120,0.290,58.333,111.111,125.000,475.000,269.444,V
1273,-0.090,1.440,0.045,52.778,75.000,361.111,1380.556,905.556,N
1274,-0.150,1.315,-0.105,177.778,75.000,341.667,722.222,658.333,N
1275,-0.175,1.305,-0.060,183.333,83.333,325.000,638.889,83.333,N
1276,-0.040,1.150,0.430,58.333,113.889,127.778,502.778,136.111,V
1277,-0.130,1.345,0.030,77.778,75.000,338.889,1022.222,519.444,N
1278,-0.120,1.475,-0.010,163.889,77.778,327.778,586.111,436.111,N
1279,-0.110,1.335,0.000,44.444,61.111,325.000,747.222,161.111,N
1280,-0.140,1.360,-0.080,63.889,63.889,341.667,702.778,44.444,N
1281,-0.210,1.275,-0.130,166.667,86.111,358.333,669.444,33.333,N
1282,-0.190,1.415,-0.085,130.556,77.778,341.667,697.222,27.778,N
1283,-0.035,1.255,0.355,58.333,111.111,125.000,475.000,222.222,V
1284,-0.265,1.260,-0.030,83.333,83.333,341.667,1127.778,652.778,N
1285,-0.140,1.425,-0.125,125.000,72.222,294.444,591.667,536.111,N
1286,-0.220,1.340,-0.155,175.000,75.000,327.778,633.333,41.667,N
1287,-0.210,1.290,-0.085,77.778,77.778,341.667,719.444,86.111,N
1288,-0.175,1.345,-0.175,186.111,72.222,327.778,644.444,75.000,N
1289,-0.295,1.305,-0.170,55.556,66.667,338.889,813.889,169.444,N
1290,-0.270,1.335,-0.175,108.333,77.778,358.333,772.222,41.667,N
1291,-0.280,1.300,-0.190,166.667,100.000,325.000,658.333,113.889,N
1292,-0.290,1.195,-0.190,188.889,61.111,294.444,658.333,0.000,N
1293,-0.280,1.355,-0.150,94.444,77.778,327.778,700.000,41.667,N
1294,-0.170,1.365,-0.035,47.222,66.667,294.444,1002.778,302.778,N
1295,-0.210,1.355,-0.100,119.444,83.333,319.444,808.333,194.444,N
1296,-0.100,1.170,0.255,61.111,102.778,122.222,455.556,352.778,V
1297,-0.180,1.400,-0.075,50.000,66.667,322.222,941.667,486.111,N
1298,-0.220,1.350,-0.120,125.000,72.222,322.222,672.222,269.444,N
1299,-0.220,1.340,-0.100,72.222,75.000,325.000,683.333,11.111,N
1300,-0.185,1.420,-0.045,136.111,69.444,308.333,644.444,38.889,N
1301,-0.025,1.255,0.465,58.333,111.111,127.778,444.444,200.000,V
1302,-0.135,1.585,-0.025,94.444,75.000,325.000,863.889,419.444,N
1303,-0.150,1.345,-0.205,150.000,80.556,325.000,588.889,275.000,N
1304,-0.145,1.470,-0.035,50.000,58.333,283.333,666.667,77.778,N
1305,-0.215,1.530,-0.070,94.444,80.556,327.778,644.444,22.222,N
1306,-0.160,1.545,-0.065,177.778,75.000,341.667,683.333,38.889,N
1307,-0.170,1.455,-0.060,77.778,63.889,325.000,750.000,66.667,N
1308,-0.115,1.475,-0.080,55.556,72.222,319.444,661.111,88.889,N
1309,-0.100,1.510,0.015,77.778,66.667,319.444,763.889,102.778,N
1310,0.045,1.400,0.455,58.333,105.556,119.444,458.333,305.556,V
1311,-0.005,1.515,0.080,52.778,69.444,347.222,975.000,516.667,N
1312,-0.070,1.385,-0.055,166.667,66.667,305.556,663.889,311.111,N
1313,-0.070,1.490,0.075,150.000,83.333,355.556,1066.667,402.778,N
1314,-0.025,1.455,-0.015,130.556,80.556,338.889,661.111,405.556,N
1315,-0.135,1.345,-0.035,44.444,61.111,308.333,713.889,52.778,N
1316,0.035,1.270,0.465,58.333,111.111,127.778,475.000,238.889,V
1317,-0.075,1.460,0.025,116.667,75.000,333.333,930.556,455.556,N
1318,-0.045,1.380,-0.050,169.444,69.444,311.111,636.111,294.444,N
1319,-0.085,1.130,-0.005,63.889,116.667,344.444,811.111,175.000,N
1320,-0.125,1.315,-0.020,191.667,77.778,341.667,711.111,100.000,N
1321,0.020,1.295,0.455,55.556,102.778,119.444,466.667,244.444,V
1322,-0.070,1.450,-0.020,80.556,80.556,361.111,752.778,286.111,N
1323,-0.100,1.400,-0.105,141.667,61.111,316.667,613.889,138.889,N
1324,-0.090,1.380,-0.055,138.889,72.222,338.889,613.889,0.000,N
1325,0.025,1.185,0.410,58.333,113.889,130.556,513.889,100.000,V
1326,-0.125,1.475,-0.005,97.222,83.333,355.556,825.000,311.111,N
1327,-0.105,1.475,-0.055,177.778,61.111,308.333,683.333,141.667,N
1328,-0.090,1.600,0.000,180.556,83.333,327.778,666.667,16.667,N
1329,-0.040,1.645,-0.015,161.111,77.778,325.000,613.889,52.778,N
1330,-0.115,1.595,-0.005,191.667,77.778,325.000,666.667,52.778,N
1331,-0.120,1.695,-0.055,55.556,72.222,311.111,611.111,55.556,N
1332,-0.145,1.610,-0.075,155.556,69.444,322.222,600.000,11.111,N
1333,-0.155,1.640,-0.110,197.222,83.333,341.667,691.667,91.667,N
1334,-0.180,1.665,-0.060,66.667,116.667,341.667,1086.111,394.444,N
1335,-0.175,1.625,-0.155,61.111,94.444,291.667,558.333,527.778,N
1336,-0.215,1.635,-0.100,69.444,69.444,308.333,727.778,169.444,N
1337,-0.030,1.255,0.515,58.333,111.111,125.000,486.111,241.667,V
1338,-0.175,1.550,0.025,66.667,86.111,377.778,1294.444,808.333,N
1339,-0.190,1.320,-0.200,191.667,75.000,338.889,822.222,472.222,N
1340,-0.135,1.145,0.215,58.333,113.889,130.556,475.000,347.222,V
1341,-0.215,1.380,-0.135,61.111,63.889,341.667,863.889,388.889,N
1342,-0.245,1.320,-0.120,61.111,83.333,361.111,747.222,116.667,N
1343,-0.030,1.295,0.410,58.333,111.111,125.000,458.333,288.889,V
1344,-0.080,1.500,-0.025,138.889,83.333,338.889,886.111,427.778,N
1345,-0.080,1.395,-0.110,169.444,61.111,325.000,758.333,127.778,N
1346,-0.025,1.325,0.560,58.333,108.333,125.000,452.778,305.556,V
1347,-0.090,1.450,0.045,52.778,66.667,325.000,894.444,441.667,N
1348,-0.065,1.430,-0.050,197.222,83.333,347.222,700.000,194.444,N
1349,-0.145,1.470,-0.140,144.444,83.333,330.556,583.333,116.667,N
1350,-0.250,1.310,-0.100,58.333,105.556,341.667,827.778,244.444,N
1351,-0.160,1.295,-0.185,150.000,83.333,341.667,675.000,152.778,N
1352,-0.100,1.465,0.020,66.667,83.333,325.000,852.778,177.778,N
1353,-0.025,1.555,-0.010,125.000,72.222,305.556,591.667,261.111,N
1354,-0.080,1.465,-0.065,155.556,77.778,297.222,583.333,8.333,N
1355,-0.115,1.335,-0.100,77.778,80.556,325.000,552.778,30.556,N
1356,-0.155,1.280,-0.050,116.667,69.444,338.889,588.889,36.111,N
1357,-0.130,1.315,-0.080,191.667,75.000,341.667,688.889,100.000,N
1358,-0.110,1.315,-0.025,69.444,86.111,355.556,761.111,72.222,N
1359,-0.040,1.445,0.050,86.111,69.444,325.000,783.333,22.222,N
1360,0.060,1.235,0.370,58.333,113.889,127.778,472.222,311.111,V
1361,-0.010,1.340,0.055,61.111,77.778,338.889,905.556,433.333,N
1362,-0.035,1.410,-0.035,133.333,69.444,311.111,625.000,280.556,N
1363,-0.125,1.230,-0.050,83.333,69.444,308.333,625.000,0.000,N
1364,-0.025,1.165,0.350,58.333,111.111,127.778,452.778,172.222,V
1365,-0.120,1.455,0.070,50.000,69.444,336.111,969.444,516.667,N
1366,0.005,1.585,0.015,172.222,72.222,325.000,636.111,333.333,N
1367,-0.135,1.565,-0.055,183.333,113.889,338.889,725.000,88.889,N
1368,-0.135,1.480,-0.080,191.667,75.000,333.333,627.778,97.222,N
1369,-0.170,1.480,-0.095,55.556,100.000,308.333,630.556,2.778,N
1370,-0.105,1.100,0.475,58.333,108.333,122.222,527.778,102.778,V
1371,-0.340,1.120,-0.235,58.333,102.778,311.111,725.000,197.222,N
1372,-0.345,1.080,-0.340,194.444,113.889,311.111,652.778,72.222,N
1373,-0.325,1.100,-0.235,75.000,75.000,338.889,611.111,41.667,N
1374,-0.195,1.025,0.245,58.333,113.889,125.000,461.111,150.000,V
1375,-0.150,1.280,-0.025,94.444,80.556,355.556,927.778,466.667,N
1376,0.045,1.535,0.030,52.778,102.778,361.111,1111.111,183.333,N
1377,-0.010,1.500,0.015,52.778,102.778,327.778,933.333,177.778,N
1378,-0.070,1.350,-0.035,58.333,100.000,302.778,669.444,263.889,N
1379,-0.115,1.375,-0.030,166.667,116.667,308.333,591.667,77.778,N
1380,-0.075,1.415,0.050,69.444,113.889,322.222,652.778,61.111,N
1381,0.090,1.345,0.485,58.333,108.333,125.000,441.667,211.111,V
1382,-0.020,1.390,0.095,52.778,105.556,341.667,744.444,302.778,N
1383,-0.020,1.420,0.035,55.556,105.556,341.667,783.333,38.889,N
1384,0.160,1.355,0.470,58.333,116.667,130.556,469.444,313.889,V
1385,-0.015,1.430,0.060,175.000,111.111,366.667,1030.556,561.111,N
1386,-0.045,1.455,0.005,147.222,80.556,311.111,672.222,358.333,N
1387,-0.105,1.445,-0.015,138.889,102.778,308.333,675.000,2.778,N
1388,0.000,1.265,0.425,58.333,111.111,125.000,450.000,225.000,V
1389,-0.125,1.360,-0.040,61.111,97.222,308.333,925.000,475.000,N
1390,-0.105,1.315,-0.115,186.111,80.556,355.556,672.222,252.778,N
1391,-0.165,1.310,-0.075,188.889,102.778,338.889,1102.778,430.556,N
1392,-0.120,1.325,-0.015,52.778,75.000,325.000,769.444,333.333,N
1393,-0.015,1.200,0.380,183.333,111.111,125.000,458.333,311.111,V
1394,-0.180,1.230,-0.030,63.889,113.889,341.667,897.222,438.889,N
1395,-0.165,1.275,-0.040,83.333,75.000,316.667,888.889,8.333,N
1396,-0.075,1.425,-0.015,61.111,80.556,327.778,611.111,277.778,N
1397,-0.080,1.450,-0.005,155.556,105.556,313.889,711.111,100.000,N
1398,0.060,1.205,0.445,58.333,111.111,125.000,466.667,244.444,V
1399,-0.030,1.630,0.090,55.556,100.000,338.889,816.667,350.000,N
1400,-0.040,1.725,-0.030,172.222,100.000,322.222,680.556,136.111,N
1401,-0.100,1.685,-0.090,155.556,102.778,325.000,633.333,47.222,N
1402,-0.235,1.345,-0.215,50.000,100.000,325.000,727.778,94.444,N
1403,-0.215,1.055,0.190,183.333,113.889,125.000,466.667,261.111,V
1404,-0.210,1.250,-0.070,52.778,75.000,325.000,872.222,405.556,N
1405,-0.125,1.270,-0.005,191.667,75.000,311.111,666.667,205.556,N
1406,0.020,1.115,0.455,58.333,111.111,122.222,463.889,202.778,V
1407,-0.080,1.315,0.045,61.111,102.778,338.889,891.667,427.778,N
1408,-0.110,1.245,-0.060,75.000,105.556,330.556,847.222,44.444,N
1409,0.000,1.145,0.255,58.333,113.889,122.222,455.556,391.667,V
1410,-0.080,1.400,-0.035,63.889,83.333,355.556,966.667,511.111,N
1411,-0.110,1.305,-0.065,130.556,72.222,325.000,655.556,311.111,N
1412,-0.130,1.195,-0.065,58.333,100.000,322.222,819.444,163.889,N
1413,-0.050,1.085,0.200,58.333,111.111,119.444,430.556,388.889,V
1414,-0.195,0.990,-0.015,69.444,116.667,338.889,830.556,400.000,N
1415,-0.150,1.155,-0.075,191.667,75.000,308.333,655.556,175.000,N
1416,0.050,0.515,-0.035,55.556,88.889,330.556,500.000,155.556,V
1417,-0.245,1.190,-0.195,50.000,100.000,341.667,791.667,291.667,N
1418,-0.105,1.075,0.085,58.333,113.889,130.556,475.000,316.667,V
1419,-0.255,0.985,-0.130,58.333,77.778,372.222,1266.667,791.667,N
1420,-0.215,1.135,-0.140,172.222,83.333,322.222,711.111,555.556,N
1421,-0.210,1.250,-0.160,61.111,105.556,322.222,775.000,63.889,N
1422,-0.155,1.045,0.135,61.111,108.333,125.000,433.333,341.667,V
1423,-0.270,1.100,-0.110,61.111,102.778,344.444,827.778,394.444,N
1424,-0.205,1.190,-0.205,38.889,58.333,311.111,650.000,177.778,N
1425,-0.260,1.130,-0.200,177.778,80.556,325.000,655.556,5.556,N
1426,-0.180,1.070,0.175,58.333,116.667,130.556,505.556,150.000,V
1427,-0.235,1.270,-0.090,66.667,86.111,355.556,1000.000,494.444,N
1428,-0.230,1.155,-0.175,50.000,97.222,327.778,816.667,183.333,N
1429,-0.125,1.060,0.185,58.333,111.111,130.556,475.000,341.667,V
1430,-0.220,1.195,-0.130,47.222,102.778,330.556,1019.444,544.444,N
1431,-0.295,1.095,-0.210,61.111,58.333,291.667,613.889,405.556,N
1432,-0.255,1.195,-0.165,61.111,80.556,313.889,616.667,2.778,N
1433,-0.240,1.155,-0.170,188.889,72.222,341.667,677.778,61.111,N
1434,-0.115,1.140,0.255,55.556,111.111,125.000,494.444,183.333,V
1435,-0.260,1.110,-0.035,83.333,86.111,375.000,933.333,438.889,N
1436,-0.155,1.335,-0.105,69.444,116.667,338.889,902.778,30.556,N
1437,-0.085,1.180,0.205,58.333,113.889,125.000,463.889,438.889,V
1438,-0.205,1.200,-0.070,152.778,83.333,355.556,1036.111,572.222,N
1439,-0.210,1.270,-0.145,61.111,80.556,325.000,713.889,322.222,N
1440,-0.245,1.190,-0.130,52.778,100.000,325.000,836.111,122.222,N
1441,-0.210,1.245,-0.145,77.778,80.556,322.222,758.333,77.778,N
1442,-0.235,1.285,-0.070,130.556,83.333,341.667,722.222,36.111,N
1443,-0.055,1.140,0.310,55.556,111.111,125.000,494.444,227.778,V
1444,-0.110,1.380,-0.015,144.444,102.778,344.444,980.556,486.111,N
1445,-0.065,1.550,0.050,52.778,69.444,325.000,944.444,36.111,N
1446,-0.025,1.695,0.060,188.889,75.000,291.667,652.778,291.667,N
1447,-0.120,1.690,-0.010,180.556,113.889,258.333,855.556,202.778,N
1448,-0.085,1.160,0.155,161.111,105.556,119.444,433.333,422.222,V
1449,-0.195,1.250,-0.160,83.333,55.556,325.000,825.000,391.667,N
1450,-0.190,1.425,-0.075,197.222,86.111,355.556,663.889,161.111,N
1451,-0.165,1.280,-0.035,169.444,83.333,375.000,650.000,13.889,N
1452,0.005,1.530,0.080,100.000,77.778,336.111,644.444,5.556,N
1453,0.110,1.365,0.505,63.889,113.889,130.556,486.111,158.333,V
1454,-0.045,1.510,0.140,52.778,69.444,322.222,833.333,347.222,N
1455,0.080,1.560,0.135,52.778,66.667,311.111,1069.444,236.111,N
1456,0.030,1.545,0.085,191.667,80.556,286.111,622.222,447.222,N
1457,0.000,1.670,0.180,127.778,83.333,347.222,669.444,47.222,N
1458,0.120,1.370,0.695,58.333,108.333,127.778,547.222,122.222,V
1459,0.000,1.560,0.175,188.889,83.333,344.444,755.556,208.333,N
1460,0.070,1.635,-0.005,133.333,80.556,341.667,663.889,91.667,N
1461,-0.030,1.510,0.080,52.778,69.444,341.667,688.889,25.000,N
1462,0.105,1.210,0.530,58.333,113.889,125.000,513.889,175.000,V
1463,-0.065,1.490,0.075,130.556,77.778,338.889,797.222,283.333,N
1464,-0.030,1.590,0.000,150.000,80.556,294.444,630.556,166.667,N
1465,-0.070,1.530,-0.055,138.889,55.556,308.333,630.556,0.000,N
1466,-0.025,1.225,0.465,58.333,108.333,127.778,466.667,163.889,V
1467,-0.130,1.475,0.080,52.778,75.000,372.222,994.444,527.778,N
1468,-0.050,1.465,-0.020,175.000,63.889,325.000,675.000,319.444,N
1469,-0.115,1.420,-0.015,50.000,63.889,330.556,686.111,11.111,N
1470,0.050,1.335,0.400,55.556,102.778,119.444,461.111,225.000,V
1471,-0.075,1.420,0.120,55.556,75.000,344.444,763.889,302.778,N
1472,-0.035,1.435,0.055,63.889,83.333,361.111,1158.333,394.444,N
1473,-0.030,1.485,-0.030,172.222,72.222,305.556,641.667,516.667,N
1474,-0.090,1.375,-0.020,186.111,69.444,325.000,630.556,11.111,N
1475,-0.105,1.590,-0.055,52.778,63.889,302.778,647.222,16.667,N
1476,-0.005,1.240,0.475,61.111,105.556,127.778,491.667,155.556,V
1477,-0.175,1.430,-0.010,75.000,66.667,344.444,850.000,358.333,N
1478,-0.080,1.665,-0.030,66.667,63.889,333.333,1105.556,255.556,N
1479,-0.105,1.510,-0.045,55.556,72.222,308.333,738.889,366.667,N
1480,-0.110,1.620,-0.065,144.444,72.222,302.778,655.556,83.333,N
1481,-0.135,1.725,-0.050,66.667,63.889,325.000,655.556,0.000,N
1482,-0.165,1.530,-0.095,186.111,80.556,322.222,686.111,30.556,N
1483,-0.050,1.260,0.355,58.333,111.111,127.778,444.444,241.667,V
1484,-0.190,1.630,-0.090,113.889,100.000,338.889,950.000,505.556,N
1485,-0.220,1.520,-0.090,183.333,83.333,341.667,736.111,213.889,N
1486,-0.155,1.580,-0.040,127.778,80.556,344.444,811.111,75.000,N
1487,0.025,1.340,0.425,58.333,113.889,127.778,469.444,341.667,V
1488,0.345,2.205,-0.225,58.333,116.667,394.444,950.000,480.556,V
1489,-0.060,1.550,0.075,47.222,63.889,322.222,666.667,283.333,N
1490,0.080,1.305,0.540,58.333,102.778,119.444,463.889,202.778,V
1491,-0.040,1.490,0.085,75.000,80.556,344.444,911.111,447.222,N
1492,-0.095,1.550,-0.040,72.222,69.444,341.667,1113.889,202.778,N
1493,-0.125,1.545,0.000,102.778,66.667,338.889,913.889,200.000,N
1494,-0.090,1.505,0.005,91.667,75.000,308.333,722.222,191.667,N
1495,-0.140,1.420,-0.060,138.889,75.000,325.000,633.333,88.889,N
1496,-0.220,1.260,-0.130,180.556,83.333,325.000,672.222,38.889,N
1497,-0.060,1.135,0.345,58.333,108.333,125.000,494.444,177.778,V
1498,-0.195,1.315,0.020,55.556,80.556,358.333,919.444,425.000,N
1499,-0.150,1.365,-0.150,180.556,77.778,341.667,619.444,300.000,N
1500,-0.195,1.250,-0.110,119.444,69.444,325.000,705.556,86.111,N
1501,-0.110,1.205,0.240,180.556,113.889,127.778,461.111,244.444,V
1502,-0.210,1.380,-0.040,58.333,111.111,344.444,1061.111,600.000,N
1503,-0.220,1.410,-0.150,55.556,72.222,325.000,713.889,347.222,N
1504,-0.230,1.290,-0.170,122.222,66.667,305.556,666.667,47.222,N
1505,-0.125,0.955,0.240,58.333,108.333,122.222,513.889,152.778,V
1506,-0.255,1.280,-0.095,63.889,83.333,352.778,897.222,383.333,N
1507,-0.225,1.385,-0.160,88.889,69.444,291.667,652.778,244.444,N
1508,-0.230,1.330,-0.065,66.667,80.556,338.889,677.778,25.000,N
1509,-0.015,1.190,0.380,58.333,111.111,127.778,494.444,183.333,V
1510,-0.155,1.315,-0.015,55.556,105.556,358.333,1533.333,1038.889,N
1511,-0.250,1.205,-0.195,86.111,80.556,336.111,1325.000,208.333,N
1512,-0.255,1.375,-0.125,66.667,83.333,308.333,913.889,411.111,N
1513,-0.210,1.435,-0.110,169.444,69.444,308.333,736.111,177.778,N
1514,-0.155,1.330,-0.035,58.333,61.111,327.778,775.000,38.889,N
1515,0.030,1.295,0.400,58.333,111.111,127.778,469.444,305.556,V
1516,-0.010,1.580,0.065,61.111,80.556,325.000,997.222,527.778,N
1517,-0.085,1.525,0.005,50.000,61.111,311.111,1266.667,269.444,N
1518,-0.190,1.415,-0.065,83.333,63.889,300.000,719.444,547.222,N
1519,-0.060,1.150,0.290,58.333,111.111,125.000,441.667,277.778,V
1520,0.030,1.550,-0.045,91.667,66.667,305.556,747.222,305.556,N
1521,-0.125,1.535,0.050,155.556,75.000,325.000,1102.778,355.556,N
1522,-0.055,1.650,0.055,172.222,75.000,347.222,713.889,388.889,N
1523,0.065,1.555,0.035,77.778,66.667,327.778,677.778,36.111,N
1524,-0.125,1.425,-0.040,188.889,69.444,305.556,655.556,22.222,N
1525,-0.225,1.450,-0.065,66.667,66.667,327.778,861.111,205.556,N
1526,-0.155,1.450,-0.045,80.556,113.889,341.667,1150.000,288.889,N
1527,-0.200,1.365,-0.050,66.667,63.889,302.778,736.111,413.889,N
1528,-0.070,1.175,0.475,66.667,113.889,125.000,463.889,272.222,V
1529,-0.095,1.570,0.085,169.444,116.667,355.556,1102.778,638.889,N
1530,-0.070,1.525,0.050,77.778,83.333,341.667,1341.667,238.889,N
1531,-0.045,1.515,0.065,75.000,72.222,305.556,697.222,644.444,N
1532,-0.090,1.425,0.060,133.333,116.667,327.778,758.333,61.111,N
1533,0.060,1.280,0.355,58.333,108.333,125.000,455.556,302.778,V
1534,0.045,1.520,0.215,66.667,83.333,358.333,927.778,472.222,N
1535,0.000,1.270,-0.030,186.111,55.556,308.333,669.444,258.333,N
1536,-0.095,1.495,0.020,77.778,116.667,347.222,725.000,55.556,N
1537,0.020,1.250,0.260,175.000,111.111,130.556,463.889,261.111,V
1538,-0.235,1.300,-0.085,144.444,77.778,375.000,852.778,388.889,N
1539,-0.170,1.220,-0.110,150.000,83.333,358.333,655.556,197.222,N
1540,0.000,1.475,0.155,130.556,116.667,341.667,1280.556,625.000,N
1541,-0.055,1.385,0.060,100.000,83.333,305.556,852.778,427.778,N
1542,-0.060,1.320,0.030,144.444,77.778,311.111,608.333,244.444,N
1543,-0.130,1.170,-0.030,188.889,72.222,327.778,627.778,19.444,N
1544,-0.145,1.205,-0.045,66.667,100.000,341.667,844.444,216.667,N
1545,-0.035,1.145,0.140,58.333,111.111,127.778,472.222,372.222,V
1546,-0.170,1.090,-0.035,63.889,83.333,358.333,911.111,438.889,N
1547,-0.175,1.140,-0.135,161.111,77.778,341.667,713.889,197.222,N
1548,-0.180,1.130,-0.090,55.556,72.222,325.000,625.000,88.889,N
1549,-0.170,1.105,-0.075,177.778,77.778,325.000,622.222,2.778,N
1550,-0.030,1.090,0.215,58.333,108.333,122.222,463.889,158.333,V
1551,-0.240,1.010,-0.130,55.556,102.778,341.667,847.222,383.333,N
1552,-0.220,1.215,-0.115,105.556,75.000,325.000,786.111,61.111,N
1553,-0.115,1.090,0.205,163.889,108.333,122.222,441.667,344.444,V
1554,-0.195,1.240,-0.115,61.111,83.333,347.222,811.111,369.444,N
1555,-0.195,1.225,-0.095,55.556,102.778,341.667,677.778,133.333,N
1556,-0.135,1.200,-0.015,61.111,113.889,344.444,738.889,61.111,N
1557,0.040,1.135,0.270,58.333,111.111,125.000,497.222,241.667,V
1558,-0.040,1.460,0.070,63.889,116.667,341.667,1025.000,527.778,N
1559,-0.080,1.195,-0.140,194.444,77.778,308.333,658.333,366.667,N
1560,-0.350,0.980,-0.260,55.556,69.444,308.333,680.556,22.222,N
1561,-0.190,0.975,0.225,58.333,111.111,125.000,461.111,219.444,V
1562,-0.240,1.090,-0.110,66.667,113.889,372.222,1133.333,672.222,N
1563,-0.240,1.125,-0.130,127.778,80.556,344.444,811.111,322.222,N
1564,-0.125,1.250,-0.025,52.778,102.778,338.889,1238.889,427.778,N
1565,-0.050,1.410,0.015,52.778,72.222,308.333,1202.778,36.111,N
1566,-0.125,1.395,-0.010,155.556,80.556,319.444,700.000,502.778,N
1567,-0.010,1.140,0.370,188.889,111.111,125.000,450.000,250.000,V
1568,-0.180,1.280,-0.130,136.111,83.333,341.667,830.556,380.556,N
1569,-0.180,1.315,-0.140,119.444,69.444,325.000,616.667,213.889,N
1570,-0.145,1.380,-0.110,125.000,100.000,338.889,672.222,55.556,N
1571,-0.090,1.235,0.435,58.333,116.667,127.778,491.667,180.556,V
1572,-0.245,1.375,-0.085,136.111,116.667,369.444,1000.000,508.333,N
1573,-0.210,1.455,-0.150,69.444,113.889,325.000,900.000,100.000,N
1574,-0.110,1.225,0.275,58.333,108.333,119.444,455.556,444.444,V
1575,-0.190,1.505,-0.080,133.333,116.667,352.778,944.444,488.889,N
1576,-0.190,1.545,-0.100,161.111,77.778,311.111,644.444,300.000,N
1577,-0.215,1.560,-0.055,130.556,113.889,344.444,650.000,5.556,N
1578,-0.025,1.400,0.630,58.333,111.111,125.000,480.556,169.444,V
1579,-0.140,1.645,0.050,63.889,113.889,352.778,1072.222,591.667,N
1580,-0.040,1.540,-0.140,166.667,86.111,261.111,672.222,400.000,N
1581,-0.185,1.600,-0.020,66.667,113.889,352.778,697.222,25.000,N
1582,0.015,1.405,0.595,58.333,111.111,125.000,483.333,213.889,V
1583,-0.175,1.525,-0.025,41.667,94.444,325.000,908.333,425.000,N
1584,-0.230,1.440,-0.140,91.667,105.556,344.444,800.000,108.333,N
1585,-0.105,1.350,0.400,58.333,113.889,122.222,458.333,341.667,V
1586,-0.190,1.370,-0.010,55.556,102.778,361.111,1486.111,1027.778,N
1587,-0.260,1.315,-0.210,191.667,108.333,344.444,683.333,802.778,N
1588,-0.325,1.330,-0.265,55.556,72.222,325.000,650.000,33.333,N
1589,-0.345,1.105,-0.185,58.333,80.556,327.778,852.778,202.778,N
1590,-0.255,1.150,-0.180,163.889,77.778,341.667,586.111,266.667,N
1591,-0.245,1.030,-0.100,61.111,113.889,325.000,783.333,197.222,N
1592,-0.200,1.315,-0.105,138.889,83.333,322.222,658.333,125.000,N
1593,-0.130,1.460,-0.115,150.000,111.111,352.778,663.889,5.556,N
1594,-0.210,1.210,0.140,194.444,86.111,313.889,691.667,27.778,N
1595,0.090,1.100,0.350,194.444,105.556,130.556,466.667,225.000,V
1596,-0.130,1.405,0.020,58.333,105.556,344.444,1030.556,563.889,N
1597,0.020,-1.070,0.950,169.444,2.778,244.444,461.111,569.444,V
1598,-0.205,1.245,-0.085,52.778,69.444,325.000,869.444,408.333,N
1599,-0.205,1.285,-0.140,188.889,69.444,322.222,716.667,152.778,N
1600,-0.195,1.275,-0.125,163.889,80.556,325.000,625.000,91.667,N
1601,-0.260,1.190,-0.195,177.778,80.556,327.778,633.333,8.333,N
1602,-0.200,1.455,-0.065,72.222,75.000,338.889,791.667,158.333,N
1603,-0.175,1.370,-0.020,75.000,77.778,355.556,752.778,38.889,N
1604,-0.190,1.390,-0.105,102.778,69.444,327.778,727.778,25.000,N
1605,-0.185,1.355,-0.060,55.556,77.778,325.000,819.444,91.667,N
1606,-0.140,1.460,-0.085,97.222,113.889,305.556,891.667,72.222,N
1607,-0.220,1.260,-0.180,197.222,75.000,286.111,647.222,244.444,N
1608,-0.260,1.200,-0.110,52.778,69.444,308.333,738.889,91.667,N
1609,-0.230,1.185,-0.120,75.000,102.778,344.444,1125.000,386.111,N
1610,-0.260,1.300,-0.110,133.333,66.667,325.000,655.556,469.444,N
1611,-0.225,1.360,-0.105,47.222,66.667,325.000,700.000,44.444,N
1612,-0.210,1.285,-0.110,58.333,83.333,361.111,744.444,44.444,N
1613,-0.105,1.045,0.215,58.333,108.333,125.000,463.889,280.556,V
1614,-0.280,1.110,-0.115,100.000,86.111,361.111,825.000,361.111,N
1615,-0.170,1.235,-0.165,158.333,72.222,288.889,608.333,216.667,N
1616,-0.235,1.305,-0.110,66.667,80.556,327.778,791.667,183.333,N
1617,-0.220,1.360,-0.145,61.111,86.111,327.778,847.222,55.556,N
1618,-0.080,1.140,0.195,58.333,108.333,125.000,461.111,386.111,V
1619,-0.105,1.440,0.050,55.556,72.222,344.444,977.778,516.667,N
1620,-0.140,1.225,-0.135,186.111,83.333,369.444,733.333,244.444,N
1621,-0.195,1.350,-0.080,61.111,77.778,308.333,725.000,8.333,N
1622,-0.030,1.240,0.360,58.333,108.333,125.000,461.111,263.889,V
1623,-0.080,1.470,0.050,66.667,83.333,352.778,880.556,419.444,N
1624,-0.110,1.435,-0.085,152.778,83.333,325.000,630.556,250.000,N
1625,-0.190,1.385,-0.050,97.222,80.556,325.000,613.889,16.667,N
1626,-0.155,1.295,-0.060,175.000,80.556,330.556,661.111,47.222,N
1627,-0.005,1.210,0.345,58.333,111.111,127.778,450.000,211.111,V
1628,-0.140,1.455,0.055,58.333,77.778,372.222,902.778,452.778,N
1629,-0.100,1.375,-0.040,197.222,66.667,325.000,722.222,180.556,N
1630,-0.030,1.155,0.350,63.889,116.667,127.778,497.222,225.000,V
1631,-0.035,1.770,0.065,63.889,100.000,336.111,947.222,450.000,N
1632,-0.050,1.400,-0.010,75.000,102.778,336.111,691.667,255.556,N
1633,-0.045,1.370,0.030,105.556,100.000,372.222,658.333,33.333,N
1634,0.065,1.155,0.345,52.778,91.667,116.667,463.889,194.444,V
1635,-0.090,1.430,-0.040,38.889,88.889,338.889,1011.111,547.222,N
1636,-0.065,1.565,0.045,69.444,83.333,361.111,911.111,100.000,N
1637,0.005,1.410,0.075,91.667,63.889,280.556,677.778,233.333,N
1638,-0.015,1.510,0.035,119.444,66.667,322.222,641.667,36.111,N
1639,-0.085,1.460,-0.010,41.667,55.556,308.333,705.556,63.889,N
1640,0.000,1.195,0.370,58.333,108.333,125.000,433.333,272.222,V
1641,-0.135,1.370,-0.005,75.000,77.778,344.444,883.333,450.000,N
1642,-0.170,1.420,-0.040,44.444,61.111,325.000,852.778,30.556,N
1643,-0.125,1.445,-0.040,177.778,77.778,341.667,697.222,155.556,N
1644,-0.240,1.300,-0.155,94.444,83.333,358.333,1119.444,422.222,N
1645,-0.215,1.375,-0.150,186.111,86.111,319.444,941.667,177.778,N
1646,-0.210,1.615,-0.030,63.889,80.556,319.444,880.556,61.111,N
1647,-0.190,1.550,-0.040,191.667,72.222,322.222,688.889,191.667,N
1648,-0.220,1.665,-0.140,52.778,66.667,288.889,661.111,27.778,N
1649,-0.325,1.565,-0.175,75.000,77.778,327.778,808.333,147.222,N
1650,-0.215,1.570,-0.075,61.111,77.778,338.889,852.778,44.444,N
1651,-0.060,1.320,0.350,58.333,105.556,122.222,452.778,400.000,V
1652,-0.255,1.510,-0.040,72.222,83.333,352.778,922.222,469.444,N
1653,-0.200,1.505,-0.160,186.111,72.222,338.889,700.000,222.222,N
1654,-0.275,1.410,-0.115,91.667,77.778,341.667,688.889,11.111,N
1655,-0.060,1.220,0.435,58.333,105.556,122.222,505.556,183.333,V
1656,-0.195,1.465,0.045,177.778,83.333,361.111,747.222,241.667,N
1657,-0.090,1.545,-0.065,144.444,77.778,325.000,613.889,133.333,N
1658,-0.170,1.625,0.030,44.444,58.333,330.556,913.889,300.000,N
1659,-0.065,1.465,-0.080,197.222,69.444,322.222,644.444,269.444,N
1660,-0.265,1.440,-0.185,133.333,83.333,355.556,613.889,30.556,N
1661,-0.210,0.975,0.390,58.333,111.111,133.333,555.556,58.333,V
1662,-0.230,1.415,-0.035,75.000,75.000,361.111,1266.667,711.111,N
1663,-0.270,1.340,-0.140,72.222,66.667,336.111,1213.889,52.778,N
1664,-0.290,1.455,-0.085,130.556,77.778,305.556,641.667,572.222,N
1665,-0.230,1.545,-0.145,177.778,75.000,311.111,630.556,11.111,N
1666,-0.250,1.545,-0.095,61.111,80.556,341.667,1186.111,555.556,N
1667,-0.260,1.390,-0.150,172.222,75.000,325.000,675.000,511.111,N
1668,-0.290,1.500,-0.180,183.333,80.556,355.556,727.778,52.778,N
1669,-0.265,1.495,-0.140,86.111,83.333,355.556,852.778,125.000,N
1670,-0.280,1.465,-0.190,172.222,69.444,308.333,686.111,166.667,N
1671,-0.250,1.400,-0.065,58.333,83.333,338.889,797.222,111.111,N
1672,-0.045,0.965,0.300,58.333,108.333,119.444,511.111,286.111,V
1673,-0.230,1.315,-0.120,83.333,83.333,338.889,872.222,361.111,N
1674,-0.095,1.280,0.205,58.333,108.333,122.222,452.778,419.444,V
1675,-0.275,1.245,-0.125,61.111,83.333,347.222,788.889,336.111,N
1676,-0.285,1.330,-0.245,72.222,72.222,327.778,661.111,127.778,N
1677,-0.295,1.295,-0.235,111.111,77.778,355.556,622.222,38.889,N
1678,-0.235,1.055,0.300,63.889,113.889,122.222,536.111,86.111,V
1679,-0.270,1.435,-0.105,86.111,83.333,355.556,836.111,300.000,N
1680,-0.230,1.375,-0.255,188.889,69.444,322.222,672.222,163.889,N
1681,-0.190,1.445,-0.050,105.556,113.889,352.778,1163.889,491.667,N
1682,-0.200,1.595,-0.105,47.222,97.222,325.000,944.444,219.444,N
1683,-0.245,1.515,-0.130,63.889,113.889,338.889,850.000,94.444,N
1684,-0.090,1.225,0.230,58.333,113.889,130.556,491.667,358.333,V
1685,-0.150,1.550,0.010,55.556,102.778,322.222,900.000,408.333,N
1686,-0.195,1.670,-0.095,69.444,113.889,338.889,1127.778,227.778,N
1687,-0.140,1.685,-0.020,116.667,66.667,291.667,611.111,516.667,N
1688,-0.155,1.800,-0.040,163.889,102.778,305.556,625.000,13.889,N
1689,-0.050,1.400,0.565,177.778,111.111,125.000,466.667,158.333,V
1690,-0.270,1.520,-0.075,116.667,113.889,366.667,730.556,263.889,N
1691,-0.170,1.545,-0.110,94.444,97.222,338.889,727.778,2.778,N
1692,-0.040,1.200,0.500,58.333,105.556,130.556,513.889,213.889,V
1693,-0.095,1.635,0.065,44.444,86.111,325.000,847.222,333.333,N
1694,-0.110,1.630,-0.120,138.889,83.333,336.111,694.444,152.778,N
1695,-0.165,1.390,-0.085,55.556,72.222,333.333,769.444,75.000,N
1696,-0.075,1.215,0.230,58.333,102.778,119.444,444.444,325.000,V
1697,-0.170,1.345,-0.040,77.778,83.333,344.444,844.444,400.000,N
1698,-0.170,1.330,-0.095,108.333,58.333,291.667,661.111,183.333,N
1699,-0.180,1.385,-0.055,97.222,113.889,358.333,888.889,227.778,N
1700,-0.160,1.310,-0.065,158.333,77.778,358.333,711.111,177.778,N
1701,-0.185,1.350,-0.085,80.556,83.333,341.667,675.000,36.111,N
1702,-0.180,1.195,-0.095,58.333,108.333,327.778,775.000,100.000,N
1703,-0.030,1.130,0.275,55.556,105.556,125.000,450.000,325.000,V
1704,-0.285,1.165,-0.100,69.444,83.333,338.889,811.111,361.111,N
1705,-0.155,1.385,-0.075,105.556,83.333,302.778,736.111,75.000,N
1706,-0.050,1.140,0.425,55.556,102.778,116.667,486.111,250.000,V
1707,-0.145,1.370,0.005,55.556,108.333,361.111,833.333,347.222,N
1708,-0.070,1.490,0.015,38.889,94.444,327.778,1183.333,350.000,N
1709,-0.120,1.295,-0.045,177.778,75.000,338.889,733.333,450.000,N
1710,-0.145,1.310,-0.045,133.333,83.333,341.667,738.889,5.556,N
1711,-0.090,1.415,0.035,130.556,116.667,325.000,1150.000,411.111,N
1712,-0.115,1.385,-0.020,166.667,83.333,308.333,650.000,500.000,N
1713,-0.095,1.390,0.050,86.111,113.889,322.222,786.111,136.111,N
1714,0.050,1.275,0.315,183.333,105.556,125.000,447.222,338.889,V
1715,-0.075,1.305,0.070,136.111,100.000,386.111,1555.556,1108.333,N
1716,-0.160,1.155,-0.090,52.778,100.000,355.556,1216.667,338.889,N
1717,-0.200,1.215,-0.090,194.444,80.556,308.333,772.222,444.444,N
1718,-0.055,1.195,0.265,58.333,105.556,122.222,452.778,319.444,V
1719,-0.065,1.410,-0.005,66.667,80.556,338.889,866.667,413.889,N
1720,-0.100,1.310,-0.030,100.000,116.667,352.778,869.444,2.778,N
1721,-0.005,1.220,0.290,61.111,108.333,122.222,444.444,425.000,V
1722,0.400,1.795,-0.360,58.333,111.111,405.556,858.333,413.889,V
1723,-0.140,1.250,-0.045,63.889,83.333,358.333,925.000,66.667,N
1724,-0.095,1.180,-0.100,188.889,75.000,327.778,675.000,250.000,N
1725,-0.170,1.130,-0.055,66.667,80.556,341.667,677.778,2.778,N
1726,0.020,1.045,0.240,58.333,108.333,125.000,477.778,200.000,V
1727,-0.040,1.285,0.060,55.556,100.000,341.667,813.889,336.111,N
1728,-0.090,1.235,0.020,169.444,113.889,338.889,894.444,80.556,N
1729,0.055,1.200,0.305,58.333,108.333,122.222,447.222,447.222,V
1730,-0.035,1.200,0.065,66.667,113.889,369.444,919.444,472.222,N
1731,-0.050,1.205,-0.025,158.333,77.778,358.333,702.778,216.667,N
1732,-0.115,1.200,0.060,69.444,116.667,358.333,1361.111,658.333,N
1733,-0.030,1.255,0.075,61.111,111.111,338.889,1327.778,33.333,N
1734,-0.055,1.185,-0.020,66.667,80.556,311.111,622.222,705.556,N
1735,-0.040,1.310,0.110,66.667,116.667,358.333,1013.889,391.667,N
1736,0.045,1.360,0.140,61.111,111.111,358.333,1161.111,147.222,N
1737,0.035,1.320,0.135,55.556,80.556,338.889,680.556,480.556,N
1738,0.010,1.220,0.090,52.778,72.222,355.556,730.556,50.000,N
1739,0.185,1.275,0.335,58.333,111.111,125.000,486.111,244.444,V
1740,0.085,1.440,0.220,58.333,108.333,338.889,1150.000,663.889,N
1741,0.050,1.380,0.060,197.222,83.333,344.444,672.222,477.778,N
1742,-0.030,1.265,0.060,75.000,75.000,325.000,691.667,19.444,N
1743,0.065,1.250,0.320,58.333,108.333,125.000,455.556,236.111,V
1744,-0.045,1.380,0.165,116.667,116.667,372.222,1122.222,666.667,N
1745,-0.015,1.345,0.090,86.111,113.889,372.222,1316.667,194.444,N
1746,-0.060,1.330,0.015,136.111,66.667,319.444,736.111,580.556,N
1747,-0.145,1.215,-0.015,55.556,100.000,325.000,800.000,63.889,N
1748,-0.015,1.295,0.245,147.222,111.111,122.222,441.667,358.333,V
1749,-0.095,1.345,0.095,63.889,116.667,358.333,1119.444,677.778,N
1750,-0.055,1.325,-0.050,191.667,72.222,344.444,672.222,447.222,N
1751,-0.155,1.425,-0.075,63.889,83.333,341.667,625.000,47.222,N
1752,-0.215,1.230,-0.115,58.333,83.333,344.444,958.333,333.333,N
1753,-0.115,1.390,0.020,66.667,83.333,355.556,894.444,63.889,N
1754,-0.080,1.315,0.010,61.111,61.111,308.333,725.000,169.444,N
1755,0.030,1.185,0.290,58.333,111.111,122.222,463.889,261.111,V
1756,-0.095,1.400,0.060,55.556,108.333,341.667,800.000,336.111,N
1757,-0.125,1.355,-0.030,58.333,102.778,327.778,863.889,63.889,N
1758,-0.030,1.230,0.315,166.667,108.333,122.222,447.222,416.667,V
1759,-0.100,1.260,0.075,61.111,80.556,372.222,875.000,427.778,N
1760,-0.115,1.300,-0.060,72.222,102.778,372.222,991.667,116.667,N
1761,-0.120,1.345,0.010,66.667,83.333,338.889,697.222,294.444,N
1762,-0.110,1.340,0.025,55.556,72.222,341.667,719.444,22.222,N
1763,0.025,1.250,0.390,180.556,108.333,125.000,475.000,244.444,V
1764,-0.155,1.255,0.020,125.000,75.000,322.222,813.889,338.889,N
1765,-0.110,1.165,-0.125,194.444,100.000,327.778,600.000,213.889,N
1766,-0.155,1.075,-0.040,77.778,80.556,338.889,683.333,83.333,N
1767,0.015,1.225,0.285,58.333,113.889,127.778,477.778,205.556,V
1768,-0.200,1.165,-0.015,144.444,75.000,341.667,855.556,377.778,N
1769,-0.150,1.250,-0.075,69.444,72.222,327.778,811.111,44.444,N
1770,-0.180,1.210,-0.120,130.556,83.333,338.889,725.000,86.111,N
1771,-0.100,1.120,0.235,58.333,108.333,125.000,480.556,244.444,V
1772,-0.235,1.185,-0.115,61.111,80.556,338.889,800.000,319.444,N
1773,-0.265,1.180,-0.200,177.778,58.333,308.333,630.556,169.444,N
1774,-0.180,1.260,-0.025,63.889,80.556,325.000,752.778,122.222,N
1775,-0.025,1.200,0.235,158.333,108.333,125.000,430.556,322.222,V
1776,-0.170,1.290,0.040,113.889,83.333,355.556,922.222,491.667,N
1777,-0.100,1.350,-0.045,144.444,77.778,361.111,677.778,244.444,N
1778,-0.100,1.385,-0.015,58.333,72.222,355.556,697.222,19.444,N
1779,-0.115,1.365,0.000,58.333,83.333,347.222,852.778,155.556,N
1780,-0.120,1.335,-0.065,147.222,77.778,338.889,733.333,119.444,N
1781,-0.090,1.275,-0.020,38.889,52.778,272.222,711.111,22.222,N
1782,-0.120,1.315,-0.040,172.222,72.222,327.778,700.000,11.111,N
1783,-0.100,1.410,0.085,52.778,72.222,322.222,916.667,216.667,N
1784,-0.050,1.465,0.045,58.333,75.000,355.556,1369.444,452.778,N
1785,-0.315,1.140,-0.150,63.889,86.111,344.444,1572.222,202.778,N
1786,-0.240,1.275,-0.050,58.333,75.000,308.333,691.667,880.556,N
1787,-0.085,1.010,0.315,188.889,108.333,125.000,463.889,227.778,V
1788,-0.145,1.320,-0.015,91.667,61.111,325.000,969.444,505.556,N
1789,-0.125,1.215,-0.150,155.556,83.333,336.111,613.889,355.556,N
1790,-0.230,1.400,-0.130,100.000,80.556,322.222,597.222,16.667,N
1791,-0.155,1.310,-0.080,58.333,91.667,341.667,1305.556,708.333,N
1792,-0.180,1.455,-0.050,152.778,111.111,352.778,1175.000,130.556,N
1793,-0.120,1.370,-0.015,150.000,80.556,308.333,650.000,525.000,N
1794,-0.155,1.335,-0.015,61.111,80.556,341.667,713.889,63.889,N
1795,-0.015,1.215,0.320,169.444,108.333,122.222,452.778,261.111,V
1796,-0.095,1.405,-0.010,61.111,77.778,341.667,1011.111,558.333,N
1797,-0.250,1.160,-0.160,58.333,77.778,325.000,1111.111,100.000,N
1798,-0.245,1.340,-0.095,66.667,80.556,333.333,611.111,500.000,N
1799,-0.210,1.510,-0.105,58.333,72.222,341.667,655.556,44.444,N
1800,-0.215,1.380,-0.120,108.333,77.778,361.111,666.667,11.111,N
1801,-0.065,1.170,0.295,58.333,111.111,127.778,483.333,183.333,V
1802,-0.175,1.300,0.000,44.444,61.111,325.000,869.444,386.111,N
1803,-0.100,1.440,-0.070,155.556,77.778,313.889,644.444,225.000,N
1804,-0.120,1.520,-0.035,150.000,80.556,311.111,611.111,33.333,N
1805,-0.160,1.335,-0.110,119.444,66.667,319.444,702.778,91.667,N
1806,-0.195,1.345,-0.075,161.111,75.000,338.889,655.556,47.222,N
1807,-0.180,1.460,-0.075,119.444,83.333,355.556,625.000,30.556,N
1808,-0.165,1.395,-0.105,147.222,61.111,336.111,647.222,22.222,N
1809,-0.240,1.215,-0.110,58.333,75.000,325.000,808.333,161.111,N
1810,-0.165,1.430,-0.070,194.444,80.556,325.000,738.889,69.444,N
1811,-0.145,1.420,-0.010,55.556,105.556,325.000,925.000,186.111,N
1812,-0.145,1.465,-0.080,50.000,66.667,305.556,597.222,327.778,N
1813,-0.220,1.335,-0.150,86.111,72.222,325.000,619.444,22.222,N
1814,-0.185,1.410,-0.055,55.556,72.222,322.222,802.778,183.333,N
1815,-0.160,1.340,-0.055,55.556,72.222,341.667,713.889,88.889,N
1816,-0.135,1.355,0.030,58.333,108.333,358.333,1136.111,422.222,N
1817,-0.150,1.425,-0.045,61.111,80.556,341.667,1252.778,116.667,N
1818,-0.110,1.560,0.040,102.778,66.667,325.000,722.222,530.556,N
1819,0.005,1.265,0.440,61.111,108.333,125.000,497.222,225.000,V
1820,-0.125,1.415,0.045,58.333,77.778,341.667,727.778,230.556,N
1821,-0.100,1.395,-0.030,150.000,69.444,327.778,672.222,55.556,N
1822,-0.160,1.385,-0.010,66.667,80.556,355.556,883.333,211.111,N
1823,-0.085,1.525,0.005,113.889,63.889,341.667,697.222,186.111,N
1824,-0.095,1.435,0.070,52.778,105.556,358.333,1194.444,497.222,N
1825,-0.085,1.565,-0.005,186.111,63.889,322.222,725.000,469.444,N
1826,-0.115,1.375,-0.030,72.222,69.444,325.000,1052.778,327.778,N
1827,-0.100,1.320,0.010,66.667,116.667,358.333,1194.444,141.667,N
1828,-0.070,1.340,0.045,130.556,77.778,322.222,647.222,547.222,N
1829,-0.080,1.350,0.065,86.111,86.111,352.778,641.667,5.556,N
1830,-0.075,1.345,0.005,158.333,80.556,344.444,905.556,263.889,N
1831,-0.080,1.505,0.010,177.778,77.778,361.111,733.333,172.222,N
1832,-0.085,1.475,0.010,100.000,66.667,322.222,872.222,138.889,N
1833,-0.105,1.465,0.035,58.333,77.778,325.000,927.778,55.556,N
1834,0.035,1.340,0.265,161.111,108.333,119.444,433.333,494.444,V
1835,-0.080,1.510,0.095,102.778,83.333,375.000,1305.556,872.222,N
1836,-0.095,1.435,-0.025,61.111,61.111,311.111,741.667,563.889,N
1837,-0.150,1.425,-0.040,102.778,83.333,355.556,891.667,150.000,N
1838,-0.195,1.260,-0.085,194.444,61.111,308.333,758.333,133.333,N
1839,-0.085,0.100,0.610,150.000,116.667,352.778,425.000,333.333,V
1840,-0.200,1.320,-0.040,127.778,80.556,361.111,1077.778,652.778,N
1841,-0.185,1.305,-0.115,194.444,58.333,308.333,680.556,397.222,N
1842,-0.185,1.090,-0.100,66.667,100.000,341.667,888.889,208.333,N
1843,-0.225,1.170,-0.105,130.556,77.778,338.889,630.556,258.333,N
1844,-0.195,1.340,-0.080,169.444,83.333,355.556,672.222,41.667,N
1845,-0.155,1.405,0.000,80.556,66.667,372.222,1330.556,658.333,N
1846,-0.135,1.400,-0.080,52.778,108.333,311.111,1305.556,25.000,N
1847,-0.205,1.460,-0.060,161.111,72.222,308.333,636.111,669.444,N
1848,-0.260,1.180,-0.150,75.000,61.111,311.111,830.556,194.444,N
1849,-0.245,1.155,-0.090,75.000,72.222,308.333,666.667,163.889,N
1850,-0.200,1.385,-0.090,108.333,75.000,341.667,633.333,33.333,N
1851,-0.230,1.285,-0.105,61.111,80.556,375.000,752.778,119.444,N
1852,-0.250,1.180,-0.175,188.889,75.000,341.667,694.444,58.333,N
1853,-0.240,1.385,-0.090,141.667,77.778,358.333,702.778,8.333,N
1854,-0.215,1.330,-0.110,158.333,102.778,338.889,866.667,163.889,N
1855,-0.165,1.165,-0.070,69.444,116.667,355.556,1244.444,377.778,N
1856,-0.210,1.250,-0.095,47.222,66.667,322.222,711.111,533.333,N
1857,-0.095,1.115,0.260,177.778,111.111,125.000,458.333,252.778,V
1858,-0.235,1.310,-0.060,69.444,86.111,383.333,1183.333,725.000,N
1859,-0.260,1.195,-0.175,66.667,86.111,338.889,761.111,422.222,N
1860,-0.240,1.275,-0.135,61.111,77.778,325.000,691.667,69.444,N
1861,-0.105,1.125,0.335,58.333,108.333,127.778,483.333,208.333,V
1862,-0.245,1.180,-0.105,58.333,75.000,325.000,833.333,350.000,N
