id,Pamp,Ramp,Tamp,PR,QRS,QT,RRI,dRRI,label
1,-0.065,1.145,0.055,141.667,100.000,386.111,561.111,75.000,N
2,0.055,0.815,-0.190,61.111,88.889,227.778,388.889,172.222,N
3,-0.390,1.125,-0.325,116.667,111.111,358.333,744.444,355.556,N
4,-0.040,1.465,0.020,47.222,97.222,247.222,591.667,152.778,N
5,0.415,1.900,0.505,136.111,102.778,302.778,655.556,63.889,N
6,0.665,1.620,0.985,63.889,88.889,191.667,430.556,225.000,N
7,0.840,1.530,0.565,100.000,113.889,336.111,633.333,202.778,N
8,0.590,-1.115,1.085,52.778,2.778,194.444,413.889,219.444,V
9,1.085,-1.430,0.605,130.556,0.000,219.444,325.000,88.889,V
10,0.605,1.095,0.235,197.222,108.333,388.889,416.667,91.667,N
11,0.235,1.330,0.250,52.778,88.889,350.000,391.667,25.000,N
12,0.250,1.290,0.085,50.000,91.667,247.222,369.444,22.222,N
13,0.085,1.340,-0.215,177.778,108.333,244.444,391.667,22.222,N
14,-0.415,1.050,-0.120,127.778,111.111,341.667,541.667,150.000,N
15,0.050,1.765,1.085,138.889,113.889,402.778,569.444,27.778,N
16,0.095,1.390,0.010,113.889,100.000,263.889,363.889,205.556,N
17,-0.025,1.830,0.530,63.889,113.889,391.667,694.444,330.556,N
18,0.530,-0.465,1.260,50.000,0.000,211.111,386.111,308.333,V
19,1.260,1.785,0.230,175.000,105.556,275.000,388.889,2.778,N
20,0.150,1.140,0.100,58.333,116.667,277.778,675.000,286.111,N
21,0.490,-1.115,-0.020,33.333,0.000,252.778,844.444,169.444,V
22,-0.010,0.690,0.160,72.222,88.889,200.000,505.556,338.889,N
23,0.075,1.125,-0.075,197.222,116.667,255.556,380.556,125.000,N
24,-0.485,0.955,-0.855,194.444,116.667,269.444,619.444,238.889,N
25,-0.865,0.920,-0.950,141.667,100.000,238.889,458.333,161.111,N
26,-0.810,1.105,-0.485,58.333,105.556,344.444,519.444,61.111,N
27,-0.190,1.690,0.160,58.333,105.556,391.667,597.222,77.778,N
28,0.160,1.715,0.310,61.111,113.889,258.333,402.778,194.444,N
29,0.195,1.830,0.135,61.111,113.889,386.111,655.556,252.778,N
30,0.135,1.935,0.020,141.667,108.333,313.889,472.222,183.333,N
31,-0.245,1.295,-0.250,69.444,113.889,386.111,650.000,177.778,N
32,-0.285,1.360,-0.285,91.667,111.111,283.333,769.444,119.444,N
33,-0.315,1.585,-0.290,119.444,113.889,269.444,647.222,122.222,N
34,-0.310,1.120,-0.165,69.444,113.889,272.222,930.556,283.333,N
35,-0.235,1.135,-0.300,141.667,111.111,280.556,855.556,75.000,N
36,-0.390,1.125,0.340,191.667,113.889,402.778,452.778,402.778,N
37,-0.390,1.015,-0.300,161.111,113.889,258.333,366.667,86.111,N
38,-0.470,1.420,-0.480,183.333,116.667,391.667,755.556,388.889,N
39,-0.345,1.380,-0.220,61.111,105.556,275.000,438.889,316.667,N
40,0.070,2.015,0.235,58.333,116.667,400.000,636.111,197.222,N
41,0.160,1.890,-0.255,188.889,116.667,336.111,930.556,294.444,N
42,-0.155,1.890,-0.065,58.333,116.667,297.222,661.111,269.444,N
43,-0.105,1.970,0.450,69.444,116.667,405.556,500.000,161.111,N
44,0.245,1.815,0.390,166.667,116.667,275.000,383.333,116.667,N
45,0.250,1.985,0.175,122.222,116.667,391.667,666.667,283.333,N
46,0.015,1.825,-0.075,108.333,113.889,347.222,775.000,108.333,N
47,-0.140,1.700,-0.095,58.333,113.889,277.778,602.778,172.222,N
48,-0.385,1.560,-0.250,75.000,108.333,377.778,913.889,311.111,N
49,-0.185,1.710,-0.285,100.000,116.667,269.444,925.000,11.111,N
50,-0.520,1.520,-0.400,163.889,113.889,291.667,697.222,227.778,N
51,-0.165,1.855,0.010,58.333,116.667,300.000,725.000,27.778,N
52,0.135,2.050,0.190,86.111,113.889,288.889,863.889,138.889,N
53,0.205,2.140,0.255,122.222,111.111,277.778,569.444,294.444,N
54,0.160,1.895,0.175,197.222,111.111,255.556,444.444,125.000,N
55,0.110,1.925,-0.030,58.333,113.889,319.444,719.444,275.000,N
56,-0.205,1.685,-0.285,163.889,108.333,266.667,691.667,27.778,N
57,-0.380,1.665,-0.270,63.889,113.889,288.889,636.111,55.556,N
58,-0.205,1.775,-0.175,69.444,113.889,319.444,655.556,19.444,N
59,-0.180,1.990,-0.170,77.778,116.667,297.222,575.000,80.556,N
60,-0.095,1.820,-0.060,63.889,116.667,377.778,950.000,375.000,N
61,-0.090,1.785,-0.465,197.222,111.111,277.778,658.333,291.667,N
62,-0.585,1.550,-0.345,63.889,113.889,388.889,661.111,2.778,N
63,-0.080,1.990,0.120,63.889,113.889,291.667,763.889,102.778,N
64,0.275,2.215,0.215,61.111,116.667,286.111,830.556,66.667,N
65,0.155,2.110,0.140,191.667,105.556,397.222,547.222,283.333,N
66,0.110,1.500,-0.160,169.444,113.889,375.000,388.889,158.333,N
67,-0.130,1.545,-0.120,58.333,116.667,383.333,880.556,491.667,N
68,-0.145,1.770,-0.250,175.000,113.889,297.222,533.333,347.222,N
69,-0.375,1.580,-0.560,69.444,113.889,302.778,541.667,8.333,N
70,-0.375,1.455,-0.165,86.111,105.556,400.000,833.333,291.667,N
71,-0.165,-1.355,0.915,38.889,0.000,197.222,386.111,447.222,V
72,0.190,1.575,-0.220,183.333,100.000,136.111,658.333,272.222,N
73,-0.135,1.170,0.265,72.222,100.000,405.556,813.889,155.556,N
74,0.105,0.135,1.215,41.667,86.111,286.111,352.778,461.111,V
75,1.215,-1.440,1.480,111.111,13.889,205.556,366.667,13.889,V
76,1.480,-1.445,1.320,130.556,2.778,183.333,327.778,38.889,V
77,0.490,1.560,0.275,119.444,91.667,397.222,827.778,500.000,N
78,0.320,-1.300,1.365,80.556,2.778,213.889,430.556,397.222,V
79,-0.160,0.715,-0.430,122.222,108.333,247.222,616.667,186.111,N
80,-0.155,0.080,0.145,61.111,72.222,244.444,752.778,136.111,N
81,0.160,0.565,0.480,52.778,55.556,272.222,852.778,100.000,N
82,0.365,1.305,0.425,161.111,116.667,247.222,569.444,283.333,N
83,0.155,1.125,0.240,69.444,116.667,255.556,575.000,5.556,N
84,-0.050,1.205,-0.085,75.000,116.667,275.000,750.000,175.000,N
85,-0.210,1.245,-0.180,119.444,113.889,283.333,569.444,180.556,N
86,-0.180,0.875,0.030,169.444,116.667,405.556,397.222,172.222,N
87,-0.345,0.925,-0.515,175.000,116.667,266.667,372.222,25.000,N
88,-0.460,1.265,-0.385,58.333,116.667,380.556,969.444,597.222,N
89,0.050,-2.560,0.480,36.111,2.778,225.000,422.222,547.222,V
90,-0.505,0.615,-0.490,58.333,108.333,305.556,575.000,152.778,N
91,-0.515,0.350,-0.700,197.222,113.889,288.889,538.889,36.111,N
92,-0.705,0.490,0.745,188.889,86.111,377.778,441.667,97.222,N
93,-0.410,0.855,1.280,44.444,88.889,377.778,355.556,86.111,N
94,-0.250,1.360,0.060,63.889,113.889,255.556,352.778,2.778,N
95,0.170,1.950,0.525,72.222,111.111,405.556,525.000,172.222,N
96,0.480,1.760,1.965,61.111,100.000,388.889,375.000,150.000,N
97,0.390,1.965,1.825,125.000,116.667,394.444,347.222,27.778,N
98,0.295,1.825,1.390,125.000,116.667,405.556,336.111,11.111,N
99,0.095,1.595,-0.035,88.889,116.667,286.111,358.333,22.222,N
100,-0.300,1.370,-0.505,133.333,113.889,400.000,827.778,469.444,N
101,-0.150,-2.390,0.165,33.333,2.778,202.778,430.556,397.222,V
102,0.165,-1.020,0.040,113.889,0.000,30.556,313.889,116.667,V
103,-0.260,1.355,0.055,197.222,116.667,350.000,461.111,147.222,N
104,0.055,-0.815,1.155,36.111,2.778,350.000,327.778,133.333,V
105,0.470,1.405,1.640,144.444,94.444,383.333,361.111,33.333,N
106,0.140,1.635,0.255,144.444,116.667,402.778,350.000,11.111,N
107,0.065,1.450,1.400,172.222,108.333,375.000,377.778,27.778,N
108,-0.030,1.375,1.210,133.333,116.667,375.000,327.778,50.000,N
109,-0.185,1.165,-0.265,122.222,113.889,258.333,322.222,5.556,N
110,-0.155,1.010,0.110,75.000,105.556,402.778,1052.778,730.556,N
111,0.060,0.995,1.575,97.222,77.778,275.000,372.222,680.556,V
112,-0.345,0.695,-0.250,58.333,111.111,375.000,677.778,305.556,N
113,-0.250,-1.860,0.495,41.667,0.000,200.000,358.333,319.444,V
114,-0.335,1.310,-0.290,58.333,116.667,347.222,844.444,486.111,N
115,-0.290,1.060,-0.095,119.444,97.222,377.778,422.222,422.222,N
116,-0.320,0.920,0.590,163.889,116.667,405.556,377.778,44.444,N
117,-0.275,0.770,-0.100,136.111,86.111,213.889,355.556,22.222,N
118,0.015,1.505,0.135,88.889,111.111,302.778,652.778,297.222,N
119,0.135,1.565,1.355,50.000,94.444,361.111,441.667,211.111,N
120,0.060,1.340,-0.010,141.667,113.889,250.000,327.778,113.889,N
121,-0.245,1.320,-0.100,102.778,113.889,397.222,830.556,502.778,N
122,-0.100,-1.180,0.225,50.000,2.778,186.111,388.889,441.667,V
123,-0.470,1.050,-0.370,91.667,113.889,383.333,647.222,258.333,N
124,-0.240,1.415,-0.170,58.333,116.667,291.667,908.333,261.111,N
125,-0.115,1.690,-0.025,58.333,116.667,402.778,833.333,75.000,N
126,-0.025,-0.650,0.950,66.667,22.222,219.444,411.111,422.222,V
127,0.950,0.405,0.105,183.333,72.222,197.222,391.667,19.444,V
128,-0.570,0.905,-0.425,91.667,105.556,397.222,638.889,247.222,N
129,-0.220,0.875,-0.135,47.222,69.444,372.222,425.000,213.889,N
130,0.135,1.320,0.570,80.556,111.111,363.889,677.778,252.778,N
131,0.430,1.510,-0.130,194.444,113.889,269.444,836.111,158.333,N
132,-0.385,1.310,-0.160,58.333,108.333,283.333,861.111,25.000,N
133,-0.120,-0.930,0.945,44.444,0.000,211.111,400.000,461.111,V
134,0.265,1.610,0.285,58.333,108.333,300.000,683.333,283.333,N
135,0.230,1.705,0.230,58.333,108.333,280.556,650.000,33.333,N
136,0.125,1.575,0.010,197.222,116.667,283.333,513.889,136.111,N
137,-0.170,1.325,-0.280,194.444,113.889,275.000,625.000,111.111,N
138,-0.335,1.305,-0.460,66.667,108.333,247.222,452.778,172.222,N
139,-0.690,1.155,-0.485,61.111,116.667,397.222,877.778,425.000,N
140,-0.450,1.325,-0.380,69.444,111.111,252.778,494.444,383.333,N
141,-0.375,1.285,-0.495,183.333,113.889,291.667,738.889,244.444,N
142,-0.360,1.510,-0.145,63.889,113.889,269.444,769.444,30.556,N
143,-0.045,1.310,0.320,58.333,111.111,255.556,605.556,163.889,N
144,0.285,1.315,0.250,58.333,116.667,291.667,863.889,258.333,N
145,0.365,-1.025,0.810,41.667,0.000,225.000,422.222,441.667,V
146,-0.005,1.410,-0.005,197.222,116.667,294.444,738.889,316.667,N
147,-0.175,1.410,-0.140,161.111,116.667,258.333,666.667,72.222,N
148,-0.375,0.740,-0.305,158.333,116.667,347.222,913.889,247.222,N
149,-0.360,1.215,-0.255,63.889,116.667,283.333,755.556,158.333,N
150,-0.345,1.245,-0.275,194.444,105.556,258.333,441.667,313.889,N
151,-0.330,1.445,-0.270,69.444,116.667,336.111,650.000,208.333,N
152,-0.205,1.795,-0.155,133.333,116.667,308.333,758.333,108.333,N
153,-0.240,1.370,-0.160,58.333,105.556,277.778,591.667,166.667,N
154,-0.340,0.740,-0.145,69.444,116.667,405.556,711.111,119.444,N
155,-0.125,-1.490,0.550,58.333,2.778,205.556,408.333,302.778,V
156,0.550,-1.430,0.650,177.778,0.000,175.000,380.556,27.778,V
157,0.620,0.675,-0.240,197.222,100.000,222.222,377.778,2.778,V
158,-0.285,1.530,0.010,100.000,116.667,405.556,997.222,619.444,N
159,-0.165,0.525,1.830,130.556,105.556,288.889,363.889,633.333,V
160,-0.285,0.890,-0.055,72.222,108.333,322.222,1088.889,725.000,N
161,0.070,-1.050,0.550,30.556,0.000,244.444,425.000,663.889,a
162,0.550,0.505,0.235,152.778,83.333,355.556,397.222,27.778,N
163,0.235,1.130,-0.185,66.667,108.333,391.667,388.889,8.333,N
164,-0.145,0.895,0.125,161.111,116.667,358.333,730.556,341.667,N
165,0.335,-1.105,1.155,55.556,2.778,197.222,425.000,305.556,V
166,1.155,-0.895,1.055,147.222,16.667,194.444,344.444,80.556,V
167,-0.065,1.290,0.080,130.556,113.889,377.778,750.000,405.556,N
168,0.080,-1.080,1.175,41.667,2.778,347.222,363.889,386.111,a
169,0.450,1.360,0.010,130.556,100.000,388.889,355.556,8.333,N
170,-0.070,1.355,-0.190,66.667,105.556,361.111,383.333,27.778,N
171,-0.190,0.960,-0.280,111.111,116.667,241.667,413.889,30.556,N
172,-0.280,1.255,-0.060,69.444,116.667,358.333,602.778,188.889,N
173,0.235,1.915,1.590,33.333,52.778,191.667,555.556,47.222,|
174,2.050,1.590,-0.175,175.000,116.667,394.444,166.667,388.889,N
175,-0.225,-0.180,0.925,97.222,69.444,272.222,338.889,172.222,V
176,0.925,0.250,-0.145,25.000,66.667,277.778,261.111,77.778,|
177,-0.145,1.115,-0.115,150.000,113.889,288.889,411.111,150.000,N
178,-0.115,0.125,-0.065,169.444,102.778,400.000,400.000,11.111,N
179,-0.020,1.085,0.095,144.444,100.000,258.333,644.444,244.444,N
180,0.300,0.680,0.390,47.222,91.667,216.667,683.333,38.889,N
181,0.600,0.780,0.350,44.444,86.111,205.556,630.556,52.778,N
182,0.350,-2.245,1.085,175.000,2.778,194.444,350.000,280.556,V
183,1.085,-2.360,1.105,100.000,0.000,188.889,291.667,58.333,V
184,1.105,-2.400,0.970,144.444,0.000,175.000,333.333,41.667,V
185,-0.165,0.765,-0.025,66.667,116.667,300.000,761.111,427.778,N
186,-0.205,0.310,0.055,52.778,77.778,202.778,669.444,91.667,N
187,-0.225,0.205,0.015,50.000,80.556,211.111,652.778,16.667,N
188,0.015,-2.480,0.710,186.111,2.778,219.444,366.667,286.111,V
189,0.710,-2.055,0.160,127.778,2.778,222.222,344.444,22.222,V
190,0.220,0.515,-0.190,47.222,86.111,211.111,405.556,61.111,N
191,-0.300,0.415,-0.040,58.333,111.111,252.778,552.778,147.222,N
192,0.035,-0.780,0.160,19.444,0.000,186.111,511.111,41.667,N
193,0.160,-1.035,0.415,163.889,0.000,25.000,350.000,161.111,N
194,0.305,0.510,0.505,55.556,91.667,355.556,400.000,50.000,N
195,0.285,0.390,0.180,147.222,88.889,213.889,330.556,69.444,N
196,0.245,0.425,0.370,47.222,77.778,369.444,600.000,269.444,N
197,0.370,-1.060,0.535,22.222,2.778,27.778,361.111,238.889,N
198,0.475,0.740,0.315,41.667,75.000,375.000,872.222,511.111,N
199,0.165,0.595,1.915,169.444,105.556,305.556,358.333,513.889,V
200,-0.010,0.360,-0.245,61.111,86.111,380.556,1138.889,780.556,N
201,0.110,-2.315,0.910,38.889,2.778,222.222,419.444,719.444,V
202,0.015,0.545,-0.120,58.333,83.333,230.556,738.889,319.444,N
203,0.210,0.510,0.035,58.333,80.556,236.111,425.000,313.889,N
204,-0.090,0.410,-0.160,50.000,83.333,233.333,875.000,450.000,N
205,-0.090,0.440,0.010,50.000,72.222,197.222,858.333,16.667,N
206,-0.020,0.590,-0.010,44.444,83.333,211.111,616.667,241.667,N
207,0.030,0.495,-0.020,55.556,83.333,227.778,708.333,91.667,N
208,0.070,-1.855,0.230,30.556,0.000,33.333,386.111,322.222,N
209,0.090,0.630,0.065,55.556,88.889,255.556,966.667,580.556,N
210,0.255,-2.110,0.415,33.333,0.000,197.222,427.778,538.889,N
211,0.415,-1.045,0.185,166.667,2.778,33.333,363.889,63.889,N
212,0.190,0.290,0.115,55.556,91.667,380.556,433.333,69.444,N
213,0.200,0.260,-0.015,55.556,91.667,227.778,405.556,27.778,N
214,0.005,0.465,0.020,52.778,83.333,238.889,655.556,250.000,N
215,0.095,0.460,0.110,50.000,88.889,205.556,650.000,5.556,N
216,0.120,0.595,0.150,47.222,80.556,347.222,463.889,186.111,N
217,0.150,0.340,0.330,52.778,91.667,380.556,369.444,94.444,N
218,0.165,0.325,-0.060,47.222,58.333,205.556,352.778,16.667,N
219,0.260,0.465,0.205,47.222,88.889,336.111,413.889,61.111,N
220,0.205,-1.080,0.295,25.000,0.000,27.778,330.556,83.333,N
221,0.200,0.320,-0.005,50.000,86.111,244.444,377.778,47.222,N
222,-0.040,0.435,0.050,61.111,86.111,225.000,772.222,394.444,N
223,0.050,0.380,1.680,186.111,111.111,305.556,391.667,380.556,V
224,-0.095,0.315,-0.015,52.778,88.889,325.000,800.000,408.333,N
225,-0.015,-2.565,0.920,41.667,5.556,202.778,336.111,463.889,V
226,-0.035,0.440,0.075,52.778,77.778,352.778,608.333,272.222,N
227,0.075,-1.020,0.160,22.222,0.000,27.778,344.444,263.889,N
228,-0.015,0.470,0.000,50.000,72.222,338.889,758.333,413.889,N
229,0.000,-2.435,1.050,38.889,2.778,200.000,350.000,408.333,V
230,0.020,0.575,-0.015,52.778,88.889,219.444,563.889,213.889,N
231,0.005,0.595,0.330,52.778,77.778,372.222,483.333,80.556,N
232,0.065,-1.480,0.330,125.000,2.778,30.556,311.111,172.222,N
233,0.005,0.425,0.030,58.333,80.556,241.667,686.111,375.000,N
234,0.110,0.570,0.045,58.333,91.667,252.778,1202.778,516.667,N
235,-0.025,-2.265,1.295,63.889,2.778,205.556,466.667,736.111,V
236,0.050,0.600,-0.070,52.778,88.889,211.111,572.222,105.556,N
237,0.020,0.490,0.050,55.556,86.111,213.889,933.333,361.111,N
238,0.045,0.515,0.105,52.778,86.111,213.889,897.222,36.111,N
239,0.105,-2.420,1.060,155.556,0.000,194.444,355.556,541.667,V
240,-0.055,0.470,-0.055,55.556,83.333,236.111,641.667,286.111,N
241,0.145,-1.010,0.190,22.222,2.778,30.556,386.111,255.556,N
242,0.185,-0.880,0.340,22.222,0.000,27.778,361.111,25.000,N
243,0.030,0.445,0.075,52.778,88.889,213.889,691.667,330.556,N
244,0.115,0.475,0.085,55.556,91.667,238.889,508.333,183.333,N
245,0.120,0.480,0.105,55.556,88.889,222.222,913.889,405.556,N
246,0.125,0.485,0.230,50.000,80.556,233.333,819.444,94.444,N
247,0.165,0.470,0.230,52.778,55.556,208.333,861.111,41.667,N
248,0.230,-2.270,1.055,188.889,0.000,191.667,366.667,494.444,V
249,1.055,-1.770,0.455,133.333,0.000,347.222,325.000,41.667,N
250,0.295,0.410,0.045,147.222,91.667,233.333,350.000,25.000,N
251,0.040,0.365,0.065,55.556,91.667,244.444,625.000,275.000,N
252,0.105,0.525,0.110,55.556,88.889,222.222,700.000,75.000,N
253,0.095,0.520,0.155,50.000,77.778,216.667,755.556,55.556,N
254,0.375,-1.000,0.270,27.778,2.778,222.222,852.778,97.222,N
255,0.255,0.700,0.230,55.556,77.778,238.889,1244.444,391.667,N
256,0.190,0.745,0.260,50.000,88.889,225.000,655.556,588.889,N
257,0.085,0.795,0.300,58.333,91.667,225.000,513.889,141.667,N
258,0.245,0.615,0.150,58.333,86.111,247.222,1091.667,577.778,N
259,0.090,0.515,0.100,55.556,88.889,261.111,1066.667,25.000,N
260,-0.180,0.700,-0.275,155.556,91.667,377.778,550.000,516.667,N
261,-0.275,0.485,-0.255,50.000,83.333,308.333,394.444,155.556,N
262,0.045,1.470,0.230,58.333,116.667,361.111,761.111,366.667,N
263,0.275,1.315,0.250,72.222,105.556,261.111,494.444,266.667,N
264,0.155,1.340,0.050,108.333,111.111,258.333,602.778,108.333,N
265,-0.035,1.340,-0.125,94.444,111.111,316.667,783.333,180.556,N
266,-0.235,1.400,0.050,116.667,111.111,400.000,691.667,91.667,N
267,-0.240,0.970,-0.290,177.778,116.667,258.333,380.556,311.111,N
268,-0.400,0.550,-0.375,136.111,116.667,275.000,469.444,88.889,N
269,-0.380,1.035,-0.210,105.556,116.667,397.222,702.778,233.333,N
270,-0.210,-1.420,0.460,44.444,0.000,211.111,386.111,316.667,V
271,0.460,-1.015,0.750,158.333,16.667,208.333,369.444,16.667,V
272,-0.285,1.055,-0.180,138.889,113.889,386.111,944.444,575.000,N
273,0.230,-2.345,1.600,38.889,2.778,191.667,450.000,494.444,V
274,-0.250,0.865,-0.110,69.444,102.778,380.556,733.333,283.333,N
275,-0.095,1.535,-0.050,66.667,113.889,269.444,716.667,16.667,N
276,-0.160,1.375,-0.115,91.667,108.333,377.778,752.778,36.111,N
277,-0.105,0.865,0.115,58.333,111.111,266.667,800.000,47.222,N
278,0.095,1.505,0.175,127.778,116.667,297.222,719.444,80.556,N
279,0.040,1.705,0.080,180.556,116.667,297.222,652.778,66.667,N
280,-0.110,1.055,-0.065,58.333,111.111,283.333,658.333,5.556,N
281,-0.330,0.495,-0.100,108.333,116.667,250.000,655.556,2.778,N
282,0.010,1.485,0.145,58.333,116.667,347.222,866.667,211.111,N
283,0.085,1.585,0.020,69.444,116.667,266.667,741.667,125.000,N
284,-0.340,0.555,-0.305,188.889,111.111,272.222,733.333,8.333,N
285,-0.325,0.685,0.060,91.667,116.667,280.556,575.000,158.333,N
286,0.145,1.475,0.255,66.667,113.889,308.333,872.222,297.222,N
287,0.195,1.740,0.150,194.444,105.556,291.667,541.667,330.556,N
288,-0.110,0.830,-0.080,158.333,108.333,272.222,547.222,5.556,N
289,-0.140,0.325,-0.095,194.444,77.778,236.111,436.111,111.111,N
290,-0.295,0.765,-0.190,88.889,116.667,286.111,677.778,241.667,N
291,-0.285,1.215,-0.255,186.111,116.667,308.333,794.444,116.667,N
292,-0.340,1.170,-0.385,91.667,108.333,255.556,544.444,250.000,N
293,-0.565,0.205,-0.275,38.889,77.778,238.889,594.444,50.000,N
294,-0.335,0.920,-0.115,58.333,111.111,283.333,583.333,11.111,N
295,-0.140,1.220,0.065,177.778,100.000,272.222,455.556,127.778,N
296,-0.005,1.460,-0.015,58.333,116.667,291.667,652.778,197.222,N
297,-0.200,0.900,-0.195,169.444,116.667,269.444,752.778,100.000,N
298,-0.140,0.620,0.005,44.444,88.889,272.222,794.444,41.667,N
299,-0.030,1.135,0.020,105.556,116.667,272.222,511.111,283.333,N
300,-0.010,1.265,-0.015,102.778,116.667,280.556,800.000,288.889,N
301,-0.165,1.335,-0.305,172.222,97.222,263.889,563.889,236.111,N
302,-0.305,0.435,0.255,183.333,86.111,355.556,397.222,166.667,N
303,-0.325,0.180,0.870,147.222,75.000,375.000,333.333,63.889,N
304,-0.035,0.870,0.205,38.889,80.556,375.000,338.889,5.556,N
305,0.295,1.725,0.530,113.889,113.889,319.444,613.889,275.000,N
306,0.360,1.625,0.225,194.444,113.889,275.000,708.333,94.444,N
307,-0.025,0.670,0.085,127.778,116.667,263.889,680.556,27.778,N
308,0.020,1.165,0.140,83.333,116.667,275.000,588.889,91.667,N
309,0.005,1.255,-0.060,58.333,113.889,277.778,766.667,177.778,N
310,-0.255,0.635,-0.180,113.889,116.667,261.111,747.222,19.444,N
311,-0.340,1.080,-0.220,152.778,113.889,302.778,741.667,5.556,N
312,-0.255,1.510,-0.125,183.333,113.889,275.000,463.889,277.778,N
313,-0.155,1.495,-0.110,100.000,111.111,269.444,463.889,0.000,N
314,-0.435,0.380,-0.325,194.444,108.333,350.000,691.667,227.778,N
315,-0.220,1.105,0.030,66.667,116.667,294.444,641.667,50.000,N
316,0.125,1.745,0.355,63.889,113.889,277.778,547.222,94.444,N
317,0.330,1.985,0.370,61.111,113.889,261.111,480.556,66.667,N
318,0.370,1.165,0.580,197.222,116.667,391.667,405.556,75.000,N
319,-0.180,0.580,-0.165,133.333,88.889,377.778,333.333,72.222,N
320,-0.160,0.995,0.030,88.889,113.889,402.778,455.556,122.222,N
321,0.305,1.835,0.565,58.333,116.667,405.556,797.222,341.667,N
322,0.610,2.205,0.590,72.222,113.889,261.111,488.889,308.333,N
323,0.555,1.700,0.355,197.222,111.111,275.000,411.111,77.778,N
324,0.140,1.210,0.130,177.778,111.111,288.889,775.000,363.889,N
325,-0.065,1.420,-0.090,83.333,111.111,266.667,675.000,100.000,N
326,-0.255,1.130,-0.235,147.222,116.667,275.000,694.444,19.444,N
327,-0.575,0.550,-0.525,183.333,116.667,275.000,766.667,72.222,N
328,-0.530,0.990,-0.230,88.889,111.111,302.778,705.556,61.111,N
329,-0.070,1.065,0.230,58.333,111.111,283.333,636.111,69.444,N
330,0.250,1.580,0.155,83.333,116.667,377.778,708.333,72.222,N
331,0.155,-1.040,0.670,63.889,16.667,188.889,383.333,325.000,V
332,-0.360,1.315,-0.170,169.444,116.667,388.889,652.778,269.444,N
333,0.000,1.205,0.350,61.111,113.889,288.889,733.333,80.556,N
334,0.350,1.785,0.355,133.333,116.667,269.444,602.778,130.556,N
335,0.135,1.675,0.195,61.111,111.111,394.444,705.556,102.778,N
336,0.195,-1.025,0.750,61.111,2.778,194.444,400.000,305.556,V
337,-0.565,0.730,-0.440,144.444,113.889,377.778,700.000,300.000,N
338,-0.300,1.250,-0.155,55.556,113.889,277.778,633.333,66.667,N
339,0.220,1.220,0.160,58.333,116.667,383.333,847.222,213.889,N
340,0.240,1.340,0.075,58.333,116.667,255.556,461.111,386.111,N
341,-0.020,1.320,0.050,147.222,113.889,311.111,741.667,280.556,N
342,0.105,1.575,0.065,58.333,105.556,244.444,447.222,294.444,N
343,-0.045,1.195,-0.100,61.111,113.889,275.000,669.444,222.222,N
344,-0.200,1.180,-0.440,183.333,116.667,275.000,555.556,113.889,N
345,-0.480,0.795,-0.350,58.333,111.111,402.778,588.889,33.333,N
346,-0.115,0.945,0.115,58.333,113.889,286.111,613.889,25.000,N
347,0.240,1.580,0.325,58.333,116.667,283.333,716.667,102.778,N
348,0.355,1.700,0.270,58.333,116.667,263.889,488.889,227.778,N
349,0.140,1.415,0.075,58.333,116.667,297.222,616.667,127.778,N
350,0.105,1.160,-0.130,58.333,116.667,261.111,452.778,163.889,N
351,-0.060,0.630,-0.030,58.333,116.667,294.444,566.667,113.889,N
352,-0.020,0.630,-0.190,58.333,116.667,313.889,980.556,413.889,N
353,-0.105,0.495,-0.345,58.333,111.111,227.778,433.333,547.222,N
354,-0.420,0.855,-0.385,58.333,113.889,375.000,633.333,200.000,N
355,-0.170,1.420,0.015,58.333,116.667,288.889,908.333,275.000,N
356,0.065,1.725,0.225,58.333,116.667,300.000,755.556,152.778,N
357,0.030,1.770,0.130,61.111,111.111,280.556,550.000,205.556,N
358,0.085,1.190,0.060,197.222,116.667,291.667,438.889,111.111,N
359,0.060,1.245,0.045,180.556,116.667,275.000,413.889,25.000,N
360,-0.010,1.535,0.085,63.889,113.889,291.667,700.000,286.111,N
361,0.070,1.815,-0.020,158.333,102.778,277.778,544.444,155.556,N
362,-0.065,1.640,0.085,119.444,111.111,386.111,794.444,250.000,N
363,0.260,1.655,1.455,55.556,91.667,369.444,438.889,355.556,N
364,0.050,1.450,-0.055,58.333,116.667,275.000,327.778,111.111,N
365,-0.045,1.430,0.015,83.333,113.889,305.556,830.556,502.778,N
366,0.235,-2.505,2.055,44.444,11.111,188.889,461.111,369.444,V
367,-0.185,1.465,-0.105,166.667,116.667,341.667,1055.556,594.444,N
368,0.135,-2.590,1.855,38.889,8.333,194.444,436.111,619.444,V
369,-0.360,0.745,-0.330,111.111,102.778,394.444,791.667,355.556,N
370,-0.310,1.230,-0.155,77.778,105.556,369.444,733.333,58.333,N
371,-0.155,-1.395,0.885,55.556,2.778,205.556,369.444,363.889,V
372,-0.125,1.465,-0.060,75.000,105.556,394.444,927.778,558.333,N
373,0.005,-2.585,2.120,44.444,11.111,188.889,450.000,477.778,V
374,-0.230,1.030,0.010,172.222,116.667,391.667,972.222,522.222,N
375,0.090,1.360,0.145,58.333,116.667,286.111,758.333,213.889,N
376,-0.070,1.440,0.095,163.889,116.667,380.556,655.556,102.778,N
377,0.095,-1.030,0.575,50.000,5.556,227.778,372.222,283.333,V
378,0.575,0.370,0.065,147.222,91.667,225.000,375.000,2.778,V
379,-0.110,1.540,0.885,102.778,116.667,405.556,1175.000,800.000,N
380,0.045,1.035,1.860,55.556,88.889,275.000,352.778,822.222,V
381,-0.365,0.895,-0.215,55.556,113.889,363.889,719.444,366.667,N
382,-0.285,1.365,-0.275,63.889,116.667,297.222,719.444,0.000,N
383,-0.300,1.435,-0.210,91.667,113.889,277.778,630.556,88.889,N
384,-0.180,1.470,-0.175,58.333,116.667,302.778,725.000,94.444,N
385,-0.220,1.200,-0.110,58.333,113.889,275.000,733.333,8.333,N
386,-0.135,1.060,-0.030,58.333,116.667,297.222,761.111,27.778,N
387,-0.160,1.425,-0.040,72.222,113.889,291.667,841.667,80.556,N
388,-0.105,1.775,-0.050,158.333,111.111,258.333,555.556,286.111,N
389,-0.230,2.095,0.190,141.667,113.889,316.667,513.889,41.667,V
390,-0.190,1.265,0.030,66.667,113.889,302.778,913.889,400.000,N
391,0.020,1.695,-0.075,152.778,108.333,269.444,563.889,350.000,N
392,-0.195,1.095,-0.160,194.444,116.667,261.111,444.444,119.444,N
393,-0.125,1.500,-0.020,61.111,116.667,311.111,683.333,238.889,N
394,-0.060,1.130,-0.125,58.333,108.333,280.556,747.222,63.889,N
395,-0.235,0.590,-0.100,58.333,111.111,266.667,697.222,50.000,N
396,-0.145,1.170,0.005,88.889,116.667,386.111,813.889,116.667,N
397,-0.035,1.610,0.685,119.444,116.667,405.556,594.444,219.444,N
398,0.105,1.225,0.065,138.889,97.222,386.111,361.111,233.333,N
399,-0.025,1.545,-0.060,183.333,116.667,258.333,388.889,27.778,N
400,-0.245,0.995,-0.095,188.889,111.111,286.111,672.222,283.333,N
401,-0.225,0.660,-0.185,175.000,108.333,283.333,602.778,69.444,N
402,-0.435,1.175,-0.350,163.889,113.889,261.111,669.444,66.667,N
403,-0.340,1.430,-0.290,63.889,116.667,280.556,552.778,116.667,N
404,-0.235,1.455,-0.190,172.222,113.889,319.444,891.667,338.889,N
405,-0.275,0.765,-0.100,58.333,116.667,263.889,772.222,119.444,N
406,-0.240,1.150,-0.145,72.222,111.111,283.333,644.444,127.778,N
407,-0.260,1.525,-0.245,66.667,116.667,341.667,811.111,166.667,N
408,-0.270,1.360,-0.255,58.333,111.111,300.000,705.556,105.556,N
409,-0.290,0.790,-0.080,58.333,108.333,280.556,719.444,13.889,N
410,-0.175,1.165,-0.075,88.889,111.111,283.333,697.222,22.222,N
411,-0.050,1.050,-0.135,61.111,105.556,269.444,438.889,258.333,N
412,-0.175,1.475,-0.085,194.444,116.667,363.889,697.222,258.333,N
413,-0.150,1.530,-0.255,144.444,116.667,313.889,616.667,80.556,N
414,-0.340,0.755,-0.055,63.889,116.667,297.222,636.111,19.444,N
415,0.555,-2.595,1.930,41.667,11.111,205.556,613.889,22.222,V
416,-0.065,1.500,0.835,191.667,108.333,405.556,563.889,50.000,N
417,-0.220,1.050,0.045,66.667,116.667,405.556,358.333,205.556,N
418,-0.145,1.390,-0.145,152.778,113.889,272.222,386.111,27.778,N
419,-0.145,1.425,0.930,183.333,113.889,394.444,397.222,11.111,N
420,-0.105,0.930,0.575,55.556,86.111,336.111,338.889,58.333,N
421,-0.115,0.540,-0.110,47.222,77.778,219.444,305.556,33.333,N
422,-0.165,0.905,-0.010,58.333,113.889,369.444,577.778,272.222,N
423,-0.115,1.410,-0.125,119.444,116.667,302.778,747.222,169.444,N
424,-0.065,1.725,-0.085,58.333,111.111,400.000,838.889,91.667,N
425,-0.180,0.910,-0.080,94.444,116.667,275.000,838.889,0.000,N
426,-0.135,1.405,0.080,63.889,116.667,391.667,666.667,172.222,N
427,0.080,-1.015,1.150,55.556,5.556,188.889,388.889,277.778,V
428,1.150,-1.135,1.145,141.667,16.667,183.333,325.000,63.889,V
429,-0.015,1.640,-0.165,58.333,116.667,344.444,652.778,327.778,N
430,-0.165,1.240,-0.440,152.778,116.667,252.778,438.889,213.889,N
431,-0.005,1.445,0.235,58.333,113.889,313.889,991.667,552.778,N
432,0.790,-2.450,2.395,38.889,11.111,208.333,427.778,563.889,V
433,0.170,1.765,0.030,133.333,116.667,372.222,1127.778,700.000,N
434,-0.075,1.295,-0.090,58.333,108.333,277.778,661.111,466.667,N
435,-0.105,1.205,0.020,58.333,108.333,288.889,647.222,13.889,N
436,-0.020,1.635,0.130,58.333,113.889,388.889,813.889,166.667,N
437,0.130,-0.990,0.895,41.667,5.556,208.333,372.222,441.667,V
438,0.435,1.400,-0.260,197.222,113.889,272.222,438.889,66.667,N
439,-0.330,0.935,-0.180,141.667,113.889,361.111,591.667,152.778,N
440,-0.215,1.490,-0.135,72.222,116.667,269.444,577.778,13.889,N
441,-0.190,1.650,-0.185,58.333,116.667,397.222,891.667,313.889,N
442,-0.295,0.955,-0.230,58.333,116.667,288.889,808.333,83.333,N
443,0.175,1.580,0.165,58.333,116.667,363.889,988.889,180.556,N
444,0.220,1.775,1.400,63.889,102.778,388.889,488.889,500.000,N
445,0.175,1.400,0.060,125.000,116.667,263.889,344.444,144.444,N
446,-0.190,1.330,-0.060,77.778,113.889,377.778,883.333,538.889,N
447,0.280,-2.690,2.020,44.444,2.778,191.667,447.222,436.111,V
448,-0.310,1.410,-0.155,108.333,108.333,400.000,916.667,469.444,N
449,-0.155,-1.370,0.795,41.667,0.000,225.000,383.333,533.333,V
450,0.795,-1.295,0.900,147.222,16.667,197.222,372.222,11.111,V
451,0.900,-1.195,0.675,177.778,19.444,188.889,366.667,5.556,V
452,-0.385,1.005,-0.255,58.333,116.667,400.000,677.778,311.111,N
453,-0.255,1.260,-0.240,61.111,116.667,288.889,672.222,5.556,N
454,-0.285,1.185,-0.280,113.889,116.667,363.889,813.889,141.667,N
455,-0.265,1.385,-0.105,58.333,111.111,283.333,611.111,202.778,N
456,0.050,1.440,0.085,58.333,116.667,275.000,727.778,116.667,N
457,0.115,1.380,0.135,58.333,113.889,277.778,791.667,63.889,N
458,0.090,1.255,1.035,188.889,116.667,405.556,427.778,363.889,N
459,-0.025,1.120,0.480,163.889,116.667,405.556,358.333,69.444,N
460,-0.155,1.160,0.440,58.333,116.667,405.556,369.444,11.111,N
461,-0.215,1.050,-0.220,136.111,116.667,275.000,366.667,2.778,N
462,-0.190,1.130,-0.085,58.333,111.111,402.778,1158.333,791.667,N
463,-0.085,0.605,1.795,58.333,102.778,308.333,402.778,755.556,V
464,-0.275,1.130,-0.190,58.333,116.667,347.222,1000.000,597.222,N
465,-0.185,-1.315,0.855,41.667,0.000,211.111,411.111,588.889,V
466,0.855,-1.050,0.890,144.444,2.778,202.778,358.333,52.778,V
467,-0.185,1.370,-0.115,91.667,116.667,286.111,691.667,333.333,N
468,-0.220,1.445,-0.195,172.222,111.111,366.667,1183.333,491.667,N
469,-0.195,-2.115,1.390,133.333,2.778,191.667,463.889,719.444,V
470,-0.270,1.485,-0.225,58.333,111.111,397.222,655.556,191.667,N
471,-0.160,1.465,-0.150,58.333,116.667,308.333,705.556,50.000,N
472,-0.225,1.485,-0.135,172.222,113.889,402.778,755.556,50.000,N
473,-0.160,1.535,-0.130,61.111,108.333,297.222,722.222,33.333,N
474,-0.275,1.385,-0.405,169.444,116.667,288.889,891.667,169.444,N
475,-0.490,1.340,-0.350,175.000,113.889,297.222,622.222,269.444,N
476,-0.150,1.575,0.330,58.333,116.667,377.778,708.333,86.111,N
477,0.330,-0.935,1.200,55.556,2.778,211.111,375.000,333.333,V
478,0.140,1.650,0.115,188.889,113.889,369.444,747.222,372.222,N
479,0.145,-1.305,0.790,41.667,2.778,216.667,411.111,336.111,V
480,0.790,-1.420,0.805,127.778,16.667,208.333,341.667,69.444,V
481,-0.250,0.730,-0.285,58.333,108.333,386.111,650.000,308.333,N
482,-0.160,1.245,-0.440,58.333,116.667,291.667,519.444,130.556,N
483,-0.715,1.030,-0.535,94.444,116.667,386.111,880.556,361.111,N
484,-0.435,1.500,-0.265,119.444,116.667,272.222,508.333,372.222,N
485,0.300,1.995,0.365,58.333,116.667,325.000,1113.889,605.556,N
486,0.435,-2.655,2.225,41.667,8.333,200.000,433.333,680.556,V
487,-0.185,1.430,-0.140,97.222,113.889,372.222,900.000,466.667,N
488,-0.200,1.210,-0.030,58.333,113.889,300.000,658.333,241.667,N
489,-0.160,1.475,-0.245,197.222,113.889,291.667,525.000,133.333,N
490,-0.290,1.295,-0.390,58.333,111.111,316.667,691.667,166.667,N
491,-0.160,-1.540,0.730,47.222,2.778,205.556,416.667,275.000,V
492,-0.090,1.390,-0.425,58.333,88.889,352.778,663.889,247.222,N
493,-0.205,1.070,-0.080,58.333,80.556,322.222,619.444,44.444,N
494,-0.295,1.295,-0.285,119.444,116.667,316.667,647.222,27.778,N
495,-0.150,1.685,-0.060,130.556,116.667,297.222,780.556,133.333,N
496,-0.250,1.580,-0.180,63.889,111.111,294.444,741.667,38.889,N
497,-0.255,1.135,-0.040,66.667,111.111,372.222,522.222,219.444,N
498,-0.040,0.670,0.015,52.778,88.889,250.000,366.667,155.556,N
499,-0.110,1.310,-0.015,94.444,116.667,327.778,647.222,280.556,N
500,-0.190,1.405,-0.120,58.333,116.667,405.556,747.222,100.000,N
501,-0.100,-1.110,0.600,36.111,0.000,227.778,391.667,355.556,V
502,0.600,-1.485,0.815,133.333,5.556,169.444,363.889,27.778,V
503,0.815,-1.285,0.555,138.889,11.111,188.889,308.333,55.556,V
504,0.555,-1.050,0.565,163.889,0.000,347.222,352.778,44.444,V
505,-0.075,0.565,-0.460,161.111,108.333,350.000,347.222,5.556,N
506,-0.115,1.755,0.035,58.333,116.667,405.556,741.667,394.444,V
507,0.915,-1.375,2.130,33.333,8.333,305.556,413.889,327.778,V
508,0.835,2.085,0.000,125.000,94.444,297.222,294.444,119.444,V
509,0.000,2.035,0.505,169.444,97.222,405.556,408.333,113.889,V
510,0.035,1.870,1.955,136.111,97.222,394.444,388.889,19.444,V
511,0.020,1.825,1.985,91.667,97.222,347.222,350.000,38.889,V
512,-0.005,1.705,-0.275,58.333,97.222,300.000,300.000,50.000,V
513,-0.145,1.685,0.615,58.333,97.222,405.556,452.778,152.778,V
514,0.060,1.640,-0.050,58.333,97.222,294.444,386.111,66.667,V
515,-0.130,1.390,0.025,58.333,116.667,405.556,977.778,591.667,N
516,0.400,-2.560,1.720,58.333,13.889,202.778,422.222,555.556,V
517,-0.350,1.090,-0.655,197.222,111.111,325.000,733.333,311.111,N
518,-0.390,-1.710,0.115,36.111,0.000,197.222,402.778,330.556,V
519,-0.210,0.450,-0.350,197.222,113.889,386.111,422.222,19.444,N
520,-0.155,1.350,0.160,58.333,113.889,372.222,616.667,194.444,N
521,0.160,-1.120,0.960,44.444,0.000,213.889,361.111,255.556,V
522,0.960,-0.655,1.110,130.556,16.667,194.444,344.444,16.667,V
523,1.050,1.525,-0.075,197.222,116.667,286.111,394.444,50.000,N
524,-0.220,0.785,-0.270,58.333,116.667,397.222,755.556,361.111,N
525,-0.305,0.850,-0.245,66.667,113.889,305.556,938.889,183.333,N
526,-0.240,1.385,-0.225,58.333,116.667,280.556,527.778,411.111,N
527,-0.345,1.365,-0.580,169.444,116.667,275.000,891.667,363.889,N
528,-0.705,0.550,-0.745,197.222,116.667,252.778,516.667,375.000,N
529,-0.640,0.325,-0.125,69.444,113.889,388.889,663.889,147.222,N
530,-0.125,-1.355,1.110,50.000,2.778,186.111,380.556,283.333,V
531,0.170,1.675,0.160,58.333,116.667,316.667,775.000,394.444,N
532,-0.020,1.280,-0.125,188.889,116.667,269.444,700.000,75.000,N
533,-0.415,0.470,-0.250,155.556,113.889,272.222,697.222,2.778,N
534,-0.265,0.635,-0.160,52.778,86.111,227.778,447.222,250.000,N
535,-0.215,1.145,-0.155,86.111,116.667,338.889,750.000,302.778,N
536,-0.160,1.370,-0.225,69.444,116.667,269.444,736.111,13.889,N
537,-0.275,1.105,-0.285,58.333,111.111,266.667,486.111,250.000,N
538,-0.415,0.440,-0.220,100.000,116.667,280.556,741.667,255.556,N
539,-0.305,1.150,-0.295,58.333,116.667,277.778,747.222,5.556,N
540,-0.345,1.275,-0.305,141.667,116.667,350.000,761.111,13.889,N
541,-0.275,-1.020,0.300,41.667,0.000,194.444,408.333,352.778,V
542,-0.160,0.525,-0.795,197.222,116.667,263.889,427.778,19.444,N
543,-0.795,-0.045,-0.620,50.000,97.222,375.000,402.778,25.000,N
544,-0.275,1.220,0.100,100.000,116.667,344.444,769.444,366.667,N
545,0.350,1.870,0.425,72.222,111.111,300.000,755.556,13.889,N
546,0.315,1.795,0.285,105.556,116.667,269.444,683.333,72.222,N
547,0.015,0.975,0.025,197.222,113.889,272.222,580.556,102.778,N
548,0.025,0.670,0.015,158.333,88.889,222.222,372.222,208.333,N
549,-0.005,1.100,-0.135,197.222,105.556,263.889,400.000,27.778,N
550,-0.300,1.165,-0.350,97.222,116.667,397.222,622.222,222.222,N
551,-0.350,0.790,-0.605,55.556,97.222,244.444,394.444,227.778,N
552,-0.600,1.045,-0.535,58.333,111.111,294.444,452.778,58.333,N
553,-0.425,0.650,-0.270,58.333,116.667,297.222,619.444,166.667,N
554,-0.205,1.205,-0.160,58.333,113.889,280.556,763.889,144.444,N
555,-0.180,1.430,-0.090,66.667,113.889,291.667,722.222,41.667,N
556,-0.195,1.115,-0.175,169.444,113.889,269.444,952.778,230.556,N
557,-0.265,1.125,-0.370,188.889,113.889,272.222,766.667,186.111,N
558,-0.395,1.230,-0.250,111.111,111.111,255.556,741.667,25.000,N
559,-0.295,1.455,-0.360,58.333,105.556,258.333,494.444,247.222,N
560,-0.570,0.510,-0.360,119.444,116.667,305.556,680.556,186.111,N
561,-0.110,1.335,0.110,58.333,111.111,283.333,688.889,8.333,N
562,0.070,1.540,0.280,77.778,111.111,300.000,466.667,222.222,N
563,0.245,1.625,0.170,58.333,116.667,347.222,686.111,219.444,N
564,-0.030,1.215,-0.180,58.333,116.667,288.889,772.222,86.111,N
565,-0.290,0.805,0.005,58.333,108.333,402.778,455.556,316.667,N
566,-0.280,0.680,-0.320,158.333,86.111,230.556,366.667,88.889,N
567,-0.410,1.225,-0.330,61.111,116.667,311.111,641.667,275.000,N
568,-0.475,1.240,-0.470,125.000,113.889,383.333,877.778,236.111,N
569,-0.470,-1.645,0.200,55.556,0.000,205.556,383.333,494.444,V
570,0.200,-1.820,0.210,152.778,2.778,211.111,361.111,22.222,V
571,-0.330,1.300,0.045,72.222,113.889,405.556,1050.000,688.889,N
572,0.460,-2.430,2.180,36.111,0.000,188.889,438.889,611.111,V
573,-0.140,1.530,-0.185,100.000,116.667,394.444,738.889,300.000,N
574,-0.110,1.265,0.045,55.556,100.000,388.889,444.444,294.444,N
575,-0.290,1.190,-0.030,150.000,116.667,400.000,375.000,69.444,N
576,-0.345,0.995,0.465,58.333,116.667,405.556,380.556,5.556,N
577,-0.255,0.990,-0.215,63.889,113.889,275.000,363.889,16.667,N
578,-0.195,1.410,-0.095,97.222,116.667,294.444,666.667,302.778,N
579,-0.095,1.795,-0.235,119.444,113.889,255.556,505.556,161.111,N
580,-0.410,1.345,-0.415,144.444,111.111,358.333,658.333,152.778,N
581,-0.260,1.615,-0.165,58.333,116.667,358.333,919.444,261.111,N
582,-0.150,1.900,0.020,86.111,113.889,405.556,555.556,363.889,N
583,-0.005,1.335,-0.060,175.000,111.111,283.333,388.889,166.667,N
584,-0.035,1.770,0.015,58.333,116.667,377.778,1055.556,666.667,N
585,0.255,0.560,0.660,72.222,69.444,222.222,486.111,569.444,V
586,-0.110,1.680,-0.080,58.333,113.889,386.111,719.444,233.333,N
587,-0.100,1.635,-0.180,191.667,113.889,266.667,636.111,83.333,N
588,-0.310,1.505,-0.200,69.444,116.667,275.000,575.000,61.111,N
589,-0.085,1.670,0.030,63.889,116.667,394.444,850.000,275.000,N
590,0.140,-0.970,1.015,36.111,2.778,197.222,402.778,447.222,V
591,0.095,1.895,0.025,58.333,116.667,283.333,505.556,102.778,N
592,0.005,1.960,0.090,86.111,116.667,275.000,491.667,13.889,N
593,-0.050,1.590,-0.205,102.778,113.889,286.111,652.778,161.111,N
594,-0.380,1.340,-0.375,58.333,113.889,369.444,886.111,233.333,N
595,-0.330,1.710,-0.095,66.667,116.667,275.000,627.778,258.333,N
596,0.030,1.750,0.165,58.333,116.667,305.556,802.778,175.000,N
597,0.015,1.605,0.010,183.333,116.667,372.222,663.889,138.889,N
598,0.010,-0.975,0.620,44.444,0.000,347.222,358.333,305.556,V
599,0.520,1.090,1.220,158.333,88.889,355.556,363.889,5.556,N
600,-0.270,1.210,1.445,94.444,113.889,386.111,319.444,44.444,N
601,-0.085,1.435,-0.015,61.111,108.333,347.222,333.333,13.889,N
602,0.045,1.490,0.280,58.333,111.111,388.889,683.333,350.000,N
603,0.280,-1.255,1.020,38.889,2.778,241.667,369.444,313.889,V
604,-0.100,1.150,-0.085,58.333,111.111,383.333,711.111,341.667,N
605,-0.030,1.425,-0.150,58.333,116.667,372.222,1108.333,397.222,N
606,-0.225,1.485,-0.115,58.333,113.889,269.444,691.667,416.667,N
607,-0.065,1.545,-0.025,61.111,113.889,275.000,988.889,297.222,N
608,-0.085,1.635,0.000,122.222,108.333,266.667,691.667,297.222,N
609,-0.095,1.655,-0.020,147.222,113.889,272.222,661.111,30.556,N
610,-0.130,1.460,-0.220,58.333,116.667,308.333,1150.000,488.889,N
611,-0.255,1.125,-0.115,55.556,113.889,300.000,758.333,391.667,N
612,-0.130,1.355,-0.195,69.444,116.667,275.000,925.000,166.667,N
613,-0.355,1.415,-0.325,119.444,116.667,288.889,783.333,141.667,N
614,-0.155,1.555,0.040,63.889,116.667,297.222,894.444,111.111,N
615,0.150,1.430,0.305,77.778,113.889,272.222,650.000,244.444,N
616,0.365,1.455,0.100,58.333,116.667,297.222,980.556,330.556,N
617,-0.100,1.260,-0.055,58.333,108.333,319.444,813.889,166.667,N
618,-0.215,1.450,-0.265,83.333,116.667,305.556,627.778,186.111,N
619,-0.570,1.280,-0.325,88.889,111.111,400.000,922.222,294.444,N
620,-0.170,1.720,0.130,63.889,116.667,288.889,611.111,311.111,N
621,0.145,1.580,0.255,86.111,116.667,288.889,533.333,77.778,N
622,0.165,1.030,0.370,100.000,116.667,291.667,663.889,130.556,N
623,0.295,1.600,0.215,72.222,113.889,352.778,655.556,8.333,N
624,0.105,1.710,-0.080,152.778,116.667,372.222,894.444,238.889,N
625,0.080,0.240,0.300,77.778,66.667,230.556,461.111,433.333,V
626,0.300,-1.150,-0.025,100.000,2.778,211.111,294.444,166.667,V
627,-0.240,1.020,-0.010,83.333,113.889,405.556,1144.444,850.000,N
628,0.230,-2.420,1.810,38.889,2.778,211.111,458.333,686.111,V
629,-0.180,1.425,-0.395,191.667,113.889,380.556,597.222,138.889,N
630,-0.395,-1.140,0.025,50.000,13.889,225.000,375.000,222.222,V
631,-0.645,0.835,-0.405,188.889,113.889,369.444,638.889,263.889,N
632,-0.350,0.820,0.430,69.444,113.889,405.556,497.222,141.667,N
633,0.040,1.015,1.480,55.556,88.889,355.556,361.111,136.111,N
634,0.420,1.460,0.455,47.222,83.333,238.889,330.556,30.556,N
635,0.325,1.800,0.245,116.667,116.667,375.000,625.000,294.444,N
636,0.305,1.685,0.000,58.333,102.778,272.222,438.889,186.111,N
637,0.000,1.410,-0.200,188.889,111.111,269.444,413.889,25.000,N
638,-0.265,0.660,-0.160,58.333,116.667,402.778,661.111,247.222,N
639,-0.160,0.635,0.880,55.556,88.889,355.556,400.000,261.111,N
640,-0.060,0.870,-0.130,77.778,80.556,319.444,327.778,72.222,N
641,-0.110,1.410,-0.025,58.333,116.667,355.556,744.444,416.667,N
642,-0.225,1.545,-0.300,61.111,116.667,363.889,758.333,13.889,N
643,-0.300,-1.130,0.385,47.222,2.778,219.444,352.778,405.556,V
644,-0.545,0.675,-0.200,66.667,116.667,344.444,733.333,380.556,N
645,-0.075,1.275,0.130,58.333,102.778,261.111,558.333,175.000,N
646,0.060,1.655,0.110,69.444,113.889,269.444,480.556,77.778,N
647,0.045,1.670,0.025,58.333,113.889,316.667,636.111,155.556,N
648,-0.120,1.225,-0.235,66.667,116.667,288.889,691.667,55.556,N
649,-0.100,0.595,-0.050,172.222,97.222,325.000,783.333,91.667,N
650,0.180,1.330,-0.075,66.667,102.778,308.333,883.333,100.000,N
651,0.005,1.640,0.075,72.222,102.778,244.444,777.778,105.556,N
652,-0.160,0.945,-0.020,72.222,113.889,272.222,875.000,97.222,N
653,0.020,2.000,1.145,69.444,75.000,227.778,625.000,250.000,|
654,2.105,1.130,-0.035,177.778,113.889,291.667,166.667,458.333,N
655,-0.020,1.275,-0.030,61.111,100.000,261.111,711.111,544.444,N
656,-0.150,1.485,-0.270,63.889,113.889,325.000,794.444,83.333,N
657,-0.210,0.595,-0.235,58.333,97.222,263.889,608.333,186.111,N
658,-0.140,0.990,0.000,58.333,105.556,286.111,750.000,141.667,N
659,-0.020,1.415,0.090,141.667,105.556,297.222,713.889,36.111,N
660,0.025,1.445,-0.060,191.667,113.889,261.111,494.444,219.444,N
661,-0.240,1.010,-0.330,183.333,113.889,372.222,600.000,105.556,N
662,-0.125,-1.210,0.435,27.778,2.778,27.778,388.889,211.111,V
663,0.040,0.920,0.185,58.333,116.667,350.000,716.667,327.778,N
664,0.205,1.470,0.330,58.333,105.556,275.000,766.667,50.000,N
665,0.110,1.435,0.030,97.222,102.778,255.556,530.556,236.111,N
666,-0.290,0.410,-0.185,58.333,105.556,302.778,616.667,86.111,N
667,-0.105,0.670,-0.055,63.889,80.556,225.000,450.000,166.667,N
668,-0.125,1.150,0.035,152.778,111.111,338.889,641.667,191.667,N
669,0.150,-1.565,1.185,55.556,0.000,211.111,427.778,213.889,V
670,-0.175,0.905,-0.235,186.111,113.889,288.889,655.556,227.778,N
671,0.000,0.370,-0.155,47.222,88.889,377.778,566.667,88.889,N
672,-0.160,0.430,0.535,158.333,88.889,361.111,361.111,205.556,N
673,-0.280,0.470,-0.165,147.222,77.778,380.556,333.333,27.778,N
674,-0.305,1.050,0.710,72.222,116.667,405.556,397.222,63.889,N
675,-0.240,1.065,0.965,152.778,116.667,394.444,361.111,36.111,N
676,-0.140,0.965,0.925,119.444,116.667,402.778,336.111,25.000,N
677,-0.240,0.920,-0.245,105.556,113.889,258.333,341.667,5.556,N
678,-0.285,0.710,-0.060,72.222,116.667,402.778,413.889,72.222,N
679,0.000,1.470,0.120,75.000,116.667,319.444,880.556,466.667,N
680,0.100,1.760,0.035,58.333,116.667,291.667,744.444,136.111,N
681,-0.310,0.935,-0.375,188.889,116.667,275.000,669.444,75.000,N
682,-0.275,0.950,-0.065,58.333,116.667,266.667,636.111,33.333,N
683,0.135,1.860,0.480,58.333,111.111,405.556,713.889,77.778,N
684,0.480,-0.815,1.400,50.000,0.000,194.444,397.222,316.667,V
685,1.400,-0.790,1.435,130.556,16.667,333.333,325.000,72.222,V
686,1.145,1.380,-0.005,161.111,97.222,247.222,330.556,5.556,N
687,-0.320,0.855,0.630,61.111,116.667,405.556,852.778,522.222,N
688,-0.065,0.765,1.610,58.333,108.333,288.889,358.333,494.444,V
689,-0.200,1.280,-0.095,191.667,111.111,391.667,572.222,213.889,N
690,-0.095,1.150,-0.080,55.556,102.778,336.111,394.444,177.778,N
691,-0.350,1.275,-0.395,97.222,113.889,305.556,727.778,333.333,N
692,-0.315,-2.420,2.000,55.556,8.333,205.556,458.333,269.444,V
693,-0.385,0.910,-0.065,55.556,111.111,369.444,644.444,186.111,N
694,0.255,1.780,0.435,58.333,113.889,294.444,780.556,136.111,N
695,0.285,1.925,0.195,177.778,113.889,338.889,894.444,113.889,N
696,0.110,1.860,0.030,136.111,111.111,252.778,575.000,319.444,N
697,-0.230,1.420,-0.225,152.778,111.111,377.778,500.000,75.000,N
698,-0.225,0.450,-0.590,50.000,80.556,233.333,372.222,127.778,N
699,-0.525,0.935,-0.340,66.667,116.667,405.556,727.778,355.556,N
700,-0.275,1.505,-0.035,58.333,113.889,380.556,694.444,33.333,N
701,0.085,1.775,0.135,66.667,116.667,288.889,702.778,8.333,N
702,-0.410,1.135,-0.340,63.889,105.556,363.889,944.444,241.667,N
703,0.185,1.720,0.335,91.667,116.667,275.000,933.333,11.111,N
704,0.280,2.010,0.420,150.000,113.889,236.111,519.444,413.889,N
705,0.040,1.425,-0.360,169.444,113.889,269.444,569.444,50.000,N
706,-0.610,1.140,-0.370,197.222,105.556,302.778,675.000,105.556,N
707,-0.150,1.635,0.395,75.000,113.889,366.667,733.333,58.333,N
708,0.390,1.850,0.340,194.444,108.333,319.444,797.222,63.889,N
709,0.500,-1.050,1.160,52.778,0.000,213.889,422.222,375.000,V
710,1.160,-1.385,1.070,119.444,16.667,188.889,333.333,88.889,V
711,-0.195,1.125,-0.200,66.667,116.667,336.111,725.000,391.667,N
712,-0.165,1.430,0.090,91.667,111.111,400.000,736.111,11.111,N
713,0.090,-1.300,0.825,58.333,11.111,211.111,400.000,336.111,V
714,0.825,-1.175,0.855,158.333,16.667,177.778,366.667,33.333,V
715,-0.585,1.050,-0.775,194.444,108.333,302.778,605.556,238.889,N
716,-0.715,1.425,-0.370,88.889,111.111,405.556,691.667,86.111,N
717,-0.335,1.550,-0.035,58.333,116.667,272.222,408.333,283.333,N
718,0.260,2.100,0.505,58.333,116.667,350.000,694.444,286.111,N
719,0.395,1.995,0.005,186.111,113.889,275.000,627.778,66.667,N
720,-0.135,1.930,0.115,58.333,116.667,372.222,1086.111,458.333,N
721,0.120,2.035,0.335,141.667,111.111,283.333,602.778,483.333,N
722,0.225,1.835,0.175,69.444,111.111,336.111,961.111,358.333,N
723,0.035,1.650,-0.010,144.444,102.778,263.889,738.889,222.222,N
724,-0.295,1.450,-0.530,175.000,113.889,277.778,669.444,69.444,N
725,-0.545,1.365,-0.260,58.333,116.667,280.556,711.111,41.667,N
726,-0.175,1.320,-0.045,58.333,111.111,288.889,433.333,277.778,N
727,0.005,1.815,0.035,152.778,113.889,405.556,997.222,563.889,N
728,0.035,0.525,2.255,63.889,113.889,305.556,411.111,586.111,V
729,0.065,1.260,0.125,197.222,116.667,358.333,650.000,238.889,N
730,0.185,1.685,0.150,169.444,116.667,288.889,705.556,55.556,N
731,0.010,1.725,0.005,86.111,113.889,288.889,700.000,5.556,N
732,-0.185,1.470,-0.065,86.111,113.889,400.000,713.889,13.889,N
733,-0.065,-1.215,0.560,44.444,0.000,205.556,391.667,322.222,V
734,0.560,1.495,-0.240,172.222,113.889,369.444,377.778,13.889,N
735,-0.125,1.705,0.075,158.333,108.333,330.556,869.444,491.667,N
736,0.300,-2.415,2.195,38.889,8.333,194.444,427.778,441.667,V
737,-0.320,1.305,-0.255,186.111,116.667,402.778,700.000,272.222,N
738,-0.060,1.585,0.055,94.444,116.667,397.222,941.667,241.667,N
739,0.065,1.930,0.085,69.444,116.667,305.556,575.000,366.667,N
740,-0.055,1.715,-0.185,58.333,113.889,302.778,769.444,194.444,N
741,0.060,-1.170,0.660,41.667,0.000,208.333,402.778,366.667,V
742,0.660,0.310,-0.035,138.889,83.333,236.111,347.222,55.556,N
743,-0.055,1.665,0.240,119.444,111.111,400.000,661.111,313.889,N
744,0.520,-2.370,2.335,38.889,0.000,188.889,408.333,252.778,V
745,-0.280,1.250,-0.070,58.333,116.667,405.556,719.444,311.111,N
746,0.115,-1.125,0.555,36.111,0.000,211.111,391.667,327.778,V
747,0.555,1.780,0.200,197.222,116.667,405.556,411.111,19.444,N
748,0.120,1.645,0.225,58.333,116.667,263.889,402.778,8.333,N
749,0.135,1.750,0.265,188.889,116.667,377.778,780.556,377.778,N
750,0.175,1.850,0.065,194.444,116.667,313.889,611.111,169.444,N
751,-0.295,1.305,-0.530,158.333,116.667,372.222,1097.222,486.111,N
752,-0.295,-2.930,1.690,38.889,11.111,211.111,416.667,680.556,V
753,-0.565,1.090,0.055,61.111,113.889,397.222,705.556,288.889,N
754,0.055,-1.180,0.560,38.889,0.000,208.333,380.556,325.000,V
755,-0.200,0.880,-0.090,69.444,113.889,372.222,627.778,247.222,N
756,-0.085,1.565,0.015,58.333,111.111,313.889,922.222,294.444,N
757,0.010,1.845,0.015,58.333,116.667,291.667,538.889,383.333,N
758,-0.055,1.415,-0.145,119.444,113.889,286.111,688.889,150.000,N
759,-0.195,1.000,-0.180,186.111,116.667,283.333,663.889,25.000,N
760,-0.235,0.825,-0.235,197.222,116.667,275.000,647.222,16.667,N
761,-0.345,1.310,-0.015,55.556,100.000,394.444,538.889,108.333,N
762,-0.240,1.050,0.005,55.556,108.333,358.333,388.889,150.000,N
763,0.180,1.555,0.320,77.778,116.667,308.333,788.889,400.000,N
764,0.555,-1.455,1.400,47.222,0.000,202.778,430.556,358.333,V
765,0.100,1.165,-0.005,194.444,105.556,283.333,597.222,166.667,N
766,-0.155,1.475,-0.155,175.000,113.889,300.000,830.556,233.333,N
767,-0.500,0.410,-0.570,197.222,116.667,258.333,841.667,11.111,N
768,-0.190,1.215,0.035,58.333,116.667,394.444,1013.889,172.222,N
769,0.230,-0.920,1.040,47.222,2.778,222.222,450.000,563.889,V
770,0.445,1.645,0.265,58.333,116.667,316.667,1011.111,561.111,N
771,0.065,0.900,0.165,80.556,105.556,277.778,886.111,125.000,N
772,-0.095,0.825,-0.035,152.778,113.889,269.444,741.667,144.444,N
773,-0.035,-0.955,0.575,180.556,16.667,225.000,394.444,347.222,V
774,-0.185,1.210,-0.410,197.222,116.667,291.667,486.111,91.667,N
775,-0.545,0.915,0.060,100.000,116.667,388.889,847.222,361.111,N
776,0.125,0.645,0.640,138.889,72.222,244.444,544.444,302.778,N
777,0.135,0.390,-0.175,180.556,88.889,383.333,500.000,44.444,N
778,-0.150,0.745,-0.105,44.444,83.333,375.000,400.000,100.000,N
779,-0.105,0.855,0.035,47.222,94.444,383.333,388.889,11.111,N
780,-0.120,0.805,0.620,38.889,86.111,377.778,369.444,19.444,N
781,-0.220,0.965,-0.105,144.444,116.667,261.111,358.333,11.111,N
782,-0.160,1.435,-0.050,197.222,113.889,402.778,705.556,347.222,N
783,0.425,-1.805,0.445,33.333,5.556,202.778,402.778,302.778,V
784,-0.190,0.125,-0.080,58.333,72.222,227.778,769.444,366.667,N
785,0.395,-1.840,0.975,38.889,0.000,202.778,486.111,283.333,V
786,-0.070,1.220,0.135,194.444,116.667,380.556,636.111,150.000,N
787,0.135,1.270,1.335,55.556,94.444,377.778,380.556,255.556,N
788,0.075,1.335,0.065,97.222,116.667,277.778,338.889,41.667,N
789,-0.120,1.535,-0.315,169.444,116.667,388.889,788.889,450.000,N
790,-0.315,0.100,1.840,66.667,113.889,308.333,397.222,391.667,V
791,-0.255,0.615,-0.015,119.444,113.889,388.889,888.889,491.667,N
792,0.030,1.350,0.135,63.889,113.889,255.556,475.000,413.889,N
793,0.000,1.300,0.015,191.667,105.556,261.111,427.778,47.222,N
794,-0.160,1.380,-0.380,158.333,111.111,269.444,552.778,125.000,N
795,-0.565,0.640,-0.360,58.333,116.667,322.222,825.000,272.222,N
796,-0.275,0.700,0.225,58.333,116.667,405.556,558.333,266.667,N
797,0.060,0.975,0.140,169.444,116.667,272.222,372.222,186.111,N
798,0.095,1.425,0.620,197.222,116.667,405.556,430.556,58.333,N
799,0.155,1.190,0.095,147.222,86.111,241.667,363.889,66.667,N
800,0.020,1.380,-0.055,175.000,108.333,275.000,422.222,58.333,N
801,-0.375,0.530,-0.120,55.556,100.000,330.556,916.667,494.444,N
802,0.430,-2.450,1.570,41.667,11.111,211.111,413.889,502.778,V
803,1.570,0.685,0.330,177.778,77.778,275.000,386.111,27.778,N
804,0.400,1.585,0.575,125.000,116.667,291.667,666.667,280.556,N
805,0.985,1.645,0.265,44.444,88.889,216.667,700.000,33.333,N
806,0.180,0.640,0.185,38.889,77.778,222.222,736.111,36.111,N
807,0.040,0.855,0.090,58.333,100.000,288.889,736.111,0.000,N
808,0.090,0.605,0.130,191.667,80.556,244.444,430.556,305.556,N
809,-0.150,1.085,-0.230,177.778,113.889,313.889,536.111,105.556,N
810,-0.150,0.195,-0.250,44.444,77.778,233.333,833.333,297.222,N
811,0.160,0.650,0.255,41.667,86.111,202.778,569.444,263.889,N
812,-0.025,1.185,0.305,102.778,113.889,372.222,705.556,136.111,N
813,0.350,1.595,0.520,72.222,116.667,261.111,677.778,27.778,N
814,-0.040,0.440,-0.470,116.667,105.556,283.333,627.778,50.000,N
815,0.010,1.165,0.240,58.333,116.667,397.222,902.778,275.000,N
816,0.330,1.895,0.570,58.333,116.667,261.111,705.556,197.222,N
817,0.330,1.535,0.380,125.000,108.333,297.222,627.778,77.778,N
818,0.395,1.075,0.280,52.778,83.333,227.778,441.667,186.111,N
819,-0.010,1.260,-0.165,177.778,116.667,305.556,727.778,286.111,N
820,-0.250,1.250,-0.380,172.222,116.667,272.222,572.222,155.556,N
821,-0.385,0.780,-0.505,188.889,113.889,272.222,416.667,155.556,N
822,-0.675,0.235,-0.475,58.333,113.889,391.667,680.556,263.889,N
823,-0.475,-1.900,0.450,38.889,0.000,225.000,372.222,308.333,V
824,0.450,1.180,-0.195,161.111,88.889,225.000,386.111,13.889,N
825,-0.010,1.600,0.205,58.333,116.667,291.667,691.667,305.556,N
826,0.145,2.020,0.000,111.111,116.667,261.111,511.111,180.556,N
827,-0.425,0.835,-0.330,191.667,111.111,405.556,694.444,183.333,N
828,-0.160,-1.385,0.840,44.444,0.000,216.667,405.556,288.889,V
829,0.840,1.690,0.280,191.667,116.667,405.556,411.111,5.556,N
830,0.105,1.680,0.595,163.889,116.667,394.444,391.667,19.444,N
831,0.595,1.565,0.400,44.444,91.667,355.556,380.556,11.111,N
832,0.360,1.815,0.300,72.222,116.667,286.111,675.000,294.444,N
833,0.590,-2.470,2.380,38.889,11.111,172.222,422.222,252.778,V
834,0.430,1.645,-0.295,197.222,116.667,277.778,469.444,47.222,N
835,-0.195,1.605,0.010,58.333,113.889,261.111,577.778,108.333,N
836,0.025,1.540,-0.020,58.333,116.667,375.000,772.222,194.444,N
837,-0.020,1.835,1.035,183.333,116.667,402.778,500.000,272.222,N
838,-0.090,1.025,-0.225,127.778,116.667,405.556,341.667,158.333,N
839,-0.280,1.185,-0.310,169.444,116.667,255.556,397.222,55.556,N
840,-0.310,1.305,-0.255,66.667,116.667,341.667,630.556,233.333,N
841,-0.225,1.480,-0.230,72.222,116.667,288.889,655.556,25.000,N
842,-0.210,1.465,-0.380,155.556,116.667,300.000,969.444,313.889,N
843,-0.235,-1.855,0.850,44.444,5.556,197.222,408.333,561.111,V
844,-0.210,1.455,0.020,58.333,116.667,333.333,961.111,552.778,N
845,0.085,1.905,0.290,63.889,111.111,286.111,761.111,200.000,N
846,-0.065,1.615,-0.175,188.889,113.889,383.333,697.222,63.889,N
847,-0.175,-1.430,0.685,47.222,0.000,222.222,372.222,325.000,V
848,0.685,0.170,0.560,163.889,77.778,377.778,386.111,13.889,N
849,-0.060,1.160,0.005,58.333,116.667,261.111,366.667,19.444,N
850,0.115,1.625,0.240,69.444,116.667,402.778,841.667,475.000,N
851,0.755,-2.265,1.320,38.889,0.000,208.333,433.333,408.333,V
852,1.320,-1.440,1.235,147.222,0.000,188.889,355.556,77.778,V
853,1.235,-1.380,1.140,155.556,2.778,188.889,350.000,5.556,V
854,1.120,1.195,-0.135,197.222,113.889,288.889,394.444,44.444,N
855,-0.195,1.360,-0.080,58.333,116.667,405.556,855.556,461.111,N
856,-0.100,0.190,2.045,122.222,100.000,272.222,361.111,494.444,V
857,-0.580,1.085,-0.550,197.222,116.667,377.778,644.444,283.333,N
858,-0.320,0.665,-0.190,58.333,116.667,277.778,747.222,102.778,N
859,-0.175,1.350,-0.155,66.667,105.556,308.333,902.778,155.556,N
860,0.115,-1.785,0.705,36.111,0.000,211.111,472.222,430.556,V
861,-0.225,0.930,-0.350,58.333,116.667,297.222,838.889,366.667,N
862,-0.030,1.235,0.250,58.333,113.889,330.556,1144.444,305.556,N
863,0.250,-1.170,1.380,141.667,2.778,202.778,413.889,730.556,V
864,0.240,1.495,0.060,97.222,105.556,327.778,758.333,344.444,N
865,-0.085,1.510,-0.070,158.333,97.222,241.667,547.222,211.111,N
866,-0.245,1.360,-0.105,58.333,116.667,294.444,738.889,191.667,N
867,-0.150,1.560,-0.055,77.778,116.667,277.778,480.556,258.333,N
868,-0.315,0.715,-0.215,194.444,116.667,327.778,700.000,219.444,N
869,-0.080,0.375,-0.320,50.000,80.556,258.333,847.222,147.222,N
870,-0.440,0.845,-0.215,127.778,105.556,275.000,786.111,61.111,N
871,0.405,1.245,0.700,63.889,105.556,291.667,1269.444,483.333,N
872,0.335,1.610,0.055,130.556,116.667,280.556,1094.444,175.000,N
873,-0.060,0.890,0.185,188.889,94.444,258.333,511.111,583.333,N
874,-0.200,0.905,-0.100,147.222,100.000,288.889,708.333,197.222,N
875,0.115,-1.770,0.510,33.333,2.778,200.000,419.444,288.889,V
876,0.510,-1.280,0.225,130.556,2.778,41.667,330.556,88.889,V
877,-0.105,1.120,-0.010,86.111,116.667,377.778,766.667,436.111,N
878,-0.115,1.290,-0.150,58.333,113.889,291.667,886.111,119.444,N
879,-0.430,1.420,-0.355,72.222,116.667,275.000,655.556,230.556,N
880,-0.450,1.165,-0.275,119.444,108.333,277.778,708.333,52.778,N
881,-0.350,0.660,-0.235,191.667,113.889,402.778,600.000,108.333,N
882,-0.075,0.335,-0.375,41.667,77.778,213.889,397.222,202.778,N
883,-0.400,1.240,-0.505,58.333,100.000,252.778,419.444,22.222,N
884,-0.400,-0.225,-0.210,44.444,61.111,233.333,691.667,272.222,N
885,-0.210,-2.075,0.830,169.444,11.111,211.111,372.222,319.444,V
886,0.830,-1.915,1.375,141.667,13.889,208.333,347.222,25.000,V
887,0.045,0.965,0.385,136.111,97.222,358.333,569.444,222.222,N
888,0.330,0.785,0.325,30.556,72.222,225.000,1061.111,491.667,N
889,0.515,0.765,0.350,38.889,75.000,222.222,650.000,411.111,N
890,0.335,0.575,0.330,50.000,80.556,219.444,452.778,197.222,N
891,0.235,0.960,0.225,50.000,75.000,241.667,608.333,155.556,N
892,0.005,0.870,0.290,105.556,100.000,402.778,519.444,88.889,N
893,0.285,-1.345,0.290,150.000,0.000,30.556,313.889,205.556,V
894,0.010,0.685,0.230,38.889,72.222,266.667,783.333,469.444,N
895,-0.175,1.135,0.220,180.556,113.889,286.111,633.333,150.000,N
896,0.220,0.960,0.250,177.778,80.556,244.444,405.556,227.778,N
897,0.250,1.215,0.295,191.667,111.111,405.556,402.778,2.778,N
898,0.285,1.120,0.475,183.333,86.111,355.556,366.667,36.111,N
899,0.475,0.915,0.170,47.222,63.889,247.222,369.444,2.778,N
900,0.225,0.740,0.265,47.222,80.556,283.333,563.889,194.444,N
901,0.015,0.885,-0.050,119.444,116.667,358.333,758.333,194.444,N
902,-0.030,-1.320,0.550,36.111,0.000,33.333,394.444,363.889,V
903,0.145,1.175,0.450,58.333,105.556,250.000,733.333,338.889,N
904,0.425,1.480,0.625,55.556,100.000,266.667,683.333,50.000,N
905,0.250,1.375,0.170,136.111,105.556,261.111,525.000,158.333,N
906,-0.160,0.830,-0.030,58.333,97.222,266.667,575.000,50.000,N
907,0.075,0.625,0.275,47.222,86.111,377.778,630.556,55.556,N
908,0.275,-0.700,0.715,33.333,2.778,30.556,375.000,255.556,N
909,0.380,-0.580,0.730,97.222,0.000,38.889,358.333,16.667,N
910,0.400,1.050,0.285,50.000,80.556,258.333,819.444,461.111,N
911,0.285,-2.055,1.365,169.444,5.556,208.333,391.667,427.778,V
912,-0.175,0.755,-0.385,58.333,108.333,300.000,661.111,269.444,N
913,-0.680,0.570,-0.570,108.333,108.333,272.222,733.333,72.222,N
914,-0.335,0.195,-0.055,47.222,80.556,211.111,694.444,38.889,N
915,-0.110,0.510,0.190,191.667,83.333,219.444,386.111,308.333,N
916,0.115,0.785,0.155,197.222,86.111,377.778,391.667,5.556,N
917,0.120,0.735,0.005,188.889,88.889,194.444,363.889,27.778,N
918,-0.095,0.915,-0.045,83.333,105.556,277.778,666.667,302.778,N
919,-0.040,-1.050,0.225,30.556,0.000,213.889,388.889,277.778,V
920,0.145,1.045,-0.155,194.444,116.667,394.444,422.222,33.333,N
921,0.045,1.020,1.015,58.333,116.667,388.889,563.889,141.667,N
922,1.015,-1.520,2.625,33.333,0.000,219.444,363.889,200.000,Q
923,0.280,0.250,-0.175,194.444,102.778,238.889,1850.000,1486.111,N
924,-0.550,-0.210,-0.925,197.222,113.889,241.667,569.444,1280.556,N
925,-0.260,-0.540,-0.260,556266.667,116.667,-556208.333,652.778,83.333,N
926,-0.260,-1.245,-0.260,556994.444,88.889,-556963.889,727.778,75.000,N
927,-0.260,-0.570,-0.260,557713.889,113.889,-557655.556,719.444,8.333,N
928,-0.260,-0.050,-0.260,558269.444,111.111,-558213.889,555.556,163.889,N
929,-0.260,-0.030,-0.935,558844.444,116.667,280.556,575.000,19.444,N
930,-0.260,0.210,-0.885,559594.444,116.667,261.111,750.000,175.000,N
931,-0.925,0.570,-0.700,80.556,108.333,263.889,566.667,183.333,N
932,-0.825,0.585,-0.640,58.333,113.889,263.889,491.667,75.000,N
933,-0.700,0.625,-0.555,77.778,116.667,258.333,477.778,13.889,N
934,-0.660,0.255,-0.385,63.889,113.889,322.222,847.222,369.444,N
935,-0.320,1.220,-0.065,63.889,108.333,269.444,550.000,297.222,N
936,-0.040,1.370,0.140,58.333,113.889,275.000,586.111,36.111,N
937,0.085,1.005,0.300,197.222,111.111,402.778,422.222,163.889,N
938,0.300,0.665,0.315,47.222,77.778,230.556,391.667,30.556,N
939,0.195,1.345,0.320,188.889,108.333,294.444,544.444,152.778,N
940,0.255,1.690,0.400,111.111,111.111,272.222,544.444,0.000,N
941,0.055,1.355,0.120,138.889,108.333,286.111,602.778,58.333,N
942,-0.015,1.370,-0.010,166.667,116.667,286.111,611.111,8.333,N
943,-0.055,1.495,0.075,61.111,113.889,283.333,527.778,83.333,N
944,0.190,1.855,0.855,52.778,102.778,388.889,466.667,61.111,N
945,-0.260,2.345,2.625,567911.111,0.000,553413.889,686.111,219.444,N
946,1.845,-0.020,2.420,50.000,0.000,197.222,369.444,316.667,V
947,-0.260,2.070,2.625,568783.333,0.000,553413.889,502.778,133.333,N
948,0.690,1.145,0.345,191.667,108.333,275.000,755.556,252.778,N
949,0.190,0.840,-0.120,197.222,111.111,275.000,650.000,105.556,N
950,-0.470,0.420,-0.720,188.889,113.889,302.778,694.444,44.444,N
951,-0.945,0.230,-0.260,197.222,116.667,-571469.444,644.444,50.000,N
952,-0.260,-0.095,-0.260,572238.889,105.556,-572188.889,711.111,66.667,N
953,-0.260,-0.730,-0.260,572666.667,88.889,-572633.333,427.778,283.333,V
954,-0.260,0.370,-0.260,573333.333,111.111,-573275.000,666.667,238.889,N
955,-0.260,-2.165,0.170,573725.000,2.778,188.889,391.667,275.000,V
956,-0.885,0.700,-0.655,172.222,116.667,397.222,625.000,233.333,N
957,-0.550,1.225,-0.500,55.556,108.333,252.778,472.222,152.778,N
958,-0.550,1.010,-0.505,63.889,113.889,341.667,669.444,197.222,N
959,-0.360,0.480,-0.250,66.667,111.111,227.778,461.111,208.333,N
960,-0.415,1.095,-0.405,191.667,111.111,255.556,405.556,55.556,N
961,-0.275,1.230,-0.250,58.333,116.667,338.889,838.889,433.333,N
962,-0.250,0.115,2.320,122.222,100.000,291.667,402.778,436.111,V
963,-0.335,1.330,-0.200,169.444,116.667,361.111,725.000,322.222,N
964,0.070,1.815,0.045,63.889,113.889,283.333,975.000,250.000,N
965,0.045,1.715,0.000,69.444,116.667,252.778,716.667,258.333,N
966,-0.060,1.720,0.005,61.111,111.111,280.556,641.667,75.000,N
967,0.065,1.710,0.060,58.333,111.111,286.111,675.000,33.333,N
968,-0.135,1.520,-0.040,61.111,111.111,283.333,636.111,38.889,N
969,-0.195,1.060,-0.235,183.333,100.000,255.556,472.222,163.889,N
970,-0.970,-0.735,-0.260,197.222,116.667,-583102.778,719.444,247.222,N
971,-0.260,-0.470,-0.260,583786.111,105.556,-583727.778,625.000,94.444,N
972,-0.260,-1.205,-0.260,584180.556,69.444,-584152.778,394.444,230.556,N
973,-0.785,-0.595,-0.265,44.444,63.889,363.889,761.111,366.667,N
974,-0.265,-0.860,0.610,33.333,0.000,194.444,375.000,386.111,V
975,0.610,1.180,0.745,177.778,91.667,369.444,372.222,2.778,N
976,0.785,1.150,1.325,55.556,91.667,394.444,488.889,116.667,|
977,-0.260,2.505,2.625,586669.444,0.000,553413.889,491.667,2.778,N
978,-0.260,2.715,3.640,587022.222,587069.444,587255.556,352.778,138.889,V
979,-0.260,1.690,3.640,588088.889,0.000,587255.556,1066.667,713.889,N
980,1.440,-0.175,2.250,111.111,2.778,227.778,441.667,625.000,V
981,-0.260,2.355,0.965,589433.333,589491.667,589661.111,902.778,461.111,N
982,0.910,2.335,0.800,169.444,116.667,241.667,544.444,358.333,N
983,0.635,2.005,0.695,77.778,113.889,388.889,608.333,63.889,N
984,0.695,1.665,1.920,55.556,83.333,377.778,388.889,219.444,N
985,0.800,1.920,0.685,169.444,116.667,291.667,338.889,50.000,N
986,0.485,1.365,0.720,130.556,97.222,319.444,850.000,511.111,N
987,1.120,-2.760,2.330,41.667,5.556,175.000,419.444,430.556,V
988,-0.325,1.010,-0.260,80.556,116.667,405.556,772.222,352.778,N
989,-0.140,-2.345,0.740,47.222,2.778,208.333,400.000,372.222,V
990,0.740,-1.395,0.090,175.000,0.000,222.222,380.556,19.444,V
991,-0.320,1.080,-0.330,58.333,116.667,391.667,725.000,344.444,N
992,-0.505,0.620,-0.365,183.333,111.111,291.667,811.111,86.111,N
993,-0.395,0.550,-0.305,77.778,100.000,258.333,747.222,63.889,N
994,-0.425,0.700,-0.455,58.333,116.667,238.889,666.667,80.556,N
995,-0.880,0.395,-0.995,88.889,116.667,402.778,861.111,194.444,N
996,-0.995,-2.785,0.020,38.889,0.000,197.222,383.333,477.778,V
997,-0.440,0.070,0.745,58.333,72.222,380.556,677.778,294.444,N
998,0.625,-0.220,-0.260,197.222,86.111,-599644.444,663.889,13.889,N
999,-0.260,-2.665,-0.905,600052.778,0.000,236.111,380.556,283.333,N
1000,-0.710,-1.725,-0.305,25.000,2.778,236.111,388.889,8.333,N
1001,0.085,1.005,0.625,58.333,102.778,316.667,750.000,361.111,N
1002,0.585,1.730,0.640,83.333,94.444,280.556,625.000,125.000,N
1003,0.640,1.450,0.530,172.222,86.111,250.000,394.444,230.556,N
1004,0.380,1.635,0.370,125.000,108.333,286.111,555.556,161.111,N
1005,0.370,-1.645,1.095,122.222,0.000,202.778,352.778,202.778,V
1006,0.910,0.640,0.275,197.222,86.111,233.333,416.667,63.889,N
1007,0.270,0.595,0.515,55.556,94.444,216.667,563.889,147.222,N
1008,0.315,0.935,0.225,41.667,86.111,197.222,686.111,122.222,N
1009,0.025,1.175,0.190,69.444,105.556,280.556,641.667,44.444,N
1010,-0.030,1.110,0.005,186.111,111.111,269.444,663.889,22.222,N
1011,-0.115,0.555,0.205,155.556,105.556,280.556,625.000,38.889,N
1012,0.000,0.665,0.170,50.000,69.444,225.000,458.333,166.667,N
1013,-0.030,1.015,0.055,58.333,116.667,300.000,655.556,197.222,N
1014,0.055,1.055,-0.035,197.222,80.556,219.444,438.889,216.667,N
1015,-0.270,1.020,-0.395,197.222,108.333,277.778,616.667,177.778,N
1016,-0.530,0.805,-0.290,163.889,102.778,388.889,697.222,80.556,N
1017,-0.290,-1.860,0.905,47.222,2.778,194.444,377.778,319.444,V
1018,-0.040,1.200,0.120,63.889,116.667,325.000,758.333,380.556,N
1019,0.085,1.475,0.080,102.778,111.111,269.444,700.000,58.333,N
1020,-0.135,1.185,-0.080,194.444,111.111,280.556,725.000,25.000,N
1021,-0.120,1.440,-0.125,127.778,116.667,400.000,669.444,55.556,N
1022,-0.125,-1.125,0.355,50.000,2.778,216.667,391.667,277.778,V
1023,0.355,-0.985,0.165,105.556,5.556,211.111,322.222,69.444,V
1024,0.130,0.695,-0.065,197.222,111.111,266.667,416.667,94.444,N
1025,-0.005,1.435,0.190,113.889,113.889,330.556,522.222,105.556,N
1026,-0.065,1.370,0.030,63.889,111.111,261.111,616.667,94.444,N
1027,-0.070,1.265,-0.325,97.222,116.667,272.222,438.889,177.778,N
1028,-0.725,-0.030,-0.900,186.111,116.667,375.000,600.000,161.111,N
1029,-0.900,0.510,-0.585,130.556,116.667,263.889,744.444,144.444,N
1030,-0.575,1.095,-0.165,58.333,116.667,322.222,483.333,261.111,N
1031,-0.140,1.255,0.035,127.778,108.333,269.444,730.556,247.222,N
1032,-0.090,1.235,-0.110,58.333,116.667,311.111,755.556,25.000,N
1033,-0.110,-1.570,0.675,125.000,2.778,227.778,377.778,377.778,V
1034,0.675,-2.465,1.085,105.556,2.778,177.778,330.556,47.222,V
1035,-0.520,0.445,-0.395,175.000,100.000,344.444,858.333,527.778,N
1036,-0.225,-3.495,1.525,38.889,8.333,200.000,400.000,458.333,V
1037,-0.630,0.995,-0.650,161.111,97.222,336.111,580.556,180.556,N
1038,-0.490,1.265,-0.630,100.000,105.556,300.000,536.111,44.444,N
1039,-0.610,1.215,-0.675,138.889,113.889,272.222,555.556,19.444,N
1040,-0.570,1.130,-0.310,75.000,111.111,322.222,686.111,130.556,N
1041,-0.290,1.365,-0.050,97.222,116.667,275.000,591.667,94.444,N
1042,-0.035,0.730,0.185,144.444,94.444,252.778,538.889,52.778,N
1043,0.150,0.625,0.400,55.556,86.111,227.778,666.667,127.778,N
1044,0.245,0.810,0.350,58.333,86.111,233.333,633.333,33.333,N
1045,0.095,0.615,0.155,47.222,77.778,213.889,1172.222,538.889,N
1046,0.425,-2.710,1.960,41.667,13.889,183.333,413.889,758.333,V
1047,0.025,-0.945,0.235,25.000,0.000,25.000,963.889,550.000,N
1048,-0.090,-1.170,0.020,27.778,2.778,208.333,675.000,288.889,N
1049,0.020,-2.580,1.035,169.444,0.000,191.667,377.778,297.222,V
1050,1.035,-1.990,0.470,130.556,2.778,219.444,322.222,55.556,V
1051,0.195,0.515,0.080,197.222,75.000,330.556,447.222,125.000,N
1052,0.080,-1.875,0.485,33.333,2.778,186.111,333.333,113.889,V
1053,0.120,0.730,-0.030,52.778,88.889,266.667,786.111,452.778,N
1054,-0.135,0.845,-0.095,97.222,116.667,263.889,530.556,255.556,N
1055,0.050,0.195,-0.035,50.000,91.667,216.667,436.111,94.444,N
1056,0.025,0.405,0.165,58.333,77.778,222.222,777.778,341.667,N
1057,0.165,-2.265,1.175,177.778,2.778,205.556,369.444,408.333,V
1058,0.155,0.755,0.030,52.778,77.778,327.778,669.444,300.000,N
1059,0.030,-2.470,1.230,38.889,0.000,211.111,338.889,330.556,V
1060,-0.060,0.330,-0.330,47.222,86.111,216.667,677.778,338.889,N
1061,-0.150,-0.955,0.045,25.000,2.778,27.778,733.333,55.556,N
1062,0.235,0.880,0.700,58.333,63.889,222.222,752.778,19.444,N
1063,0.640,-0.715,0.890,194.444,0.000,30.556,408.333,344.444,N
1064,0.430,1.075,0.285,44.444,77.778,233.333,547.222,138.889,N
1065,0.285,-2.175,0.585,161.111,0.000,197.222,366.667,180.556,V
1066,0.300,-0.825,0.255,22.222,2.778,27.778,694.444,327.778,N
1067,0.320,-1.135,0.420,27.778,0.000,202.778,619.444,75.000,N
1068,0.150,0.475,0.490,47.222,91.667,197.222,511.111,108.333,N
1069,0.490,-1.265,0.305,130.556,2.778,27.778,294.444,216.667,N
1070,0.230,0.490,0.170,41.667,83.333,194.444,441.667,147.222,N
1071,0.035,0.305,-0.070,44.444,83.333,225.000,705.556,263.889,N
1072,-0.070,-2.610,1.035,172.222,5.556,211.111,369.444,336.111,V
1073,1.035,-2.465,1.360,88.889,0.000,191.667,294.444,75.000,V
1074,1.360,-2.535,0.915,158.333,0.000,208.333,350.000,55.556,V
1075,0.915,-2.425,0.870,172.222,0.000,194.444,380.556,30.556,V
1076,-0.355,0.295,-0.080,47.222,86.111,230.556,630.556,250.000,N
1077,0.075,1.040,0.365,58.333,116.667,263.889,561.111,69.444,N
1078,0.435,1.175,0.365,41.667,83.333,244.444,888.889,327.778,N
1079,0.105,1.065,0.395,161.111,102.778,394.444,575.000,313.889,N
1080,0.185,0.385,0.200,144.444,80.556,261.111,336.111,238.889,N
1081,0.225,-0.745,0.215,22.222,2.778,25.000,419.444,83.333,N
1082,-0.025,0.725,0.215,52.778,58.333,227.778,897.222,477.778,N
1083,0.165,-1.805,0.315,197.222,2.778,33.333,397.222,500.000,V
1084,-0.400,0.660,-0.140,63.889,111.111,272.222,705.556,308.333,N
1085,-0.405,0.605,-0.315,197.222,116.667,244.444,647.222,58.333,N
1086,-0.535,0.280,-0.335,44.444,88.889,213.889,600.000,47.222,N
1087,-0.065,0.145,0.040,52.778,88.889,250.000,436.111,163.889,N
1088,0.275,1.150,0.610,41.667,75.000,369.444,658.333,222.222,N
1089,0.610,-1.765,1.655,41.667,0.000,200.000,380.556,277.778,V
1090,1.655,1.520,0.995,150.000,72.222,375.000,355.556,25.000,N
1091,0.590,1.535,0.620,97.222,116.667,194.444,366.667,11.111,N
1092,0.245,1.500,0.300,194.444,116.667,405.556,713.889,347.222,N
1093,0.355,-2.905,1.995,38.889,5.556,194.444,391.667,322.222,V
1094,-0.255,0.765,-0.170,58.333,113.889,302.778,769.444,377.778,N
1095,-0.085,1.390,0.000,125.000,116.667,247.222,538.889,230.556,N
1096,-0.160,1.145,-0.125,58.333,108.333,330.556,697.222,158.333,N
1097,-0.275,0.900,-0.200,197.222,116.667,277.778,686.111,11.111,N
1098,-0.210,0.955,-0.045,61.111,102.778,258.333,813.889,127.778,N
1099,-0.045,-1.670,0.820,161.111,0.000,191.667,366.667,447.222,V
1100,0.820,-1.555,1.130,172.222,2.778,194.444,363.889,2.778,V
1101,-0.285,1.050,-0.060,66.667,116.667,405.556,961.111,597.222,N
1102,-0.125,1.445,0.030,108.333,116.667,252.778,788.889,172.222,N
1103,-0.080,1.435,0.020,58.333,113.889,286.111,747.222,41.667,N
1104,-0.170,1.100,0.135,91.667,108.333,261.111,538.889,208.333,N
1105,-0.075,1.305,0.110,58.333,116.667,286.111,577.778,38.889,N
1106,-0.025,1.460,0.120,113.889,116.667,261.111,658.333,80.556,N
1107,0.095,1.675,0.190,83.333,113.889,272.222,805.556,147.222,N
1108,0.095,1.835,0.200,177.778,116.667,280.556,558.333,247.222,N
1109,0.200,1.045,0.110,161.111,80.556,219.444,383.333,175.000,N
1110,-0.150,1.240,-0.115,77.778,108.333,300.000,647.222,263.889,N
1111,-0.125,1.180,0.035,141.667,108.333,247.222,800.000,152.778,N
1112,0.095,1.500,0.390,63.889,111.111,258.333,652.778,147.222,N
1113,0.185,1.800,0.370,191.667,113.889,244.444,500.000,152.778,N
1114,0.040,1.630,0.175,102.778,113.889,272.222,558.333,58.333,N
1115,-0.010,1.260,-0.020,58.333,116.667,258.333,747.222,188.889,N
1116,-0.095,1.055,0.090,58.333,113.889,258.333,719.444,27.778,N
1117,0.090,-1.475,0.980,175.000,0.000,205.556,375.000,344.444,V
1118,-0.020,1.535,-0.090,58.333,113.889,280.556,550.000,175.000,N
1119,-0.205,1.430,0.090,69.444,116.667,386.111,638.889,88.889,N
1120,0.090,-1.925,1.090,41.667,0.000,197.222,369.444,269.444,V
1121,-0.305,0.720,-0.075,163.889,102.778,263.889,775.000,405.556,N
1122,-0.100,1.490,0.115,197.222,116.667,366.667,652.778,122.222,N
1123,0.115,-1.030,0.960,61.111,5.556,186.111,369.444,283.333,V
1124,0.325,1.580,-0.125,197.222,116.667,227.778,430.556,61.111,N
1125,-0.230,-0.410,0.855,22.222,16.667,208.333,522.222,91.667,|
1126,0.090,0.815,-0.185,147.222,111.111,297.222,197.222,325.000,N
1127,-0.155,1.010,0.050,91.667,102.778,275.000,875.000,677.778,N
1128,0.105,1.370,0.250,97.222,116.667,258.333,1022.222,147.222,N
1129,0.375,0.635,0.355,44.444,88.889,216.667,744.444,277.778,N
1130,0.290,-0.895,0.555,25.000,2.778,194.444,730.556,13.889,N
1131,0.160,-0.700,0.645,25.000,0.000,30.556,691.667,38.889,N
1132,0.115,0.615,0.475,58.333,63.889,222.222,575.000,116.667,N
1133,0.475,-1.415,0.355,163.889,2.778,30.556,352.778,222.222,N
1134,0.315,-1.420,0.420,180.556,2.778,33.333,355.556,2.778,N
1135,-0.015,0.545,0.200,69.444,88.889,238.889,713.889,358.333,N
1136,0.260,0.800,0.375,55.556,83.333,205.556,508.333,205.556,N
1137,0.195,0.550,0.095,50.000,91.667,225.000,866.667,358.333,N
1138,-0.295,-1.620,-0.095,27.778,0.000,205.556,719.444,147.222,N
1139,-0.115,-1.385,0.365,25.000,0.000,194.444,616.667,102.778,N
1140,0.260,-1.715,0.880,30.556,2.778,211.111,652.778,36.111,N
1141,0.475,-1.270,1.010,105.556,0.000,202.778,705.556,52.778,N
1142,0.580,-1.405,0.810,25.000,0.000,191.667,455.556,250.000,N
1143,0.265,-1.495,0.425,33.333,2.778,225.000,825.000,369.444,N
1144,-0.155,-1.515,-0.065,152.778,0.000,30.556,586.111,238.889,N
1145,-0.425,-1.945,-0.180,22.222,2.778,227.778,441.667,144.444,N
1146,-0.225,-1.470,0.210,30.556,2.778,241.667,633.333,191.667,N
1147,0.210,-1.775,0.285,186.111,0.000,30.556,425.000,208.333,N
1148,0.100,-0.980,0.525,27.778,0.000,27.778,563.889,138.889,N
1149,0.170,-0.885,0.815,152.778,0.000,33.333,588.889,25.000,N
1150,0.460,1.300,0.505,172.222,116.667,236.111,750.000,161.111,N
1151,0.490,-2.150,1.210,41.667,2.778,191.667,380.556,369.444,V
1152,-0.030,0.265,0.115,55.556,69.444,275.000,786.111,405.556,N
1153,0.050,0.900,-0.030,191.667,83.333,236.111,608.333,177.778,N
1154,-0.055,0.365,-0.130,194.444,86.111,238.889,408.333,200.000,N
1155,-0.180,0.565,-0.205,197.222,88.889,230.556,413.889,5.556,N
1156,-0.465,0.170,-0.630,50.000,94.444,272.222,855.556,441.667,N
1157,-0.780,-0.095,-0.565,61.111,72.222,227.778,697.222,158.333,N
1158,-0.565,-1.770,-0.115,150.000,0.000,219.444,344.444,352.778,V
1159,-0.095,1.010,0.290,47.222,88.889,372.222,691.667,347.222,N
1160,0.290,1.320,0.060,61.111,88.889,216.667,402.778,288.889,N
1161,-0.195,0.680,-0.245,41.667,83.333,238.889,644.444,241.667,N
1162,-0.095,0.695,0.450,55.556,83.333,241.667,613.889,30.556,N
1163,0.345,1.705,0.475,55.556,105.556,261.111,647.222,33.333,N
1164,0.405,1.820,0.455,50.000,86.111,247.222,469.444,177.778,N
1165,0.365,1.435,0.260,197.222,116.667,283.333,438.889,30.556,N
1166,-0.025,1.150,0.035,105.556,116.667,263.889,527.778,88.889,N
1167,0.010,0.485,0.065,197.222,77.778,216.667,408.333,119.444,N
1168,0.065,0.470,-0.190,188.889,97.222,225.000,372.222,36.111,N
1169,-0.590,0.490,-0.570,180.556,102.778,261.111,508.333,136.111,N
1170,-0.480,0.480,-0.220,55.556,69.444,377.778,433.333,75.000,N
1171,-0.220,0.880,-0.060,47.222,83.333,225.000,391.667,41.667,N
1172,-0.120,1.005,-0.095,191.667,102.778,252.778,575.000,183.333,N
1173,-0.095,-2.325,1.030,141.667,0.000,186.111,336.111,238.889,V
1174,-0.115,0.500,0.060,55.556,77.778,252.778,544.444,208.333,N
1175,0.055,1.490,0.100,144.444,102.778,361.111,688.889,144.444,N
1176,0.080,1.720,0.180,69.444,113.889,277.778,536.111,152.778,N
1177,0.180,1.160,0.040,191.667,116.667,263.889,411.111,125.000,N
1178,0.040,0.770,-0.065,163.889,91.667,202.778,369.444,41.667,N
1179,-0.265,0.610,-0.135,127.778,91.667,291.667,661.111,291.667,N
1180,-0.135,0.405,2.705,136.111,102.778,280.556,394.444,266.667,V
1181,0.345,0.835,-0.535,197.222,97.222,280.556,563.889,169.444,N
1182,-0.460,1.100,-0.105,58.333,116.667,247.222,550.000,13.889,N
1183,-0.325,0.460,-0.245,50.000,80.556,188.889,713.889,163.889,N
1184,-0.335,0.780,-0.100,86.111,102.778,241.667,638.889,75.000,N
1185,-0.100,0.790,0.005,180.556,102.778,219.444,375.000,263.889,N
1186,0.005,1.135,-0.095,188.889,113.889,252.778,372.222,2.778,N
1187,-0.160,1.120,-0.150,58.333,113.889,405.556,733.333,361.111,N
1188,-0.165,0.720,-0.070,88.889,88.889,372.222,919.444,186.111,N
1189,0.230,-1.860,0.790,66.667,0.000,191.667,469.444,450.000,V
1190,-0.125,1.310,-0.125,66.667,116.667,344.444,705.556,236.111,N
1191,-0.050,1.065,0.020,41.667,83.333,222.222,725.000,19.444,N
1192,0.020,-2.260,1.185,152.778,0.000,197.222,347.222,377.778,V
1193,1.185,-2.275,1.415,113.889,0.000,177.778,311.111,36.111,V
1194,1.415,-2.225,1.080,155.556,13.889,188.889,333.333,22.222,V
1195,-0.355,0.585,-0.155,52.778,86.111,322.222,575.000,241.667,N
1196,-0.310,0.975,-0.325,52.778,102.778,238.889,666.667,91.667,N
1197,-0.200,0.695,-0.240,38.889,83.333,338.889,816.667,150.000,N
1198,-0.185,0.640,0.040,55.556,80.556,227.778,463.889,352.778,N
1199,-0.135,1.210,0.075,94.444,116.667,344.444,661.111,197.222,N
1200,0.190,-1.475,0.950,41.667,0.000,202.778,397.222,263.889,V
1201,0.090,1.200,0.010,55.556,105.556,244.444,725.000,327.778,N
1202,0.010,-2.265,1.195,194.444,0.000,202.778,391.667,333.333,V
1203,-0.175,0.560,-0.200,172.222,72.222,308.333,802.778,411.111,N
1204,-0.080,-2.165,1.415,47.222,8.333,194.444,419.444,383.333,V
1205,1.415,-2.615,1.260,66.667,2.778,175.000,263.889,155.556,V
1206,-0.305,-1.320,0.060,33.333,2.778,38.889,502.778,238.889,N
1207,-0.190,0.275,-0.165,41.667,86.111,186.111,622.222,119.444,N
1208,-0.165,-2.445,0.930,188.889,2.778,183.333,347.222,275.000,V
1209,-0.120,0.655,0.215,63.889,72.222,341.667,638.889,291.667,N
1210,0.215,-2.110,1.495,44.444,0.000,197.222,361.111,277.778,V
1211,0.455,0.960,0.420,63.889,75.000,236.111,786.111,425.000,N
1212,0.405,1.205,0.605,188.889,102.778,252.778,588.889,197.222,N
1213,0.300,1.125,0.390,55.556,94.444,222.222,569.444,19.444,N
1214,0.190,0.655,-0.285,197.222,88.889,197.222,402.778,166.667,N
1215,-0.735,0.355,-0.590,188.889,108.333,244.444,527.778,125.000,N
1216,-0.500,0.855,-0.205,75.000,105.556,244.444,547.222,19.444,N
1217,-0.220,1.565,0.285,188.889,102.778,227.778,463.889,83.333,N
1218,0.065,1.655,0.370,127.778,108.333,236.111,519.444,55.556,N
1219,-0.070,1.110,0.100,77.778,108.333,233.333,716.667,197.222,N
1220,-0.120,0.900,-0.190,197.222,91.667,227.778,422.222,294.444,N
1221,-0.515,1.075,-0.300,116.667,116.667,280.556,600.000,177.778,N
1222,-0.255,1.160,-0.240,55.556,97.222,375.000,425.000,175.000,N
1223,-0.240,0.965,-0.355,41.667,91.667,222.222,380.556,44.444,N
1224,-0.400,0.295,-0.225,47.222,88.889,219.444,680.556,300.000,N
1225,-0.270,0.970,-0.130,158.333,91.667,236.111,861.111,180.556,N
1226,-0.130,-1.605,0.900,150.000,11.111,211.111,350.000,511.111,V
1227,0.900,-1.670,1.105,72.222,16.667,175.000,275.000,75.000,V
1228,-0.180,1.660,-0.170,119.444,116.667,391.667,494.444,219.444,N
1229,-0.090,1.135,0.205,158.333,111.111,247.222,588.889,94.444,N
1230,0.145,0.875,0.140,50.000,86.111,205.556,425.000,163.889,N
1231,0.890,-0.225,-0.160,194.444,22.222,258.333,191.667,233.333,|
1232,-0.005,0.675,0.005,38.889,66.667,208.333,405.556,213.889,N
1233,-0.135,1.150,0.170,152.778,111.111,263.889,577.778,172.222,N
1234,0.135,1.095,0.275,50.000,91.667,250.000,747.222,169.444,N
1235,0.050,1.080,0.225,58.333,113.889,252.778,619.444,127.778,N
1236,0.030,0.780,0.290,52.778,80.556,197.222,688.889,69.444,N
1237,0.215,-1.725,0.555,30.556,0.000,36.111,383.333,305.556,V
1238,-0.110,1.105,0.005,58.333,111.111,252.778,705.556,322.222,N
1239,-0.065,1.125,0.055,147.222,113.889,250.000,544.444,161.111,N
1240,-0.235,0.115,0.230,55.556,58.333,208.333,597.222,52.778,N
1241,-0.065,0.615,0.315,172.222,86.111,222.222,536.111,61.111,N
1242,-0.010,0.515,0.185,44.444,80.556,186.111,436.111,100.000,N
1243,0.185,-0.995,0.335,177.778,0.000,25.000,333.333,102.778,N
1244,0.150,0.350,0.325,55.556,77.778,194.444,388.889,55.556,N
1245,0.065,0.400,0.235,194.444,63.889,194.444,494.444,105.556,N
1246,-0.070,0.410,0.150,61.111,61.111,216.667,750.000,255.556,N
1247,0.060,0.670,0.425,66.667,61.111,233.333,680.556,69.444,N
1248,0.035,1.000,0.450,138.889,97.222,236.111,641.667,38.889,N
1249,0.015,1.100,0.235,197.222,116.667,225.000,611.111,30.556,N
1250,0.015,0.620,0.250,44.444,77.778,205.556,727.778,116.667,N
1251,0.250,-2.125,1.185,172.222,2.778,172.222,350.000,377.778,V
1252,1.185,-2.005,1.350,77.778,0.000,194.444,250.000,100.000,V
1253,1.350,-1.770,1.395,150.000,13.889,172.222,352.778,102.778,V
1254,1.395,-1.145,0.390,194.444,2.778,183.333,363.889,11.111,V
1255,-0.055,0.775,0.165,50.000,88.889,341.667,666.667,302.778,N
1256,0.165,-2.290,1.285,41.667,5.556,188.889,352.778,313.889,V
1257,-0.105,0.490,0.030,50.000,88.889,225.000,719.444,366.667,N
1258,-0.070,0.920,0.180,55.556,102.778,227.778,580.556,138.889,N
1259,0.010,0.545,0.245,47.222,80.556,222.222,730.556,150.000,N
1260,0.170,0.905,0.400,55.556,58.333,202.778,413.889,316.667,N
1261,0.065,0.455,0.210,130.556,61.111,208.333,852.778,438.889,N
1262,0.135,0.725,0.435,58.333,72.222,219.444,708.333,144.444,N
1263,0.435,-2.335,1.370,163.889,2.778,186.111,350.000,358.333,V
1264,1.370,-1.890,0.865,130.556,2.778,341.667,313.889,36.111,V
1265,0.720,0.840,0.075,158.333,80.556,213.889,344.444,30.556,N
1266,-0.045,0.465,0.170,50.000,80.556,211.111,622.222,277.778,N
1267,-0.160,0.415,0.020,47.222,80.556,202.778,563.889,58.333,N
1268,-0.430,0.190,0.025,58.333,77.778,205.556,483.333,80.556,N
1269,-0.385,0.550,-0.060,150.000,113.889,241.667,619.444,136.111,N
1270,-0.155,1.010,0.195,113.889,105.556,230.556,541.667,77.778,N
1271,-0.020,1.350,0.280,55.556,113.889,236.111,558.333,16.667,N
1272,0.280,-1.920,1.230,152.778,5.556,202.778,333.333,225.000,V
1273,1.230,0.680,0.595,166.667,75.000,186.111,363.889,30.556,N
1274,0.325,-0.850,0.585,69.444,0.000,27.778,488.889,125.000,N
1275,-0.195,0.590,-0.105,58.333,86.111,211.111,750.000,261.111,N
1276,-0.105,-2.525,0.480,166.667,0.000,200.000,347.222,402.778,V
1277,0.480,0.390,-0.190,150.000,86.111,194.444,352.778,5.556,N
1278,-0.125,0.470,0.065,52.778,69.444,230.556,650.000,297.222,N
1279,0.065,-2.265,0.625,183.333,0.000,191.667,386.111,263.889,V
1280,-0.130,0.380,0.215,61.111,55.556,230.556,597.222,211.111,N
1281,0.120,1.070,0.400,125.000,88.889,211.111,836.111,238.889,N
1282,-0.005,1.215,0.320,155.556,111.111,261.111,761.111,75.000,N
1283,0.320,-2.060,1.450,166.667,0.000,166.667,369.444,391.667,V
1284,1.450,-2.205,1.505,177.778,0.000,183.333,347.222,22.222,V
1285,1.505,-2.400,1.355,127.778,0.000,186.111,311.111,36.111,V
1286,1.355,-1.530,0.885,147.222,0.000,158.333,333.333,22.222,V
1287,-0.025,0.415,0.185,41.667,75.000,222.222,705.556,372.222,N
1288,0.060,0.600,0.265,47.222,86.111,197.222,483.333,222.222,N
1289,0.280,0.645,0.325,122.222,58.333,241.667,686.111,202.778,N
1290,0.325,-2.040,1.275,141.667,2.778,213.889,352.778,333.333,V
1291,-0.070,0.815,-0.050,91.667,97.222,366.667,650.000,297.222,N
1292,-0.010,0.145,0.325,61.111,63.889,191.667,719.444,69.444,N
1293,-0.030,0.840,0.430,50.000,69.444,216.667,605.556,113.889,N
1294,0.050,0.710,1.795,38.889,77.778,225.000,555.556,50.000,N
1295,0.740,1.060,-0.110,80.556,33.333,108.333,202.778,352.778,|
1296,-0.185,0.210,0.235,47.222,86.111,205.556,461.111,258.333,N
1297,0.235,-2.460,1.155,175.000,0.000,172.222,352.778,108.333,V
1298,1.155,-2.280,0.685,136.111,0.000,188.889,308.333,44.444,V
1299,0.685,-1.060,0.480,141.667,0.000,33.333,338.889,30.556,N
1300,0.105,-1.050,0.465,186.111,0.000,172.222,419.444,80.556,N
1301,0.465,-1.765,0.290,163.889,0.000,202.778,338.889,80.556,V
1302,-0.080,0.940,0.100,58.333,86.111,202.778,800.000,461.111,N
1303,0.035,0.545,2.180,141.667,100.000,275.000,369.444,430.556,V
1304,-0.030,-1.065,0.110,197.222,0.000,25.000,555.556,186.111,N
1305,-0.125,0.790,0.295,127.778,80.556,211.111,525.000,30.556,N
1306,-0.070,1.010,0.165,58.333,91.667,230.556,597.222,72.222,N
1307,0.040,0.980,0.260,111.111,94.444,227.778,461.111,136.111,N
1308,0.445,0.925,0.290,36.111,77.778,180.556,536.111,75.000,N
1309,0.005,0.380,0.420,52.778,77.778,213.889,575.000,38.889,N
1310,0.070,0.645,0.260,183.333,72.222,233.333,613.889,38.889,N
1311,0.085,1.180,0.225,83.333,116.667,244.444,597.222,16.667,N
1312,0.210,0.900,0.375,197.222,63.889,336.111,386.111,211.111,N
1313,0.255,0.215,0.090,144.444,75.000,350.000,308.333,77.778,N
1314,0.090,0.185,0.050,50.000,88.889,183.333,372.222,63.889,N
1315,-0.210,0.595,0.005,44.444,86.111,227.778,630.556,258.333,N
1316,-0.230,0.760,-0.020,183.333,111.111,244.444,661.111,30.556,N
1317,-0.020,-1.615,0.290,175.000,2.778,188.889,361.111,300.000,V
1318,0.290,0.595,0.010,194.444,94.444,222.222,383.333,22.222,N
1319,-0.220,0.745,-0.100,44.444,91.667,372.222,777.778,394.444,N
1320,-0.100,0.830,0.635,61.111,86.111,347.222,400.000,377.778,N
1321,-0.200,0.635,-0.080,155.556,88.889,225.000,313.889,86.111,N
1322,-0.110,0.925,0.050,52.778,86.111,225.000,530.556,216.667,N
1323,-0.065,1.190,0.100,133.333,102.778,225.000,486.111,44.444,N
1324,-0.145,1.295,0.050,130.556,116.667,258.333,625.000,138.889,N
1325,-0.225,1.435,0.070,133.333,111.111,388.889,758.333,133.333,N
1326,-0.110,1.010,-0.025,169.444,111.111,275.000,644.444,113.889,N
1327,-0.055,1.835,0.050,169.444,105.556,258.333,819.444,175.000,N
1328,-0.030,2.100,-0.040,188.889,116.667,258.333,513.889,305.556,N
1329,-0.370,1.380,-0.125,94.444,108.333,383.333,694.444,180.556,N
1330,-0.125,-1.995,1.135,52.778,0.000,175.000,377.778,316.667,V
1331,1.135,-2.155,1.315,144.444,2.778,183.333,322.222,55.556,V
1332,1.315,-1.355,0.765,166.667,0.000,186.111,350.000,27.778,V
1333,-0.360,0.830,-0.140,52.778,86.111,238.889,613.889,263.889,N
1334,-0.180,1.210,-0.030,52.778,97.222,222.222,644.444,30.556,N
1335,-0.220,1.535,0.185,58.333,113.889,238.889,480.556,163.889,N
1336,0.185,0.780,0.285,194.444,75.000,200.000,375.000,105.556,N
1337,-0.035,0.545,0.260,44.444,83.333,200.000,416.667,41.667,N
1338,0.000,0.970,0.160,52.778,88.889,216.667,458.333,41.667,N
1339,-0.035,1.135,0.050,100.000,94.444,255.556,680.556,222.222,N
1340,0.130,1.205,0.080,52.778,91.667,213.889,469.444,211.111,N
1341,-0.125,1.230,-0.015,55.556,105.556,277.778,616.667,147.222,N
1342,0.135,0.840,0.625,61.111,75.000,352.778,430.556,186.111,N
1343,0.270,0.580,0.180,158.333,80.556,188.889,325.000,105.556,N
1344,0.135,0.880,-0.065,197.222,91.667,216.667,375.000,50.000,N
1345,-0.200,1.055,-0.045,55.556,86.111,227.778,672.222,297.222,N
1346,-0.165,1.245,0.075,47.222,100.000,213.889,622.222,50.000,N
1347,-0.020,1.350,-0.020,52.778,102.778,241.667,741.667,119.444,N
1348,0.030,0.855,0.170,50.000,83.333,194.444,727.778,13.889,N
1349,0.030,0.855,0.810,69.444,91.667,383.333,405.556,322.222,N
1350,0.355,0.940,0.225,191.667,91.667,225.000,355.556,50.000,N
1351,-0.105,1.320,-0.060,172.222,111.111,272.222,497.222,141.667,N
1352,-0.025,1.320,0.120,50.000,94.444,222.222,491.667,5.556,N
1353,0.120,1.120,0.460,183.333,88.889,377.778,369.444,122.222,N
1354,0.070,0.830,0.050,50.000,80.556,205.556,361.111,8.333,N
1355,-0.095,0.465,0.095,58.333,80.556,380.556,566.667,205.556,N
1356,0.155,0.800,0.095,55.556,91.667,216.667,405.556,161.111,N
1357,-0.110,1.190,0.015,61.111,100.000,358.333,566.667,161.111,N
1358,-0.150,1.285,0.070,58.333,116.667,338.889,677.778,111.111,N
1359,0.070,-1.655,1.160,44.444,8.333,188.889,325.000,352.778,V
1360,1.160,0.695,0.045,175.000,88.889,216.667,363.889,38.889,N
1361,-0.265,0.455,0.010,58.333,83.333,327.778,577.778,213.889,N
1362,0.010,-2.045,1.210,44.444,16.667,205.556,338.889,238.889,V
1363,1.210,-1.690,1.135,150.000,2.778,186.111,350.000,11.111,V
1364,-0.215,1.165,-0.110,58.333,116.667,261.111,630.556,280.556,N
1365,-0.105,1.220,-0.090,58.333,108.333,366.667,930.556,300.000,N
1366,-0.090,-2.060,1.315,47.222,5.556,191.667,363.889,566.667,V
1367,1.315,-2.330,1.240,147.222,8.333,180.556,341.667,22.222,V
1368,-0.330,0.915,-0.250,197.222,116.667,325.000,647.222,305.556,N
1369,-0.170,1.170,-0.220,44.444,86.111,208.333,469.444,177.778,N
1370,-0.210,1.005,-0.300,55.556,88.889,241.667,741.667,272.222,N
1371,-0.370,1.090,0.460,186.111,113.889,388.889,608.333,133.333,N
1372,-0.160,-1.840,0.460,127.778,2.778,36.111,294.444,313.889,V
1373,-0.235,0.965,-0.105,52.778,91.667,272.222,800.000,505.556,N
1374,0.120,1.055,0.160,58.333,94.444,219.444,438.889,361.111,N
1375,-0.105,1.405,-0.010,186.111,113.889,255.556,550.000,111.111,N
1376,-0.105,1.355,0.215,58.333,116.667,405.556,800.000,250.000,N
1377,0.215,1.070,0.320,55.556,83.333,194.444,402.778,397.222,N
1378,-0.055,0.940,-0.105,52.778,91.667,355.556,655.556,252.778,N
1379,-0.055,1.240,0.085,47.222,86.111,213.889,488.889,166.667,N
1380,-0.150,1.280,0.075,122.222,116.667,238.889,469.444,19.444,N
1381,-0.145,1.120,-0.040,58.333,113.889,383.333,905.556,436.111,N
1382,-0.040,-1.955,1.185,41.667,2.778,197.222,366.667,538.889,V
1383,-0.240,1.050,-0.115,58.333,116.667,380.556,719.444,352.778,N
1384,0.045,1.475,0.000,58.333,108.333,252.778,850.000,130.556,N
1385,0.010,1.690,0.175,58.333,113.889,258.333,588.889,261.111,N
1386,-0.130,1.640,0.095,163.889,116.667,238.889,497.222,91.667,N
1387,-0.215,0.940,-0.095,58.333,116.667,261.111,886.111,388.889,N
1388,0.040,0.860,0.860,47.222,86.111,372.222,483.333,402.778,N
1389,0.045,0.860,0.835,127.778,80.556,322.222,341.667,141.667,N
1390,0.155,0.830,0.035,122.222,86.111,194.444,294.444,47.222,N
1391,-0.025,1.365,-0.040,155.556,91.667,361.111,402.778,108.333,N
1392,-0.195,1.195,0.110,133.333,116.667,372.222,761.111,358.333,N
1393,0.110,-1.815,1.325,44.444,11.111,191.667,358.333,402.778,V
1394,-0.135,1.540,0.445,194.444,116.667,397.222,552.778,194.444,N
1395,-0.155,0.365,0.290,133.333,113.889,255.556,333.333,219.444,N
1396,-0.240,1.175,0.095,61.111,113.889,377.778,583.333,250.000,N
1397,0.095,-1.455,0.660,30.556,0.000,200.000,350.000,233.333,V
1398,0.660,1.220,-0.165,183.333,116.667,244.444,383.333,33.333,N
1399,-0.005,1.515,0.250,55.556,111.111,400.000,936.111,552.778,N
1400,0.250,-1.685,0.860,33.333,2.778,194.444,380.556,555.556,V
1401,-0.190,1.350,-0.080,58.333,116.667,350.000,683.333,302.778,N
1402,-0.070,1.605,0.015,191.667,113.889,236.111,594.444,88.889,N
1403,-0.115,1.565,0.030,63.889,113.889,258.333,738.889,144.444,N
1404,0.115,1.450,0.105,52.778,91.667,222.222,408.333,330.556,N
1405,-0.190,1.635,-0.100,177.778,113.889,258.333,522.222,113.889,N
1406,-0.235,1.570,-0.085,58.333,116.667,277.778,700.000,177.778,N
1407,-0.150,1.690,0.020,80.556,102.778,275.000,500.000,200.000,N
1408,0.020,1.310,1.295,169.444,88.889,377.778,388.889,111.111,N
1409,0.060,1.295,1.175,50.000,80.556,380.556,347.222,41.667,N
1410,-0.005,1.175,-0.015,44.444,83.333,222.222,344.444,2.778,N
1411,-0.165,1.465,0.050,58.333,116.667,400.000,783.333,438.889,N
1412,0.215,1.315,1.265,50.000,86.111,330.556,408.333,375.000,N
1413,0.030,1.255,0.005,50.000,88.889,361.111,302.778,105.556,N
1414,0.005,0.930,-0.080,47.222,88.889,180.556,377.778,75.000,N
1415,-0.255,0.710,-0.105,50.000,83.333,202.778,597.222,219.444,N
1416,-0.095,0.955,0.125,55.556,97.222,241.667,583.333,13.889,N
1417,-0.085,0.885,0.200,58.333,91.667,236.111,727.778,144.444,N
1418,-0.210,1.045,0.105,58.333,113.889,241.667,711.111,16.667,N
1419,-0.010,1.005,0.265,47.222,91.667,233.333,661.111,50.000,N
1420,0.160,0.810,0.985,194.444,88.889,369.444,411.111,250.000,N
1421,0.200,0.985,0.720,161.111,66.667,361.111,336.111,75.000,N
1422,-0.075,0.720,0.125,141.667,86.111,172.222,327.778,8.333,N
1423,0.025,0.330,-0.120,27.778,66.667,208.333,686.111,358.333,N
1424,-0.010,0.730,0.185,47.222,80.556,202.778,680.556,5.556,N
1425,0.140,0.915,0.280,47.222,91.667,194.444,466.667,213.889,N
1426,-0.045,0.970,0.165,52.778,91.667,188.889,438.889,27.778,N
1427,-0.190,0.915,0.175,52.778,91.667,233.333,586.111,147.222,N
1428,-0.085,1.005,0.080,55.556,88.889,258.333,811.111,225.000,N
1429,0.160,1.020,0.185,55.556,77.778,238.889,433.333,377.778,N
1430,-0.075,1.085,0.055,58.333,116.667,252.778,616.667,183.333,N
1431,0.015,0.765,0.225,41.667,77.778,219.444,733.333,116.667,N
1432,-0.005,1.075,0.230,97.222,91.667,213.889,575.000,158.333,N
1433,-0.030,1.080,0.090,186.111,83.333,213.889,458.333,116.667,N
1434,-0.190,0.900,0.360,58.333,116.667,397.222,613.889,155.556,N
1435,0.360,0.855,0.850,58.333,75.000,380.556,397.222,216.667,N
1436,0.385,1.115,0.745,180.556,86.111,369.444,355.556,41.667,N
1437,0.740,0.725,0.225,169.444,105.556,263.889,330.556,25.000,N
1438,0.445,0.520,0.295,50.000,83.333,175.000,411.111,80.556,N
1439,0.015,0.910,0.100,102.778,55.556,236.111,702.778,291.667,N
1440,0.100,0.930,0.145,191.667,88.889,211.111,400.000,302.778,N
1441,0.065,1.075,-0.050,47.222,77.778,202.778,391.667,8.333,N
1442,-0.245,0.825,-0.035,58.333,116.667,247.222,616.667,225.000,N
1443,0.075,0.380,0.095,55.556,88.889,211.111,419.444,197.222,V
1444,0.040,1.055,0.405,55.556,100.000,383.333,1011.111,591.667,N
1445,0.405,-2.665,2.305,52.778,8.333,188.889,388.889,622.222,V
1446,-0.090,0.655,-0.080,47.222,86.111,188.889,594.444,205.556,N
1447,-0.175,0.555,0.290,52.778,66.667,191.667,597.222,2.778,N
1448,0.290,-1.230,0.400,172.222,0.000,208.333,330.556,266.667,N
1449,-0.030,0.715,0.350,113.889,97.222,205.556,475.000,144.444,N
1450,-0.120,0.890,0.295,152.778,105.556,250.000,552.778,77.778,N
1451,-0.105,0.765,0.110,52.778,88.889,200.000,747.222,194.444,N
1452,-0.090,1.345,0.060,130.556,116.667,258.333,566.667,180.556,N
1453,0.060,1.230,0.090,191.667,108.333,233.333,391.667,175.000,N
1454,-0.095,1.580,-0.005,58.333,116.667,375.000,511.111,119.444,N
1455,-0.005,1.065,-0.050,52.778,86.111,222.222,369.444,141.667,N
1456,-0.260,0.985,-0.160,58.333,116.667,261.111,622.222,252.778,N
1457,-0.130,1.270,0.000,58.333,116.667,277.778,986.111,363.889,N
1458,-0.130,1.325,0.125,58.333,113.889,238.889,691.667,294.444,N
1459,-0.190,1.215,0.125,66.667,113.889,255.556,797.222,105.556,N
1460,-0.125,0.460,0.300,50.000,86.111,219.444,944.444,147.222,N
1461,-0.085,0.920,0.375,55.556,86.111,222.222,669.444,275.000,N
1462,-0.045,0.995,0.380,94.444,69.444,247.222,488.889,180.556,N
1463,-0.075,1.095,0.175,58.333,111.111,263.889,744.444,255.556,N
1464,0.175,-2.305,1.160,163.889,2.778,213.889,369.444,375.000,V
1465,-0.240,0.415,0.080,122.222,80.556,219.444,888.889,519.444,N
1466,-0.100,0.105,2.090,80.556,86.111,302.778,652.778,236.111,N
1467,0.685,1.930,0.375,122.222,86.111,280.556,305.556,347.222,|
1468,0.025,0.525,0.235,105.556,86.111,208.333,886.111,580.556,N
1469,0.065,0.695,0.095,58.333,91.667,205.556,472.222,413.889,N
1470,-0.230,0.765,0.035,161.111,116.667,241.667,638.889,166.667,N
1471,-0.105,0.785,0.185,44.444,66.667,372.222,888.889,250.000,N
1472,-0.080,0.810,0.030,163.889,83.333,227.778,933.333,44.444,N
1473,-0.060,0.995,0.325,194.444,105.556,225.000,1019.444,86.111,N
1474,0.180,1.210,0.335,125.000,63.889,225.000,441.667,577.778,N
1475,0.335,0.475,0.440,172.222,83.333,377.778,372.222,69.444,N
1476,0.115,0.440,0.330,186.111,88.889,191.667,347.222,25.000,N
1477,0.060,0.935,0.170,169.444,100.000,400.000,644.444,297.222,N
1478,0.115,1.095,-0.055,127.778,91.667,272.222,725.000,80.556,N
1479,-0.080,1.110,0.080,52.778,97.222,236.111,844.444,119.444,N
1480,0.010,0.745,0.280,52.778,86.111,230.556,683.333,161.111,N
1481,-0.045,1.190,0.125,116.667,113.889,258.333,650.000,33.333,N
1482,-0.065,0.960,0.140,100.000,102.778,244.444,797.222,147.222,N
1483,-0.070,0.935,0.005,161.111,108.333,180.556,572.222,225.000,N
1484,-0.320,0.475,-0.005,186.111,66.667,216.667,580.556,8.333,N
1485,-0.315,0.860,-0.010,186.111,113.889,255.556,533.333,47.222,N
1486,-0.335,0.930,-0.020,188.889,113.889,258.333,538.889,5.556,N
1487,-0.210,0.770,-0.045,52.778,88.889,366.667,758.333,219.444,N
1488,-0.045,-2.215,0.785,44.444,2.778,202.778,380.556,377.778,V
1489,0.785,-1.930,0.365,108.333,0.000,208.333,311.111,69.444,V
1490,0.365,0.825,-0.055,166.667,91.667,338.889,377.778,66.667,N
1491,-0.055,0.665,0.015,58.333,88.889,227.778,366.667,11.111,N
1492,-0.095,1.100,0.090,197.222,113.889,355.556,563.889,197.222,N
1493,-0.285,0.820,-0.045,58.333,113.889,258.333,783.333,219.444,N
1494,-0.230,0.600,0.135,50.000,66.667,225.000,619.444,163.889,N
1495,-0.130,0.915,0.095,191.667,69.444,191.667,436.111,183.333,N
1496,0.080,0.685,0.720,191.667,86.111,341.667,366.667,69.444,N
1497,0.140,0.695,0.655,161.111,94.444,375.000,313.889,52.778,N
1498,-0.040,0.605,0.040,152.778,88.889,194.444,344.444,30.556,N
1499,-0.170,0.710,0.335,41.667,77.778,344.444,511.111,166.667,N
1500,0.295,0.945,0.405,63.889,58.333,219.444,711.111,200.000,N
1501,0.185,1.130,0.270,50.000,75.000,227.778,661.111,50.000,N
1502,0.070,0.950,0.085,55.556,91.667,219.444,433.333,227.778,N
1503,-0.180,0.955,-0.065,58.333,88.889,247.222,591.667,158.333,N
1504,-0.205,0.540,0.010,183.333,88.889,202.778,586.111,5.556,N
1505,0.010,-1.275,0.500,169.444,0.000,347.222,341.667,244.444,N
1506,-0.015,-1.250,0.730,88.889,0.000,338.889,316.667,25.000,N
1507,0.070,0.700,0.015,141.667,88.889,191.667,341.667,25.000,N
1508,-0.130,0.845,0.485,52.778,83.333,375.000,602.778,261.111,N
1509,-0.140,0.430,1.860,152.778,108.333,269.444,341.667,261.111,V
1510,-0.355,0.370,-0.265,52.778,86.111,361.111,680.556,338.889,N
1511,-0.320,0.850,-0.130,130.556,88.889,233.333,630.556,50.000,N
1512,-0.130,0.805,-0.080,197.222,91.667,213.889,402.778,227.778,N
1513,-0.245,0.930,-0.255,55.556,72.222,375.000,722.222,319.444,N
1514,-0.285,0.760,-0.175,63.889,91.667,244.444,680.556,41.667,N
1515,-0.175,-2.165,1.080,147.222,2.778,205.556,358.333,322.222,V
1516,1.020,-1.120,0.320,197.222,2.778,38.889,408.333,50.000,N
1517,-0.265,0.960,-0.075,52.778,91.667,186.111,477.778,69.444,N
1518,-0.105,0.990,-0.015,194.444,105.556,313.889,675.000,197.222,N
1519,0.060,1.150,1.935,47.222,94.444,311.111,533.333,141.667,N
1520,-0.260,1.930,1.395,885297.222,885355.556,885641.667,277.778,255.556,|
1521,1.935,0.345,1.395,136.111,83.333,238.889,133.333,144.444,N
1522,-0.100,0.440,0.105,52.778,63.889,180.556,216.667,83.333,|
1523,1.395,0.100,-0.085,166.667,88.889,344.444,161.111,55.556,N
1524,-0.205,-1.760,-0.085,116.667,0.000,27.778,286.111,125.000,N
1525,-0.120,-1.195,0.135,27.778,2.778,36.111,600.000,313.889,N
1526,-0.030,-1.080,0.420,163.889,2.778,183.333,611.111,11.111,N
1527,-0.030,-1.095,0.630,44.444,0.000,191.667,616.667,5.556,N
1528,0.390,-1.345,0.550,30.556,0.000,213.889,402.778,213.889,N
1529,-0.035,-1.020,0.495,38.889,0.000,250.000,719.444,316.667,N
1530,0.205,0.660,0.725,55.556,58.333,222.222,666.667,52.778,N
1531,0.725,-1.135,0.620,150.000,2.778,30.556,338.889,327.778,N
1532,0.135,1.150,0.305,175.000,97.222,369.444,988.889,650.000,N
1533,0.305,-2.560,2.445,47.222,11.111,172.222,369.444,619.444,V
1534,0.170,0.965,-0.010,44.444,94.444,300.000,869.444,500.000,N
1535,0.075,0.930,0.265,172.222,113.889,250.000,558.333,311.111,N
1536,-0.110,1.120,0.010,58.333,83.333,230.556,680.556,122.222,N
1537,-0.200,1.120,-0.005,86.111,116.667,225.000,625.000,55.556,N
1538,-0.055,0.635,0.230,197.222,63.889,377.778,402.778,222.222,N
1539,0.055,0.730,-0.045,163.889,75.000,263.889,363.889,38.889,N
1540,-0.045,0.705,-0.035,147.222,91.667,208.333,380.556,16.667,N
1541,-0.075,0.810,0.005,47.222,83.333,286.111,391.667,11.111,N
1542,0.005,0.875,-0.145,130.556,69.444,213.889,383.333,8.333,N
1543,-0.200,1.510,0.000,127.778,100.000,275.000,883.333,500.000,N
1544,0.000,-2.565,2.245,166.667,8.333,152.778,394.444,488.889,V
1545,-0.240,1.150,-0.220,183.333,113.889,325.000,533.333,138.889,N
1546,-0.220,1.365,0.030,97.222,116.667,241.667,500.000,33.333,N
1547,-0.195,1.425,-0.010,77.778,105.556,238.889,461.111,38.889,N
1548,-0.195,1.435,0.080,108.333,111.111,250.000,480.556,19.444,N
1549,0.040,0.955,0.855,191.667,69.444,350.000,397.222,83.333,N
1550,0.075,0.780,0.095,130.556,91.667,205.556,322.222,75.000,N
1551,-0.115,0.910,0.040,50.000,91.667,230.556,722.222,400.000,N
1552,-0.020,1.065,0.130,58.333,91.667,216.667,730.556,8.333,N
1553,0.105,0.640,0.295,52.778,83.333,180.556,461.111,269.444,N
1554,0.180,0.465,0.175,197.222,77.778,194.444,372.222,88.889,N
1555,-0.130,0.890,0.090,55.556,83.333,211.111,575.000,202.778,N
1556,0.090,0.015,0.820,172.222,72.222,369.444,350.000,225.000,|
1557,-0.105,0.770,0.230,108.333,69.444,188.889,313.889,36.111,N
1558,-0.160,2.035,1.860,194.444,116.667,180.556,422.222,108.333,|
1559,2.170,1.540,0.190,133.333,58.333,372.222,127.778,294.444,|
1560,1.860,-1.340,0.190,133.333,2.778,197.222,127.778,0.000,N
1561,0.140,1.765,1.315,191.667,91.667,280.556,405.556,277.778,V
1562,-0.350,0.055,-0.085,61.111,80.556,191.667,833.333,427.778,N
1563,-0.110,-1.190,0.360,25.000,0.000,230.556,700.000,133.333,N
1564,0.360,-1.525,0.415,191.667,0.000,186.111,422.222,277.778,N
1565,-0.065,0.690,0.315,55.556,72.222,208.333,544.444,122.222,N
1566,0.315,-2.350,2.460,166.667,0.000,119.444,344.444,200.000,V
1567,0.105,2.365,3.640,133.333,-907525.000,-320269.444,94.444,250.000,|
1568,1.630,-1.770,-0.950,188.889,66.667,94.444,627.778,533.333,N
1569,-0.260,-0.030,-0.695,908813.889,111.111,233.333,602.778,25.000,N
1570,-0.625,0.165,-0.215,88.889,91.667,244.444,652.778,50.000,N
1571,0.025,0.485,0.235,155.556,83.333,205.556,644.444,8.333,N
1572,0.145,0.600,0.240,47.222,75.000,200.000,427.778,216.667,N
1573,0.175,0.740,0.290,41.667,83.333,208.333,405.556,22.222,N
1574,0.030,0.845,0.305,50.000,61.111,233.333,611.111,205.556,N
1575,0.100,1.120,0.290,152.778,91.667,216.667,552.778,58.333,N
1576,0.090,0.960,0.170,50.000,58.333,222.222,863.889,311.111,N
1577,0.225,0.880,0.350,38.889,77.778,230.556,677.778,186.111,N
1578,-0.040,0.835,2.390,58.333,105.556,402.778,702.778,25.000,N
1579,0.310,2.285,3.640,177.778,-914650.000,-327394.444,355.556,347.222,|
1580,-0.260,2.265,3.640,914788.889,0.000,587255.556,80.556,275.000,N
1581,-0.260,1.025,1.870,915163.889,915177.778,915511.111,375.000,294.444,|
1582,0.055,-1.335,1.885,36.111,2.778,52.778,300.000,75.000,N
1583,0.055,1.870,3.640,83.333,-915461.111,-328205.556,47.222,252.778,|
1584,-0.260,1.120,1.295,915672.222,915688.889,915702.778,161.111,113.889,|
1585,1.380,0.555,0.870,191.667,11.111,100.000,138.889,22.222,|
1586,1.250,0.675,-0.015,194.444,83.333,380.556,105.556,33.333,|
1587,-0.260,-0.015,-0.260,916244.444,111.111,-916186.111,327.778,222.222,N
1588,-0.260,-2.770,0.370,916616.667,2.778,175.000,372.222,44.444,V
1589,0.370,-2.220,0.055,183.333,0.000,183.333,361.111,11.111,V
1590,-0.400,-1.305,0.155,30.556,0.000,33.333,958.333,597.222,N
1591,-0.105,0.445,0.110,52.778,72.222,208.333,652.778,305.556,N
1592,0.015,0.450,0.240,58.333,83.333,241.667,772.222,119.444,N
1593,-0.075,0.610,0.290,47.222,75.000,202.778,688.889,83.333,N
1594,-0.110,0.505,0.240,61.111,94.444,205.556,536.111,152.778,N
1595,-0.120,0.655,0.170,52.778,83.333,197.222,502.778,33.333,N
1596,-0.190,0.690,0.210,52.778,88.889,200.000,500.000,2.778,N
1597,0.210,0.440,0.040,194.444,86.111,213.889,363.889,136.111,N
1598,-0.015,0.365,0.150,61.111,86.111,219.444,594.444,230.556,N
1599,-0.320,-1.525,0.025,130.556,0.000,191.667,622.222,27.778,N
1600,-0.205,-0.460,0.590,33.333,61.111,347.222,441.667,180.556,|
1601,0.200,0.535,0.265,52.778,88.889,380.556,344.444,97.222,N
1602,0.340,-2.035,1.100,38.889,0.000,213.889,388.889,44.444,V
1603,1.100,-1.550,0.375,116.667,0.000,183.333,330.556,58.333,V
1604,0.295,0.310,0.075,191.667,94.444,247.222,402.778,72.222,N
1605,0.075,-1.100,0.240,144.444,0.000,27.778,355.556,47.222,N
1606,-0.050,0.885,0.080,94.444,108.333,286.111,577.778,222.222,N
1607,-0.075,1.090,-0.015,88.889,116.667,405.556,830.556,252.778,N
1608,-0.015,0.735,0.360,55.556,88.889,361.111,402.778,427.778,N
1609,-0.040,0.345,-0.010,158.333,80.556,205.556,333.333,69.444,N
1610,-0.205,0.925,-0.020,136.111,116.667,277.778,725.000,391.667,N
1611,-0.145,1.120,-0.075,191.667,108.333,269.444,738.889,13.889,N
1612,-0.120,0.835,-0.050,55.556,108.333,244.444,750.000,11.111,N
1613,-0.115,0.450,0.070,58.333,91.667,216.667,425.000,325.000,N
1614,-0.110,0.790,-0.015,58.333,86.111,241.667,741.667,316.667,N
1615,-0.130,1.075,0.055,158.333,111.111,250.000,716.667,25.000,N
1616,-0.040,1.180,0.055,80.556,113.889,227.778,452.778,263.889,N
1617,-0.325,0.870,-0.155,155.556,116.667,236.111,477.778,25.000,N
1618,-0.305,0.380,-0.010,47.222,69.444,233.333,708.333,230.556,N
1619,-0.125,1.100,0.570,113.889,113.889,402.778,516.667,191.667,N
1620,0.085,0.740,0.055,169.444,88.889,197.222,355.556,161.111,N
1621,-0.195,1.120,-0.110,66.667,113.889,294.444,647.222,291.667,N
1622,0.220,-2.660,1.705,38.889,5.556,177.778,436.111,211.111,V
1623,-0.355,0.390,-0.230,41.667,83.333,236.111,605.556,169.444,N
1624,-0.255,0.650,-0.015,55.556,83.333,225.000,716.667,111.111,N
1625,-0.305,0.895,-0.225,80.556,113.889,275.000,808.333,91.667,N
1626,-0.425,0.905,-0.080,194.444,116.667,258.333,613.889,194.444,N
1627,-0.115,0.710,0.180,55.556,83.333,211.111,744.444,130.556,N
1628,0.150,1.255,0.170,55.556,97.222,261.111,963.889,219.444,N
1629,0.010,1.385,0.160,83.333,116.667,252.778,611.111,352.778,N
1630,-0.210,0.905,0.015,155.556,111.111,238.889,552.778,58.333,N
1631,-0.240,0.480,-0.020,52.778,83.333,241.667,730.556,177.778,N
1632,-0.160,0.950,-0.055,130.556,116.667,272.222,1016.667,286.111,N
1633,-0.180,1.135,-0.065,191.667,113.889,266.667,672.222,344.444,N
1634,-0.405,0.580,-0.295,83.333,88.889,252.778,841.667,169.444,N
1635,-0.295,-2.255,0.670,183.333,0.000,186.111,377.778,463.889,V
1636,0.670,-1.880,0.495,169.444,0.000,200.000,355.556,22.222,V
1637,0.495,0.975,0.765,183.333,88.889,347.222,383.333,27.778,N
1638,-0.225,0.765,-0.110,50.000,86.111,177.778,316.667,66.667,N
1639,-0.085,1.215,0.080,102.778,113.889,405.556,602.778,286.111,N
1640,0.390,-2.230,1.930,36.111,5.556,163.889,416.667,186.111,V
1641,-0.045,0.795,0.060,52.778,86.111,341.667,808.333,391.667,N
1642,-0.020,1.240,0.040,180.556,108.333,272.222,950.000,141.667,N
1643,-0.110,1.115,0.005,58.333,113.889,275.000,788.889,161.111,N
1644,-0.225,0.530,0.090,44.444,75.000,236.111,827.778,38.889,N
1645,-0.100,1.085,0.105,152.778,113.889,255.556,805.556,22.222,N
1646,-0.155,1.240,0.025,61.111,116.667,258.333,597.222,208.333,N
1647,-0.225,0.985,-0.125,183.333,116.667,255.556,636.111,38.889,N
1648,-0.195,0.610,-0.070,47.222,86.111,194.444,430.556,205.556,N
1649,-0.215,0.805,-0.040,52.778,83.333,344.444,655.556,225.000,N
1650,-0.060,1.360,0.020,136.111,116.667,272.222,547.222,108.333,N
1651,-0.120,1.195,-0.070,77.778,111.111,269.444,838.889,291.667,N
1652,-0.245,0.775,-0.075,166.667,116.667,272.222,761.111,77.778,N
1653,-0.210,0.725,0.065,52.778,94.444,233.333,600.000,161.111,N
1654,0.065,0.745,0.850,194.444,88.889,377.778,391.667,208.333,N
1655,0.085,0.850,0.040,141.667,88.889,191.667,347.222,44.444,N
1656,0.020,1.070,-0.015,44.444,86.111,244.444,386.111,38.889,N
1657,-0.200,0.900,-0.130,141.667,111.111,366.667,630.556,244.444,N
1658,0.015,0.770,-0.020,47.222,86.111,194.444,461.111,169.444,N
1659,-0.110,0.875,0.040,69.444,113.889,255.556,633.333,172.222,N
1660,-0.055,1.290,0.035,183.333,116.667,275.000,997.222,363.889,N
1661,-0.040,1.040,0.050,58.333,113.889,277.778,805.556,191.667,N
1662,-0.110,0.720,0.145,52.778,94.444,233.333,516.667,288.889,N
1663,-0.045,1.075,0.085,69.444,111.111,272.222,830.556,313.889,N
1664,0.000,1.255,0.050,55.556,108.333,250.000,763.889,66.667,N
1665,-0.115,0.975,-0.105,105.556,116.667,372.222,952.778,188.889,N
1666,-0.125,0.695,0.145,44.444,83.333,222.222,591.667,361.111,N
1667,-0.005,0.820,0.755,197.222,91.667,375.000,419.444,172.222,N
1668,0.130,0.755,0.510,138.889,83.333,377.778,341.667,77.778,N
1669,0.030,0.770,-0.020,163.889,86.111,363.889,361.111,19.444,N
1670,-0.020,0.800,-0.070,55.556,83.333,244.444,388.889,27.778,N
1671,-0.135,0.910,0.015,111.111,116.667,394.444,791.667,402.778,N
1672,0.445,-2.325,1.855,38.889,8.333,194.444,436.111,355.556,V
1673,-0.195,1.100,0.000,191.667,116.667,369.444,625.000,188.889,N
1674,0.000,-1.330,0.550,38.889,0.000,202.778,350.000,275.000,V
1675,-0.120,0.670,-0.020,41.667,86.111,241.667,777.778,427.778,N
1676,-0.070,1.160,0.070,138.889,111.111,261.111,552.778,225.000,N
1677,-0.090,1.185,0.010,55.556,111.111,255.556,605.556,52.778,N
1678,-0.090,1.320,-0.010,88.889,116.667,227.778,641.667,36.111,N
1679,-0.120,1.160,0.015,91.667,116.667,291.667,797.222,155.556,N
1680,-0.095,1.100,0.220,150.000,113.889,261.111,644.444,152.778,N
1681,0.035,1.220,0.085,100.000,116.667,277.778,852.778,208.333,N
1682,-0.045,1.355,0.075,191.667,113.889,280.556,625.000,227.778,N
1683,0.075,1.005,0.890,175.000,80.556,338.889,400.000,225.000,N
1684,0.020,0.890,-0.015,111.111,77.778,219.444,305.556,94.444,N
1685,-0.200,0.860,0.095,88.889,111.111,405.556,677.778,372.222,N
1686,0.405,-2.295,1.770,38.889,8.333,175.000,400.000,277.778,V
1687,-0.125,1.100,-0.110,194.444,108.333,347.222,586.111,186.111,N
1688,-0.165,1.195,-0.065,63.889,116.667,272.222,669.444,83.333,N
1689,-0.130,1.175,-0.045,186.111,113.889,305.556,1005.556,336.111,N
1690,-0.055,1.150,0.110,58.333,116.667,269.444,836.111,169.444,N
1691,-0.135,1.385,0.050,58.333,116.667,258.333,541.667,294.444,N
1692,-0.135,1.315,-0.065,133.333,116.667,391.667,936.111,394.444,N
1693,-0.190,0.810,0.050,133.333,116.667,255.556,866.667,69.444,N
1694,-0.095,1.125,0.000,58.333,113.889,238.889,833.333,33.333,N
1695,-0.035,1.250,0.065,138.889,111.111,250.000,552.778,280.556,N
1696,-0.060,1.220,0.030,58.333,116.667,280.556,758.333,205.556,N
1697,-0.105,1.220,-0.060,88.889,113.889,286.111,858.333,100.000,N
1698,0.000,1.035,-0.010,58.333,111.111,283.333,786.111,72.222,N
1699,-0.120,1.130,0.025,105.556,108.333,266.667,697.222,88.889,N
1700,-0.045,0.805,0.070,52.778,86.111,247.222,711.111,13.889,N
1701,0.015,1.150,0.050,75.000,108.333,286.111,872.222,161.111,N
1702,-0.020,1.265,0.090,113.889,113.889,272.222,758.333,113.889,N
1703,-0.130,1.360,0.060,180.556,116.667,369.444,633.333,125.000,N
1704,0.060,1.020,-0.030,58.333,100.000,222.222,369.444,263.889,N
1705,-0.085,1.210,0.035,83.333,116.667,277.778,850.000,480.556,N
1706,0.035,-1.570,1.090,183.333,0.000,213.889,419.444,430.556,V
1707,1.090,0.225,1.110,136.111,88.889,305.556,352.778,66.667,V
1708,-0.140,1.100,-0.055,116.667,116.667,377.778,741.667,388.889,N
1709,-0.170,1.220,-0.030,80.556,116.667,280.556,747.222,5.556,N
1710,-0.105,1.300,0.080,58.333,113.889,291.667,1038.889,291.667,N
1711,-0.020,1.235,0.055,58.333,111.111,402.778,1188.889,150.000,N
1712,0.055,-1.390,1.100,41.667,8.333,219.444,388.889,800.000,V
1713,-0.035,1.035,-0.065,58.333,111.111,400.000,1294.444,905.556,N
1714,-0.095,1.080,0.030,163.889,116.667,263.889,638.889,655.556,N
1715,0.030,0.700,-0.050,191.667,91.667,241.667,397.222,241.667,N
1716,-0.050,0.680,-0.060,166.667,94.444,250.000,375.000,22.222,N
1717,-0.125,1.215,-0.020,58.333,116.667,350.000,922.222,547.222,N
1718,0.545,-2.530,1.805,36.111,11.111,183.333,441.667,480.556,V
1719,-0.315,0.780,-0.110,58.333,113.889,402.778,888.889,447.222,N
1720,-0.190,1.150,-0.030,86.111,116.667,288.889,697.222,191.667,N
1721,-0.110,1.265,-0.075,58.333,116.667,316.667,1072.222,375.000,N
1722,-0.095,1.245,-0.015,58.333,113.889,272.222,663.889,408.333,N
1723,-0.015,0.715,-0.070,163.889,75.000,263.889,377.778,286.111,N
1724,-0.110,1.070,0.005,152.778,116.667,391.667,933.333,555.556,N
1725,-0.030,1.235,-0.080,58.333,111.111,288.889,811.111,122.222,N
1726,-0.130,1.100,-0.125,58.333,116.667,294.444,969.444,158.333,N
1727,-0.215,0.830,-0.035,186.111,113.889,252.778,622.222,347.222,N
1728,-0.150,1.100,-0.100,97.222,113.889,255.556,633.333,11.111,N
1729,-0.155,1.185,-0.025,72.222,108.333,302.778,719.444,86.111,N
1730,-0.080,1.150,-0.140,191.667,111.111,300.000,466.667,252.778,N
1731,-0.050,0.675,-0.130,47.222,94.444,311.111,636.111,169.444,N
1732,-0.115,0.945,-0.050,169.444,113.889,272.222,661.111,25.000,N
1733,-0.050,-1.235,0.710,141.667,0.000,238.889,355.556,305.556,V
1734,0.710,-1.580,0.945,108.333,0.000,175.000,347.222,8.333,V
1735,0.085,1.430,-0.025,197.222,113.889,405.556,463.889,116.667,N
1736,-0.010,0.845,-0.005,61.111,94.444,252.778,411.111,52.778,N
1737,-0.005,1.200,0.655,183.333,113.889,375.000,400.000,11.111,N
1738,-0.060,0.655,0.525,44.444,86.111,375.000,319.444,80.556,N
1739,0.060,0.640,-0.030,50.000,83.333,225.000,355.556,36.111,N
1740,-0.060,1.085,0.075,186.111,113.889,361.111,527.778,172.222,N
1741,0.030,1.370,-0.005,197.222,113.889,258.333,527.778,0.000,N
1742,-0.080,1.085,0.005,188.889,88.889,227.778,425.000,102.778,N
1743,-0.175,1.140,-0.105,58.333,111.111,302.778,669.444,244.444,N
1744,-0.040,0.905,-0.120,44.444,80.556,255.556,502.778,166.667,N
1745,-0.085,0.850,0.075,50.000,91.667,300.000,772.222,269.444,N
1746,0.020,1.350,0.065,147.222,116.667,280.556,561.111,211.111,N
1747,-0.075,1.310,0.080,58.333,113.889,302.778,941.667,380.556,N
1748,0.330,-2.270,1.255,38.889,0.000,188.889,438.889,502.778,V
1749,-0.160,0.760,0.135,41.667,86.111,369.444,933.333,494.444,N
1750,0.020,1.120,0.175,72.222,113.889,272.222,644.444,288.889,N
1751,0.000,1.310,0.150,86.111,116.667,288.889,583.333,61.111,N
1752,-0.015,1.200,-0.005,177.778,116.667,316.667,988.889,405.556,N
1753,-0.055,0.745,0.195,61.111,83.333,241.667,786.111,202.778,N
1754,0.195,-1.185,0.445,130.556,2.778,36.111,352.778,433.333,V
1755,0.420,0.975,0.125,163.889,91.667,252.778,383.333,30.556,N
1756,0.050,1.290,0.020,152.778,113.889,372.222,452.778,69.444,N
1757,-0.035,1.260,0.000,75.000,116.667,347.222,675.000,222.222,N
1758,0.000,1.155,-0.020,183.333,116.667,261.111,472.222,202.778,N
1759,-0.160,0.810,-0.005,186.111,116.667,255.556,486.111,13.889,N
1760,0.000,0.785,0.075,50.000,86.111,208.333,433.333,52.778,N
1761,0.020,1.375,0.555,58.333,111.111,405.556,950.000,516.667,N
1762,0.175,1.300,1.775,86.111,86.111,272.222,366.667,583.333,V
1763,-0.200,0.925,-0.160,100.000,116.667,405.556,697.222,330.556,N
1764,-0.025,0.835,0.125,55.556,94.444,272.222,713.889,16.667,N
1765,0.100,1.365,0.110,61.111,113.889,291.667,650.000,63.889,N
1766,-0.095,0.775,0.200,58.333,94.444,244.444,597.222,52.778,N
1767,0.040,1.125,0.200,194.444,91.667,238.889,733.333,136.111,N
1768,0.135,1.205,0.090,50.000,100.000,263.889,630.556,102.778,N
1769,0.090,-0.960,0.900,141.667,2.778,175.000,363.889,266.667,V
1770,0.020,0.670,0.010,41.667,83.333,325.000,600.000,236.111,N
1771,0.010,0.360,0.200,111.111,83.333,244.444,405.556,194.444,N
1772,0.030,1.245,0.040,83.333,113.889,377.778,669.444,263.889,N
1773,0.080,1.480,0.075,141.667,116.667,288.889,508.333,161.111,N
1774,-0.035,1.295,-0.025,55.556,111.111,344.444,669.444,161.111,N
1775,-0.055,1.670,-0.075,169.444,108.333,272.222,583.333,86.111,N
1776,-0.155,0.830,-0.130,197.222,108.333,266.667,430.556,152.778,N
1777,-0.130,0.510,-0.020,163.889,80.556,322.222,372.222,58.333,N
1778,0.515,0.960,0.020,180.556,100.000,388.889,636.111,263.889,N
1779,0.020,-1.455,0.885,36.111,2.778,211.111,369.444,266.667,V
1780,-0.135,0.740,0.260,88.889,50.000,333.333,1005.556,636.111,N
1781,0.430,-2.440,2.065,44.444,2.778,188.889,419.444,586.111,V
1782,0.220,1.375,0.035,197.222,102.778,280.556,475.000,55.556,N
1783,-0.030,1.430,0.185,83.333,113.889,261.111,472.222,2.778,N
1784,0.180,0.830,0.160,108.333,105.556,333.333,1008.333,536.111,N
1785,0.160,0.240,1.810,102.778,88.889,275.000,388.889,619.444,V
1786,1.160,1.395,0.000,197.222,86.111,325.000,513.889,125.000,N
1787,0.000,1.105,0.015,88.889,83.333,213.889,380.556,133.333,N
1788,0.005,1.220,0.065,133.333,113.889,266.667,377.778,2.778,N
1789,-0.125,1.155,0.725,152.778,116.667,405.556,1013.889,636.111,N
1790,0.060,0.725,1.705,113.889,80.556,275.000,347.222,666.667,V
1791,0.100,1.375,0.195,141.667,116.667,308.333,1130.556,783.333,N
1792,0.245,-0.595,1.040,52.778,25.000,188.889,480.556,650.000,V
1793,-0.115,1.350,-0.195,144.444,116.667,358.333,616.667,136.111,N
1794,-0.245,0.780,-0.070,77.778,116.667,277.778,730.556,113.889,N
1795,-0.090,1.200,-0.020,58.333,116.667,291.667,669.444,61.111,N
1796,-0.135,1.275,-0.095,58.333,116.667,313.889,927.778,258.333,N
1797,-0.245,1.405,-0.135,136.111,116.667,272.222,691.667,236.111,N
1798,-0.320,0.910,-0.190,105.556,116.667,286.111,886.111,194.444,N
1799,-0.200,1.110,-0.065,72.222,116.667,252.778,750.000,136.111,N
1800,-0.065,-1.255,0.550,141.667,0.000,211.111,350.000,400.000,V
1801,-0.165,1.410,-0.200,197.222,116.667,325.000,611.111,261.111,N
1802,-0.210,1.510,-0.150,66.667,116.667,308.333,736.111,125.000,N
1803,-0.215,1.435,-0.140,58.333,116.667,302.778,655.556,80.556,N
1804,-0.155,1.185,-0.070,58.333,113.889,402.778,1050.000,394.444,N
1805,0.135,-1.345,1.060,47.222,8.333,211.111,447.222,602.778,V
1806,1.060,-0.900,0.685,169.444,2.778,200.000,380.556,66.667,V
1807,-0.160,1.425,-0.065,77.778,113.889,263.889,658.333,277.778,N
1808,-0.070,1.585,-0.075,58.333,113.889,277.778,633.333,25.000,N
1809,-0.210,1.055,0.080,166.667,116.667,377.778,688.889,55.556,N
1810,0.080,-1.140,0.690,38.889,0.000,222.222,358.333,330.556,V
1811,-0.095,1.530,-0.005,58.333,116.667,344.444,686.111,327.778,N
1812,-0.050,1.625,0.015,63.889,116.667,291.667,705.556,19.444,N
1813,-0.085,1.685,0.225,58.333,116.667,405.556,697.222,8.333,N
1814,0.230,1.160,0.115,63.889,91.667,211.111,413.889,283.333,N
1815,-0.025,1.670,0.130,102.778,116.667,336.111,1191.667,777.778,N
1816,0.500,-2.395,1.225,33.333,0.000,194.444,416.667,775.000,V
1817,-0.110,1.255,-0.005,58.333,116.667,388.889,763.889,347.222,N
1818,-0.025,1.635,0.110,69.444,111.111,272.222,700.000,63.889,N
1819,-0.015,1.805,0.025,183.333,116.667,275.000,616.667,83.333,N
1820,0.005,1.370,0.125,191.667,111.111,266.667,425.000,191.667,N
1821,-0.015,1.730,0.080,138.889,116.667,352.778,794.444,369.444,N
1822,0.025,1.805,0.075,133.333,116.667,308.333,844.444,50.000,N
1823,0.085,1.645,0.080,58.333,113.889,302.778,888.889,44.444,N
1824,0.150,1.680,0.190,105.556,113.889,352.778,1133.333,244.444,N
1825,0.150,1.960,0.575,63.889,113.889,402.778,513.889,619.444,N
1826,0.160,1.345,0.050,172.222,113.889,269.444,369.444,144.444,N
1827,-0.080,1.575,0.250,75.000,113.889,383.333,638.889,269.444,N
1828,0.250,-1.415,1.015,52.778,2.778,202.778,383.333,255.556,V
1829,0.095,1.595,-0.005,58.333,116.667,391.667,972.222,588.889,N
1830,-0.005,0.290,2.170,61.111,105.556,322.222,394.444,577.778,V
1831,-0.225,1.330,-0.180,138.889,116.667,383.333,811.111,416.667,N
1832,-0.170,1.465,-0.080,122.222,113.889,302.778,850.000,38.889,N
1833,0.135,-0.955,0.535,36.111,2.778,236.111,411.111,438.889,V
1834,0.535,0.490,-0.020,147.222,88.889,213.889,380.556,30.556,V
1835,-0.145,1.135,-0.025,75.000,116.667,388.889,619.444,238.889,N
1836,-0.090,1.560,-0.055,63.889,113.889,322.222,1063.889,444.444,N
1837,-0.055,-1.400,0.820,36.111,0.000,205.556,413.889,650.000,V
1838,-0.105,1.470,-0.080,58.333,116.667,400.000,666.667,252.778,N
1839,-0.135,1.520,-0.150,61.111,116.667,291.667,736.111,69.444,N
1840,-0.205,1.550,-0.150,169.444,116.667,405.556,769.444,33.333,N
1841,0.000,-1.415,0.780,41.667,2.778,222.222,411.111,358.333,V
1842,0.780,-1.155,0.920,166.667,8.333,219.444,386.111,25.000,V
1843,0.920,-1.345,0.835,136.111,8.333,230.556,355.556,30.556,V
1844,0.835,0.675,-0.090,197.222,88.889,366.667,425.000,69.444,N
1845,-0.090,1.535,0.185,58.333,116.667,366.667,691.667,266.667,N
1846,0.185,-1.475,0.905,38.889,13.889,222.222,347.222,344.444,V
1847,-0.125,1.650,0.005,197.222,116.667,397.222,911.111,563.889,N
1848,0.005,-2.690,2.190,44.444,5.556,188.889,388.889,522.222,V
1849,-0.095,1.450,-0.095,58.333,116.667,402.778,825.000,436.111,N
1850,-0.115,1.635,-0.095,77.778,116.667,400.000,916.667,91.667,N
1851,-0.080,1.690,-0.125,58.333,116.667,322.222,1041.667,125.000,N
1852,-0.185,1.360,-0.205,150.000,113.889,297.222,1080.556,38.889,N
1853,-0.080,0.905,0.050,58.333,113.889,275.000,716.667,363.889,N
1854,-0.050,1.340,0.180,80.556,116.667,361.111,616.667,100.000,N
1855,0.180,-1.455,0.910,61.111,0.000,205.556,363.889,252.778,V
1856,0.910,-1.355,1.085,147.222,11.111,216.667,352.778,11.111,V
1857,-0.130,1.520,0.040,144.444,116.667,369.444,1038.889,686.111,N
1858,0.290,-2.675,2.170,41.667,8.333,200.000,444.444,594.444,V
1859,-0.185,1.450,-0.085,58.333,116.667,400.000,1066.667,622.222,N
1860,-0.120,1.555,-0.110,88.889,116.667,288.889,886.111,180.556,N
1861,0.020,1.230,0.045,58.333,116.667,300.000,952.778,66.667,N
1862,0.030,1.640,0.030,163.889,116.667,280.556,522.222,430.556,N
1863,-0.090,1.685,0.090,141.667,113.889,352.778,527.778,5.556,N
1864,0.090,-1.390,0.875,52.778,2.778,211.111,347.222,180.556,V
1865,-0.165,1.465,-0.090,58.333,116.667,361.111,730.556,383.333,N
1866,-0.200,1.290,-0.155,113.889,116.667,280.556,661.111,69.444,N
1867,-0.205,0.820,-0.100,58.333,116.667,344.444,750.000,88.889,N
1868,-0.035,-1.540,0.635,41.667,0.000,244.444,408.333,341.667,V
1869,0.005,1.435,-0.030,52.778,100.000,286.111,869.444,461.111,N
1870,-0.040,1.715,-0.095,186.111,116.667,288.889,480.556,388.889,N
1871,-0.130,1.605,-0.100,69.444,113.889,369.444,650.000,169.444,N
