id,Pamp,Ramp,Tamp,PR,QRS,QT,RRI,dRRI,label
1,-0.140,1.900,0.210,127.778,61.111,275.000,541.667,83.333,N
2,-0.185,2.055,0.340,136.111,61.111,291.667,555.556,13.889,N
3,-0.100,1.880,0.115,136.111,61.111,286.111,563.889,8.333,N
4,-0.250,1.825,0.115,127.778,63.889,286.111,544.444,19.444,N
5,-0.215,1.820,0.115,127.778,58.333,269.444,538.889,5.556,N
6,-0.235,1.820,0.205,133.333,61.111,277.778,525.000,13.889,N
7,-0.170,1.860,0.085,122.222,61.111,280.556,538.889,13.889,N
8,-0.220,1.955,0.095,136.111,63.889,277.778,550.000,11.111,N
9,-0.240,1.790,0.240,130.556,61.111,272.222,525.000,25.000,N
10,-0.235,1.830,0.110,133.333,61.111,286.111,547.222,22.222,N
11,-0.265,1.915,-0.005,136.111,63.889,297.222,552.778,5.556,N
12,-0.340,1.740,0.105,136.111,63.889,272.222,555.556,2.778,N
13,-0.220,1.830,0.160,125.000,63.889,275.000,525.000,30.556,N
14,-0.270,1.905,0.050,130.556,58.333,269.444,550.000,25.000,N
15,-0.340,1.830,0.045,125.000,63.889,280.556,525.000,25.000,N
16,-0.350,1.845,0.190,130.556,66.667,283.333,541.667,16.667,N
17,-0.295,1.790,0.060,136.111,63.889,291.667,563.889,22.222,N
18,-0.295,1.855,0.130,133.333,61.111,280.556,558.333,5.556,N
19,-0.285,1.775,0.135,127.778,63.889,288.889,536.111,22.222,N
20,-0.335,1.895,0.045,133.333,58.333,261.111,558.333,22.222,N
21,-0.305,1.825,0.080,130.556,61.111,286.111,530.556,27.778,N
22,-0.285,1.925,0.175,130.556,58.333,272.222,536.111,5.556,N
23,-0.175,1.935,0.205,133.333,63.889,277.778,530.556,5.556,N
24,-0.250,1.985,0.095,125.000,61.111,286.111,544.444,13.889,N
25,-0.250,1.865,0.130,138.889,63.889,286.111,561.111,16.667,N
26,-0.230,1.960,0.280,138.889,63.889,280.556,547.222,13.889,N
27,-0.150,1.845,0.130,133.333,58.333,258.333,555.556,8.333,N
28,-0.260,1.985,0.125,130.556,63.889,297.222,533.333,22.222,N
29,-0.210,1.910,0.205,133.333,61.111,269.444,536.111,2.778,N
30,-0.185,1.870,0.270,127.778,61.111,261.111,530.556,5.556,N
31,-0.190,1.765,0.145,136.111,91.667,305.556,544.444,13.889,N
32,-0.185,1.930,0.280,133.333,61.111,291.667,552.778,8.333,N
33,-0.110,1.950,0.315,130.556,58.333,275.000,552.778,0.000,N
34,-0.105,1.965,0.320,125.000,61.111,283.333,536.111,16.667,N
35,-0.120,1.960,0.220,122.222,58.333,272.222,552.778,16.667,N
36,-0.095,2.060,0.280,130.556,61.111,283.333,525.000,27.778,N
37,-0.080,1.965,0.285,130.556,61.111,277.778,536.111,11.111,N
38,-0.150,1.975,0.175,130.556,61.111,272.222,552.778,16.667,N
39,-0.125,1.940,0.150,125.000,61.111,277.778,536.111,16.667,N
40,-0.190,1.990,0.240,130.556,63.889,283.333,541.667,5.556,N
41,-0.120,2.040,0.350,136.111,63.889,291.667,541.667,0.000,N
42,-0.060,2.060,0.285,136.111,61.111,269.444,561.111,19.444,N
43,-0.085,1.945,0.170,130.556,63.889,283.333,552.778,8.333,N
44,-0.150,2.110,0.205,136.111,63.889,266.667,547.222,5.556,N
45,-0.150,1.980,0.315,125.000,61.111,269.444,525.000,22.222,N
46,-0.070,2.005,0.235,133.333,63.889,283.333,547.222,22.222,N
47,-0.130,1.860,0.175,130.556,66.667,300.000,555.556,8.333,N
48,-0.175,2.150,0.230,147.222,63.889,283.333,558.333,2.778,N
49,-0.120,1.790,0.210,122.222,58.333,272.222,533.333,25.000,N
50,-0.190,2.015,0.115,133.333,61.111,269.444,552.778,19.444,N
51,-0.215,1.885,0.140,133.333,63.889,277.778,525.000,27.778,N
52,-0.250,1.905,0.200,130.556,72.222,272.222,538.889,13.889,N
53,-0.235,1.865,0.055,127.778,66.667,294.444,538.889,0.000,N
54,-0.265,1.855,0.105,125.000,61.111,266.667,533.333,5.556,N
55,-0.210,2.050,0.280,138.889,66.667,280.556,538.889,5.556,N
56,-0.155,1.890,0.225,125.000,66.667,280.556,547.222,8.333,N
57,-0.150,2.010,0.170,133.333,63.889,277.778,563.889,16.667,N
58,-0.180,1.910,0.260,130.556,63.889,277.778,530.556,33.333,N
59,-0.145,1.905,0.300,127.778,66.667,272.222,538.889,8.333,N
60,-0.055,2.030,0.270,127.778,61.111,275.000,536.111,2.778,N
61,-0.055,2.005,0.250,130.556,63.889,277.778,541.667,5.556,N
62,-0.090,1.975,0.355,133.333,66.667,286.111,547.222,5.556,N
63,-0.045,1.985,0.250,136.111,69.444,291.667,561.111,13.889,N
64,-0.150,1.965,0.190,127.778,63.889,280.556,547.222,13.889,N
65,-0.110,2.090,0.230,133.333,63.889,269.444,550.000,2.778,N
66,-0.145,2.110,0.345,125.000,61.111,272.222,522.222,27.778,N
67,-0.015,2.055,0.390,125.000,58.333,263.889,538.889,16.667,N
68,-0.045,2.085,0.295,136.111,66.667,283.333,544.444,5.556,N
69,-0.055,2.095,0.240,133.333,61.111,280.556,547.222,2.778,N
70,-0.080,2.025,0.345,130.556,63.889,291.667,541.667,5.556,N
71,-0.010,2.085,0.335,127.778,61.111,261.111,544.444,2.778,N
72,-0.060,2.100,0.280,125.000,69.444,280.556,552.778,8.333,N
73,-0.045,2.120,0.270,130.556,58.333,266.667,541.667,11.111,N
74,-0.080,2.060,0.300,130.556,61.111,277.778,538.889,2.778,N
75,-0.040,2.165,0.385,127.778,58.333,269.444,525.000,13.889,N
76,-0.075,2.040,0.275,133.333,69.444,277.778,536.111,11.111,N
77,-0.095,2.035,0.215,133.333,66.667,291.667,547.222,11.111,N
78,-0.140,1.995,0.195,133.333,61.111,286.111,555.556,8.333,N
79,-0.120,2.145,0.370,127.778,61.111,275.000,536.111,19.444,N
80,-0.055,2.090,0.300,141.667,66.667,272.222,550.000,13.889,N
81,-0.040,2.150,0.250,122.222,58.333,275.000,536.111,13.889,N
82,-0.095,1.985,0.345,127.778,61.111,272.222,533.333,2.778,N
83,-0.015,2.040,0.325,133.333,63.889,286.111,538.889,5.556,N
84,-0.090,2.115,0.345,130.556,55.556,258.333,552.778,13.889,N
85,0.020,2.200,0.380,138.889,61.111,286.111,527.778,25.000,N
86,0.065,2.020,0.380,127.778,58.333,269.444,558.333,30.556,N
87,-0.005,2.140,0.330,138.889,63.889,288.889,563.889,5.556,N
88,-0.010,2.080,0.400,130.556,63.889,272.222,544.444,19.444,N
89,-0.025,1.995,0.310,127.778,66.667,277.778,530.556,13.889,N
90,-0.020,1.965,0.345,125.000,61.111,277.778,538.889,8.333,N
91,0.010,2.055,0.370,125.000,61.111,280.556,533.333,5.556,N
92,-0.065,2.050,0.260,136.111,66.667,283.333,552.778,19.444,N
93,-0.065,2.090,0.205,141.667,63.889,294.444,555.556,2.778,N
94,-0.120,2.125,0.270,125.000,61.111,277.778,541.667,13.889,N
95,-0.065,2.040,0.325,136.111,83.333,286.111,541.667,0.000,N
96,-0.090,1.895,0.245,122.222,58.333,263.889,533.333,8.333,N
97,-0.085,1.970,0.220,130.556,63.889,277.778,536.111,2.778,N
98,-0.100,2.045,0.300,127.778,61.111,272.222,527.778,8.333,N
99,-0.135,2.000,0.175,133.333,58.333,266.667,550.000,22.222,N
100,-0.165,1.930,0.150,136.111,63.889,294.444,533.333,16.667,N
101,-0.195,1.910,0.225,122.222,63.889,280.556,544.444,11.111,N
102,-0.170,1.940,0.170,130.556,61.111,288.889,544.444,0.000,N
103,-0.175,1.860,0.170,130.556,61.111,266.667,547.222,2.778,N
104,-0.200,2.055,0.120,125.000,66.667,291.667,538.889,8.333,N
105,-0.225,1.940,0.140,125.000,63.889,280.556,541.667,2.778,N
106,-0.175,1.995,0.300,122.222,58.333,283.333,522.222,19.444,N
107,-0.045,2.095,0.375,130.556,66.667,286.111,541.667,19.444,N
108,-0.060,2.100,0.350,141.667,66.667,286.111,566.667,25.000,N
109,0.025,2.215,0.170,119.444,55.556,283.333,555.556,11.111,F
110,-0.050,2.095,0.345,133.333,63.889,283.333,552.778,2.778,N
111,0.030,2.105,0.325,127.778,55.556,258.333,538.889,13.889,N
112,0.000,1.940,0.365,130.556,72.222,283.333,527.778,11.111,N
113,0.010,2.090,0.440,130.556,61.111,283.333,547.222,19.444,N
114,0.440,2.160,-0.070,183.333,66.667,269.444,436.111,111.111,A
115,-0.240,1.985,0.235,125.000,61.111,300.000,625.000,188.889,N
116,-0.090,2.230,0.270,130.556,63.889,275.000,558.333,66.667,N
117,-0.035,1.940,0.450,133.333,86.111,305.556,544.444,13.889,N
118,0.125,2.240,0.325,130.556,58.333,269.444,566.667,22.222,N
119,0.020,2.015,0.295,130.556,63.889,275.000,527.778,38.889,N
120,-0.020,2.045,0.390,127.778,61.111,266.667,533.333,5.556,N
121,0.010,2.175,0.385,122.222,61.111,275.000,530.556,2.778,N
122,0.010,1.965,0.175,144.444,63.889,280.556,558.333,27.778,N
123,-0.160,1.950,0.210,136.111,66.667,302.778,550.000,8.333,N
124,-0.155,1.840,0.285,127.778,61.111,277.778,552.778,2.778,N
125,-0.130,1.935,0.210,130.556,69.444,280.556,541.667,11.111,N
126,-0.170,1.870,0.080,127.778,61.111,272.222,544.444,2.778,N
127,-0.225,1.970,0.200,130.556,66.667,286.111,525.000,19.444,N
128,-0.105,1.940,0.360,125.000,61.111,269.444,536.111,11.111,N
129,-0.085,1.950,0.275,133.333,63.889,288.889,550.000,13.889,N
130,-0.050,2.020,0.180,133.333,63.889,280.556,550.000,0.000,N
131,-0.155,1.955,0.225,138.889,66.667,286.111,550.000,0.000,N
132,-0.115,2.005,0.400,133.333,63.889,277.778,544.444,5.556,N
133,0.015,1.930,0.435,133.333,63.889,263.889,550.000,5.556,N
134,-0.025,2.040,0.265,130.556,63.889,286.111,538.889,11.111,N
135,-0.065,1.945,0.220,133.333,61.111,277.778,558.333,19.444,N
136,-0.100,1.930,0.250,125.000,58.333,277.778,522.222,36.111,N
137,-0.050,1.910,0.270,125.000,61.111,280.556,536.111,13.889,N
138,-0.155,2.045,0.165,136.111,63.889,288.889,552.778,16.667,N
139,-0.180,1.890,0.160,130.556,61.111,283.333,558.333,5.556,N
140,-0.160,2.115,0.260,130.556,61.111,283.333,536.111,22.222,N
141,-0.215,1.920,0.135,127.778,63.889,263.889,541.667,5.556,N
142,-0.235,2.080,0.080,125.000,63.889,283.333,530.556,11.111,N
143,-0.280,2.035,0.175,127.778,58.333,275.000,538.889,8.333,N
144,-0.200,1.870,0.165,133.333,66.667,286.111,538.889,0.000,N
145,-0.295,1.960,0.025,125.000,77.778,291.667,544.444,5.556,N
146,-0.315,1.805,-0.050,138.889,66.667,286.111,541.667,2.778,N
147,-0.435,1.910,0.080,138.889,66.667,283.333,544.444,2.778,N
148,-0.330,1.775,-0.065,133.333,61.111,277.778,558.333,13.889,N
149,-0.390,1.900,-0.120,130.556,58.333,277.778,555.556,2.778,N
150,-0.395,1.950,0.015,130.556,61.111,280.556,544.444,11.111,N
151,-0.385,2.070,0.055,136.111,61.111,269.444,536.111,8.333,N
152,-0.375,1.950,-0.075,133.333,63.889,280.556,555.556,19.444,N
153,-0.430,1.990,0.035,125.000,69.444,308.333,555.556,0.000,N
154,-0.330,2.025,0.135,133.333,63.889,280.556,566.667,11.111,N
155,-0.210,1.870,0.150,125.000,61.111,275.000,530.556,36.111,N
156,-0.225,2.085,0.135,133.333,63.889,283.333,561.111,30.556,N
157,-0.205,2.345,0.190,133.333,61.111,280.556,530.556,30.556,N
158,-0.185,2.100,0.275,122.222,69.444,286.111,541.667,11.111,N
159,-0.160,2.085,0.180,133.333,72.222,288.889,547.222,5.556,N
160,-0.130,2.095,0.240,127.778,58.333,277.778,544.444,2.778,N
161,-0.110,2.175,0.415,136.111,66.667,288.889,541.667,2.778,N
162,-0.050,1.960,0.265,133.333,83.333,308.333,555.556,13.889,N
163,-0.085,2.060,0.310,136.111,69.444,280.556,558.333,2.778,N
164,-0.020,2.190,0.340,130.556,63.889,272.222,530.556,27.778,N
165,0.045,2.015,0.410,133.333,77.778,283.333,541.667,11.111,N
166,-0.025,2.095,0.335,125.000,66.667,286.111,544.444,2.778,N
167,-0.015,2.185,0.465,130.556,88.889,311.111,536.111,8.333,N
168,0.045,2.075,0.435,130.556,61.111,280.556,541.667,5.556,N
169,0.075,1.990,0.410,136.111,69.444,280.556,558.333,16.667,N
170,0.035,2.060,0.320,127.778,61.111,286.111,552.778,5.556,N
171,-0.010,2.170,0.385,136.111,61.111,272.222,547.222,5.556,N
172,0.065,2.275,0.275,127.778,50.000,261.111,527.778,19.444,N
173,-0.025,2.070,0.315,130.556,61.111,277.778,552.778,25.000,N
174,-0.020,2.085,0.325,136.111,61.111,283.333,544.444,8.333,N
175,0.030,1.920,0.355,119.444,58.333,272.222,547.222,2.778,N
176,-0.035,2.030,0.305,130.556,63.889,294.444,555.556,8.333,N
177,-0.040,2.050,0.355,127.778,63.889,286.111,544.444,11.111,N
178,0.015,2.205,0.460,136.111,66.667,286.111,555.556,11.111,N
179,-0.005,2.015,0.320,125.000,58.333,275.000,552.778,2.778,N
180,0.005,2.025,0.310,136.111,61.111,275.000,550.000,2.778,N
181,-0.005,2.090,0.450,133.333,61.111,263.889,533.333,16.667,N
182,0.000,2.200,0.310,130.556,63.889,286.111,536.111,2.778,N
183,-0.050,2.240,0.305,133.333,69.444,305.556,552.778,16.667,N
184,-0.030,2.105,0.380,130.556,63.889,277.778,561.111,8.333,N
185,0.040,1.965,0.355,122.222,63.889,280.556,530.556,30.556,N
186,-0.020,2.065,0.275,136.111,61.111,280.556,561.111,30.556,N
187,-0.030,2.120,0.365,127.778,58.333,275.000,522.222,38.889,N
188,0.055,2.175,0.400,136.111,63.889,286.111,544.444,22.222,N
189,0.010,2.025,0.405,141.667,61.111,288.889,538.889,5.556,N
190,-0.035,2.180,0.250,133.333,61.111,269.444,552.778,13.889,N
191,-0.130,1.920,0.255,133.333,63.889,294.444,541.667,11.111,N
192,-0.050,2.100,0.300,130.556,63.889,283.333,550.000,8.333,N
193,0.050,1.850,0.300,133.333,63.889,286.111,550.000,0.000,N
194,-0.095,2.075,0.225,125.000,61.111,275.000,552.778,2.778,N
195,-0.080,2.215,0.285,133.333,63.889,288.889,541.667,11.111,N
196,-0.005,2.215,0.375,130.556,63.889,277.778,541.667,0.000,N
197,0.070,2.120,0.385,130.556,61.111,277.778,536.111,5.556,N
198,0.005,2.295,0.320,127.778,77.778,302.778,555.556,19.444,N
199,0.000,2.170,0.445,130.556,63.889,286.111,550.000,5.556,N
200,0.130,2.290,0.555,130.556,63.889,275.000,544.444,5.556,N
201,0.100,2.300,0.365,141.667,66.667,297.222,555.556,11.111,F
202,0.075,2.155,0.450,125.000,58.333,280.556,536.111,19.444,N
203,0.150,2.245,0.635,130.556,61.111,275.000,538.889,2.778,N
204,0.250,2.305,0.520,133.333,63.889,280.556,530.556,8.333,N
205,0.115,2.305,0.490,122.222,61.111,277.778,555.556,25.000,N
206,0.165,2.235,0.510,133.333,63.889,294.444,527.778,27.778,N
207,0.230,2.245,0.535,130.556,63.889,277.778,541.667,13.889,N
208,0.110,2.290,0.450,138.889,66.667,300.000,555.556,13.889,N
209,0.080,2.140,0.455,136.111,58.333,277.778,544.444,11.111,N
210,0.085,2.280,0.565,133.333,63.889,286.111,536.111,8.333,N
211,0.140,2.085,0.410,122.222,58.333,263.889,541.667,5.556,N
212,0.075,2.110,0.395,127.778,61.111,283.333,530.556,11.111,N
213,0.055,2.115,0.450,133.333,63.889,291.667,547.222,16.667,N
214,0.130,2.090,0.435,138.889,66.667,272.222,561.111,13.889,N
215,0.000,2.145,0.250,125.000,63.889,286.111,561.111,0.000,F
216,-0.075,2.090,0.320,130.556,63.889,283.333,541.667,19.444,N
217,-0.005,2.590,-0.025,122.222,113.889,325.000,533.333,8.333,F
218,0.050,2.005,0.425,136.111,66.667,269.444,544.444,11.111,N
219,-0.030,2.540,-0.135,127.778,116.667,336.111,547.222,2.778,F
220,-0.170,2.110,0.365,130.556,63.889,272.222,550.000,2.778,N
221,0.485,2.330,-0.265,58.333,116.667,347.222,530.556,19.444,V
222,-0.035,1.895,0.350,133.333,61.111,280.556,561.111,30.556,N
223,-0.190,2.370,-0.280,133.333,116.667,338.889,572.222,11.111,F
224,-0.305,1.845,0.320,133.333,63.889,286.111,544.444,27.778,N
225,-0.060,2.395,-0.075,127.778,105.556,305.556,541.667,2.778,F
226,-0.195,1.935,0.205,127.778,61.111,269.444,547.222,5.556,N
227,-0.170,2.270,0.110,133.333,88.889,294.444,533.333,13.889,F
228,-0.145,2.040,0.335,136.111,61.111,291.667,544.444,11.111,N
229,-0.080,2.050,0.235,130.556,63.889,308.333,550.000,5.556,N
230,-0.080,2.040,0.290,136.111,58.333,291.667,547.222,2.778,N
231,-0.095,2.325,0.250,133.333,91.667,283.333,552.778,5.556,F
232,-0.100,1.895,0.115,122.222,61.111,275.000,533.333,19.444,N
233,-0.285,1.935,-0.215,133.333,63.889,294.444,558.333,25.000,F
234,-0.425,1.985,0.230,127.778,63.889,294.444,511.111,47.222,N
235,-0.055,2.080,0.210,130.556,63.889,283.333,558.333,47.222,F
236,0.035,1.930,0.200,125.000,69.444,280.556,538.889,19.444,N
237,-0.225,2.000,-0.080,136.111,61.111,280.556,563.889,25.000,F
238,-0.230,2.000,-0.140,127.778,63.889,302.778,547.222,16.667,N
239,-0.310,2.125,0.105,136.111,66.667,294.444,541.667,5.556,F
240,-0.005,1.980,0.330,138.889,63.889,291.667,536.111,5.556,N
241,-0.035,2.505,0.020,125.000,105.556,297.222,538.889,2.778,F
242,-0.125,2.075,0.200,122.222,61.111,277.778,536.111,2.778,N
243,-0.105,2.305,0.005,130.556,91.667,300.000,547.222,11.111,F
244,-0.145,2.180,0.285,136.111,66.667,288.889,547.222,0.000,N
245,-0.045,2.370,0.010,133.333,97.222,308.333,552.778,5.556,F
246,-0.165,1.975,0.200,127.778,61.111,288.889,547.222,5.556,N
247,-0.150,2.240,0.045,125.000,88.889,280.556,541.667,5.556,F
248,-0.160,2.010,0.325,125.000,61.111,280.556,530.556,11.111,N
249,0.005,2.495,-0.070,122.222,108.333,311.111,530.556,0.000,F
250,-0.115,2.130,0.230,133.333,61.111,263.889,558.333,27.778,N
251,-0.085,2.570,-0.120,122.222,116.667,336.111,519.444,38.889,F
252,-0.120,1.970,0.465,127.778,61.111,286.111,555.556,36.111,N
253,0.385,-0.530,2.450,197.222,8.333,61.111,463.889,91.667,V
254,-0.200,2.025,0.365,125.000,61.111,280.556,650.000,186.111,N
255,-0.005,2.610,-0.170,125.000,116.667,333.333,530.556,119.444,F
256,0.025,2.075,0.475,127.778,69.444,280.556,541.667,11.111,N
257,-0.040,2.470,0.030,127.778,108.333,322.222,547.222,5.556,F
258,-0.075,2.110,0.440,133.333,61.111,286.111,541.667,5.556,N
259,0.045,2.415,0.175,138.889,100.000,300.000,555.556,13.889,F
260,-0.040,2.035,0.305,130.556,66.667,288.889,552.778,2.778,N
261,-0.015,2.080,0.285,133.333,63.889,291.667,541.667,11.111,N
262,-0.060,2.015,0.430,125.000,58.333,272.222,544.444,2.778,N
263,-0.030,1.940,0.240,127.778,66.667,283.333,538.889,5.556,N
264,-0.110,1.885,0.235,125.000,61.111,283.333,541.667,2.778,N
265,-0.100,1.925,0.245,127.778,63.889,277.778,541.667,0.000,N
266,-0.115,1.910,0.370,125.000,63.889,286.111,527.778,13.889,N
267,-0.120,1.985,0.150,127.778,58.333,272.222,561.111,33.333,N
268,-0.110,1.955,0.240,130.556,63.889,288.889,547.222,13.889,N
269,-0.130,2.120,0.170,133.333,91.667,277.778,555.556,8.333,F
270,-0.075,1.845,0.290,130.556,63.889,283.333,525.000,30.556,N
271,-0.120,2.355,-0.020,127.778,108.333,316.667,550.000,25.000,F
272,-0.180,1.825,0.295,125.000,61.111,275.000,527.778,22.222,N
273,0.035,2.365,-0.355,58.333,116.667,338.889,527.778,0.000,V
274,-0.180,1.865,0.345,136.111,63.889,288.889,558.333,30.556,N
275,0.785,2.255,-0.415,58.333,116.667,330.556,555.556,2.778,V
276,-0.220,1.920,0.465,127.778,61.111,291.667,538.889,16.667,N
277,-0.075,2.415,-0.480,197.222,113.889,341.667,513.889,25.000,V
278,-0.260,1.915,0.400,130.556,63.889,283.333,563.889,50.000,N
279,-0.085,2.380,0.200,127.778,91.667,288.889,530.556,33.333,F
280,-0.060,2.005,0.305,133.333,63.889,277.778,544.444,13.889,N
281,-0.125,1.965,0.210,133.333,69.444,305.556,541.667,2.778,N
282,-0.135,2.065,0.335,136.111,63.889,291.667,544.444,2.778,N
283,-0.065,2.240,0.115,138.889,66.667,297.222,536.111,8.333,F
284,-0.180,2.070,0.170,133.333,58.333,280.556,566.667,30.556,N
285,-0.210,2.300,0.065,133.333,88.889,286.111,533.333,33.333,F
286,-0.185,1.990,0.300,130.556,58.333,272.222,538.889,5.556,N
287,-0.220,2.445,-0.080,133.333,97.222,300.000,533.333,5.556,F
288,-0.240,2.025,0.250,127.778,61.111,288.889,538.889,5.556,N
289,-0.100,2.675,0.010,138.889,116.667,325.000,552.778,13.889,F
290,-0.080,2.050,0.430,127.778,61.111,269.444,552.778,0.000,N
291,0.010,2.515,-0.170,197.222,111.111,111.111,491.667,61.111,V
292,-0.245,1.995,0.325,136.111,58.333,277.778,594.444,102.778,N
293,-0.045,2.595,0.135,133.333,105.556,311.111,525.000,69.444,F
294,0.005,2.025,0.365,122.222,61.111,275.000,533.333,8.333,N
295,-0.075,2.395,0.115,141.667,61.111,286.111,550.000,16.667,F
296,-0.105,2.070,0.300,127.778,61.111,294.444,522.222,27.778,N
297,-0.115,2.165,0.195,127.778,61.111,286.111,552.778,30.556,F
298,-0.100,2.170,0.215,133.333,63.889,294.444,547.222,5.556,N
299,-0.140,2.060,0.125,127.778,75.000,294.444,561.111,13.889,F
300,-0.135,2.015,0.290,122.222,63.889,283.333,522.222,38.889,N
301,-0.045,2.420,0.110,127.778,86.111,275.000,544.444,22.222,F
302,-0.105,2.090,0.255,125.000,61.111,286.111,538.889,5.556,N
303,-0.065,2.560,0.135,136.111,100.000,302.778,538.889,0.000,F
304,-0.055,2.150,0.450,133.333,66.667,288.889,552.778,13.889,N
305,0.365,-0.465,2.635,194.444,2.778,61.111,472.222,80.556,V
306,-0.085,2.160,0.555,130.556,63.889,294.444,641.667,169.444,N
307,-0.010,2.580,-0.200,168316.667,168375.000,168580.556,550.000,91.667,V
308,0.095,2.165,0.590,127.778,63.889,277.778,527.778,22.222,N
309,0.075,2.765,-0.075,127.778,116.667,327.778,550.000,22.222,F
310,-0.020,2.290,0.540,136.111,63.889,291.667,538.889,11.111,N
311,0.050,2.350,0.420,130.556,61.111,266.667,541.667,2.778,F
312,0.070,2.135,0.375,130.556,80.556,302.778,550.000,8.333,N
313,0.050,2.150,0.305,133.333,63.889,286.111,550.000,0.000,N
314,-0.030,2.245,0.300,133.333,63.889,300.000,552.778,2.778,N
315,0.000,2.130,0.450,130.556,66.667,280.556,533.333,19.444,N
316,0.060,2.095,0.555,130.556,63.889,266.667,547.222,13.889,N
317,0.075,2.160,0.325,127.778,61.111,283.333,536.111,11.111,N
318,-0.005,2.150,0.375,130.556,61.111,283.333,538.889,2.778,N
319,0.000,2.565,-0.030,130.556,113.889,338.889,547.222,8.333,F
320,-0.060,2.185,0.545,138.889,61.111,275.000,563.889,16.667,N
321,0.235,2.470,-0.370,197.222,108.333,341.667,488.889,75.000,V
322,-0.190,2.015,0.305,130.556,61.111,275.000,608.333,119.444,N
323,-0.130,2.020,0.285,127.778,61.111,269.444,527.778,80.556,N
324,-0.110,1.985,0.190,125.000,58.333,275.000,538.889,11.111,N
325,-0.160,2.125,0.060,136.111,63.889,291.667,547.222,8.333,F
326,-0.235,2.000,0.280,127.778,58.333,266.667,533.333,13.889,N
327,-0.360,2.135,0.005,150.000,63.889,286.111,536.111,2.778,F
328,-0.280,2.040,0.175,130.556,63.889,297.222,563.889,27.778,N
329,-0.215,2.465,-0.105,133.333,113.889,327.778,555.556,8.333,F
330,-0.180,1.965,0.245,130.556,58.333,269.444,541.667,13.889,N
331,-0.160,2.610,-0.265,138.889,116.667,319.444,541.667,0.000,F
332,-0.270,2.075,0.380,133.333,61.111,275.000,530.556,11.111,N
333,0.015,2.595,-0.315,58.333,116.667,330.556,550.000,19.444,F
334,-0.235,2.070,0.270,133.333,63.889,288.889,552.778,2.778,N
335,-0.140,2.295,0.195,133.333,63.889,283.333,555.556,2.778,F
336,-0.155,2.070,0.230,133.333,61.111,280.556,541.667,13.889,N
337,-0.160,2.120,0.195,133.333,63.889,280.556,555.556,13.889,N
338,-0.145,2.230,0.315,127.778,61.111,272.222,519.444,36.111,N
339,-0.095,2.160,0.240,127.778,61.111,272.222,538.889,19.444,N
340,-0.060,2.135,0.310,133.333,63.889,286.111,527.778,11.111,N
341,-0.075,2.625,0.195,133.333,88.889,286.111,536.111,8.333,F
342,-0.045,2.195,0.375,130.556,75.000,286.111,541.667,5.556,N
343,0.000,2.785,-0.095,122.222,116.667,341.667,547.222,5.556,V
344,-0.040,2.260,0.615,136.111,63.889,280.556,550.000,2.778,N
345,0.490,2.660,-0.230,58.333,116.667,322.222,547.222,2.778,V
346,-0.050,2.175,0.480,130.556,61.111,277.778,555.556,8.333,N
347,0.060,2.650,0.255,130.556,91.667,302.778,533.333,22.222,F
348,0.025,2.165,0.515,127.778,63.889,277.778,533.333,0.000,N
349,0.045,2.645,0.035,127.778,105.556,336.111,558.333,25.000,F
350,-0.120,2.335,0.420,141.667,66.667,291.667,569.444,11.111,N
351,0.055,2.340,0.350,127.778,63.889,277.778,541.667,27.778,F
352,0.075,2.275,0.530,130.556,66.667,297.222,544.444,2.778,N
353,0.235,2.550,0.270,125.000,88.889,300.000,533.333,11.111,F
354,0.075,2.190,0.285,127.778,61.111,277.778,558.333,25.000,N
355,-0.030,2.160,0.315,133.333,61.111,288.889,541.667,16.667,N
356,0.035,2.235,0.550,127.778,58.333,263.889,541.667,0.000,N
357,0.120,2.145,0.345,130.556,63.889,280.556,538.889,2.778,N
358,0.000,2.020,0.300,130.556,58.333,280.556,561.111,22.222,N
359,-0.115,2.150,0.215,138.889,91.667,291.667,547.222,13.889,F
360,-0.095,1.955,0.235,125.000,58.333,263.889,550.000,2.778,N
361,-0.150,2.475,-0.270,127.778,116.667,333.333,536.111,13.889,V
362,-0.275,1.950,0.395,127.778,61.111,280.556,536.111,0.000,N
363,0.370,-0.595,2.360,197.222,5.556,55.556,452.778,83.333,V
364,-0.305,1.865,0.230,133.333,63.889,288.889,638.889,186.111,N
365,-0.270,2.340,-0.200,138.889,116.667,333.333,558.333,80.556,F
366,-0.300,1.735,0.110,130.556,61.111,266.667,541.667,16.667,N
367,-0.370,2.195,-0.345,136.111,91.667,305.556,561.111,19.444,F
368,-0.545,1.685,-0.075,130.556,63.889,275.000,536.111,25.000,N
369,-0.530,2.160,-0.330,133.333,94.444,277.778,536.111,0.000,F
370,-0.525,1.575,-0.235,130.556,61.111,280.556,538.889,2.778,N
371,-0.640,1.855,-0.665,133.333,108.333,308.333,552.778,13.889,F
372,-0.795,0.540,-0.305,136.111,116.667,308.333,538.889,13.889,N
373,-0.670,1.135,-0.600,138.889,116.667,316.667,558.333,19.444,F
374,-0.655,0.785,-0.145,136.111,91.667,319.444,558.333,0.000,N
375,-0.505,2.220,-0.580,130.556,116.667,327.778,558.333,0.000,F
376,-0.590,1.355,0.005,130.556,91.667,319.444,536.111,22.222,N
377,-0.380,1.505,-0.190,127.778,116.667,311.111,552.778,16.667,F
378,-0.355,1.100,-0.075,130.556,88.889,300.000,544.444,8.333,N
379,-0.295,1.355,0.065,136.111,88.889,313.889,541.667,2.778,F
380,-0.160,1.575,0.295,133.333,80.556,316.667,561.111,19.444,N
381,-0.075,1.705,0.120,133.333,97.222,286.111,552.778,8.333,F
382,-0.020,1.625,0.300,136.111,88.889,311.111,555.556,2.778,N
383,0.045,2.270,0.185,130.556,108.333,313.889,527.778,27.778,F
384,0.065,1.595,0.620,133.333,88.889,305.556,530.556,2.778,N
385,0.755,2.620,0.010,58.333,116.667,333.333,536.111,5.556,V
386,0.200,2.005,0.760,133.333,91.667,297.222,566.667,30.556,N
387,0.385,2.030,0.665,127.778,80.556,291.667,530.556,36.111,F
388,0.285,1.285,0.660,136.111,100.000,316.667,547.222,16.667,N
389,0.305,1.475,0.625,133.333,83.333,308.333,552.778,5.556,N
390,0.320,2.100,0.825,133.333,83.333,286.111,547.222,5.556,N
391,0.370,2.385,0.710,127.778,94.444,319.444,530.556,16.667,N
392,0.355,2.455,0.615,125.000,61.111,269.444,552.778,22.222,N
393,0.275,2.485,0.575,133.333,63.889,280.556,527.778,25.000,F
394,0.345,2.515,0.700,127.778,66.667,283.333,547.222,19.444,N
395,-0.010,2.575,-0.160,216297.222,216355.556,216572.222,572.222,25.000,V
396,0.025,2.210,0.640,130.556,61.111,277.778,547.222,25.000,N
397,0.155,2.685,0.050,136.111,116.667,327.778,538.889,8.333,F
398,0.145,2.215,0.590,130.556,61.111,277.778,550.000,11.111,N
399,0.130,2.560,0.185,141.667,97.222,316.667,550.000,0.000,F
400,-0.075,2.045,0.570,127.778,63.889,283.333,530.556,19.444,N
401,0.140,2.380,0.275,133.333,86.111,277.778,550.000,19.444,F
402,0.025,2.050,0.295,133.333,61.111,291.667,541.667,8.333,N
403,-0.110,2.040,0.165,130.556,66.667,280.556,550.000,8.333,F
404,-0.145,1.900,0.415,133.333,58.333,272.222,544.444,5.556,N
405,-0.045,2.275,0.110,125.000,88.889,275.000,550.000,5.556,F
406,-0.185,2.005,0.160,125.000,63.889,283.333,536.111,13.889,N
407,-0.220,2.260,-0.040,127.778,97.222,291.667,541.667,5.556,F
408,-0.235,1.900,0.145,127.778,63.889,280.556,533.333,8.333,N
409,-0.290,2.140,-0.030,136.111,88.889,297.222,544.444,11.111,F
410,-0.340,1.845,0.255,136.111,66.667,288.889,544.444,0.000,N
411,-0.240,2.460,-0.410,127.778,116.667,336.111,561.111,16.667,F
412,-0.490,0.150,0.450,100.000,94.444,300.000,513.889,47.222,F
413,-0.310,2.135,-0.035,130.556,61.111,302.778,569.444,55.556,N
414,-0.285,2.010,0.155,130.556,63.889,300.000,530.556,38.889,N
415,-0.195,2.185,0.090,130.556,61.111,302.778,544.444,13.889,N
416,-0.145,1.985,0.335,133.333,66.667,280.556,555.556,11.111,N
417,-0.100,2.635,-0.055,122.222,108.333,311.111,550.000,5.556,F
418,-0.145,2.050,0.260,136.111,63.889,288.889,563.889,13.889,N
419,-0.065,2.580,0.110,141.667,105.556,311.111,547.222,16.667,F
420,-0.030,2.120,0.430,133.333,77.778,300.000,555.556,8.333,N
421,-0.020,2.710,0.080,133.333,108.333,333.333,547.222,8.333,F
422,0.005,2.105,0.590,130.556,61.111,272.222,538.889,8.333,N
423,0.135,2.700,0.235,122.222,102.778,327.778,525.000,13.889,F
424,0.165,2.375,0.495,130.556,63.889,294.444,555.556,30.556,N
425,0.170,2.355,0.455,133.333,75.000,308.333,552.778,2.778,F
426,0.190,2.345,0.735,125.000,58.333,266.667,552.778,0.000,N
427,0.320,2.640,0.525,138.889,91.667,283.333,544.444,8.333,F
428,0.290,2.385,0.620,127.778,63.889,280.556,547.222,2.778,N
429,0.325,2.950,0.425,127.778,113.889,330.556,525.000,22.222,F
430,0.400,2.430,0.790,130.556,61.111,272.222,541.667,16.667,N
431,0.345,2.885,0.390,136.111,116.667,313.889,552.778,11.111,F
432,0.275,2.485,0.895,125.000,61.111,288.889,527.778,25.000,N
433,0.430,2.895,0.285,138.889,116.667,327.778,558.333,30.556,F
434,0.300,2.385,0.615,127.778,61.111,294.444,555.556,2.778,N
435,0.230,2.375,0.625,130.556,61.111,263.889,550.000,5.556,N
436,0.235,2.210,0.525,127.778,63.889,280.556,533.333,16.667,N
437,0.080,2.225,0.310,125.000,61.111,275.000,552.778,19.444,N
438,-0.040,2.005,0.405,130.556,63.889,272.222,536.111,16.667,N
439,-0.025,2.080,0.240,127.778,63.889,286.111,547.222,11.111,N
440,-0.195,1.840,0.025,138.889,63.889,294.444,566.667,19.444,N
441,-0.360,2.030,0.000,130.556,63.889,283.333,555.556,11.111,F
442,-0.290,1.860,0.065,133.333,63.889,288.889,538.889,16.667,N
443,0.295,1.920,-0.845,58.333,116.667,333.333,555.556,16.667,V
444,-0.845,1.855,-0.095,116.667,88.889,291.667,391.667,163.889,N
445,-0.510,2.000,-0.080,125.000,88.889,308.333,647.222,255.556,F
446,-0.355,1.820,-0.040,138.889,63.889,280.556,580.556,66.667,N
447,-0.405,1.845,-0.140,125.000,61.111,280.556,538.889,41.667,N
448,-0.480,1.880,-0.040,133.333,63.889,277.778,547.222,8.333,N
449,-0.335,1.910,0.060,130.556,80.556,297.222,536.111,11.111,N
450,-0.345,1.915,0.025,127.778,63.889,280.556,555.556,19.444,N
451,-0.400,1.795,-0.005,130.556,61.111,283.333,530.556,25.000,N
452,-0.365,1.980,0.105,125.000,58.333,272.222,533.333,2.778,N
453,-0.230,2.045,0.085,127.778,61.111,280.556,525.000,8.333,F
454,-0.215,1.870,0.035,125.000,61.111,275.000,547.222,22.222,N
455,-0.285,2.480,-0.175,133.333,116.667,350.000,555.556,8.333,F
456,-0.230,1.955,0.430,130.556,61.111,272.222,558.333,2.778,N
457,0.910,2.375,-0.360,58.333,116.667,330.556,538.889,19.444,V
458,-0.145,2.115,0.400,122.222,58.333,275.000,552.778,13.889,N
459,0.005,2.115,0.375,136.111,63.889,283.333,533.333,19.444,N
460,0.070,2.135,0.440,136.111,63.889,275.000,547.222,13.889,N
461,0.065,2.220,0.380,133.333,63.889,280.556,561.111,13.889,N
462,0.105,2.290,0.485,125.000,63.889,280.556,522.222,38.889,N
463,0.170,2.215,0.555,136.111,66.667,277.778,555.556,33.333,N
464,0.200,2.385,0.475,130.556,63.889,302.778,555.556,0.000,N
465,0.115,2.360,0.410,138.889,66.667,275.000,569.444,13.889,N
466,0.105,2.245,0.535,130.556,63.889,280.556,530.556,38.889,N
467,0.195,2.830,0.250,130.556,116.667,322.222,547.222,16.667,F
468,0.220,2.435,0.590,127.778,61.111,275.000,550.000,2.778,N
469,0.070,2.630,0.105,136.111,100.000,305.556,544.444,5.556,F
470,-0.055,2.240,0.370,133.333,61.111,291.667,538.889,5.556,N
471,0.055,2.785,0.095,130.556,116.667,338.889,547.222,8.333,F
472,0.225,2.340,0.890,130.556,63.889,294.444,541.667,5.556,N
473,0.850,-0.110,2.710,197.222,0.000,52.778,469.444,72.222,V
474,0.160,2.240,0.230,136.111,63.889,294.444,636.111,166.667,N
475,-0.050,2.095,0.395,130.556,61.111,288.889,527.778,108.333,N
476,0.185,2.195,0.525,133.333,63.889,283.333,547.222,19.444,N
477,0.115,2.035,0.630,125.000,63.889,277.778,544.444,2.778,N
478,0.220,1.975,0.290,136.111,58.333,277.778,563.889,19.444,N
479,-0.055,1.925,0.230,141.667,66.667,305.556,541.667,22.222,N
480,-0.130,1.965,0.250,136.111,63.889,286.111,552.778,11.111,N
481,-0.085,1.950,0.430,130.556,86.111,305.556,533.333,19.444,N
482,0.010,1.855,0.260,125.000,58.333,269.444,552.778,19.444,N
483,-0.100,1.920,0.190,119.444,61.111,275.000,536.111,16.667,N
484,-0.185,1.905,0.065,133.333,63.889,294.444,541.667,5.556,N
485,-0.255,1.905,0.135,136.111,66.667,288.889,547.222,5.556,N
486,-0.205,1.835,0.300,130.556,80.556,300.000,547.222,0.000,N
487,-0.150,2.545,-0.315,130.556,116.667,336.111,541.667,5.556,V
488,-0.275,2.120,0.225,125.000,63.889,277.778,550.000,8.333,N
489,0.600,2.380,-0.480,58.333,116.667,350.000,519.444,30.556,V
490,-0.275,1.990,0.495,125.000,61.111,286.111,538.889,19.444,N
491,0.015,2.600,-0.295,197.222,113.889,113.889,500.000,38.889,V
492,-0.145,2.280,0.290,130.556,58.333,286.111,588.889,88.889,N
493,-0.045,2.200,0.215,136.111,63.889,288.889,538.889,50.000,F
494,0.040,2.120,0.485,133.333,80.556,308.333,533.333,5.556,N
495,0.115,2.300,0.395,136.111,63.889,286.111,569.444,36.111,N
496,0.165,2.305,0.500,130.556,61.111,272.222,527.778,41.667,N
497,0.145,2.425,0.520,130.556,52.778,269.444,536.111,8.333,F
498,0.215,2.375,0.600,125.000,58.333,275.000,538.889,2.778,N
499,0.240,2.450,0.540,133.333,63.889,286.111,544.444,5.556,N
500,0.285,2.375,0.610,138.889,61.111,286.111,552.778,8.333,N
501,0.240,2.330,0.660,133.333,66.667,277.778,555.556,2.778,N
502,0.190,2.285,0.455,125.000,58.333,291.667,541.667,13.889,N
503,0.050,2.200,0.390,130.556,63.889,272.222,558.333,16.667,N
504,0.065,2.220,0.625,127.778,63.889,277.778,530.556,27.778,N
505,0.230,2.835,0.215,125.000,111.111,308.333,541.667,11.111,F
506,0.150,2.360,0.575,130.556,66.667,302.778,558.333,16.667,N
507,0.325,2.650,0.215,197.222,105.556,105.556,491.667,66.667,V
508,0.135,2.485,0.655,133.333,63.889,294.444,591.667,100.000,N
509,0.250,2.460,0.605,136.111,63.889,305.556,555.556,36.111,N
510,0.415,2.240,0.670,133.333,66.667,275.000,555.556,0.000,N
511,0.225,2.310,0.370,130.556,61.111,291.667,558.333,2.778,N
512,0.040,2.135,0.435,127.778,61.111,283.333,544.444,13.889,N
513,0.100,2.335,0.565,122.222,58.333,277.778,530.556,13.889,N
514,0.250,2.140,0.675,125.000,63.889,283.333,538.889,8.333,N
515,0.150,2.070,0.195,136.111,63.889,288.889,555.556,16.667,N
516,-0.130,1.965,0.220,130.556,63.889,288.889,555.556,0.000,N
517,-0.025,2.460,0.095,130.556,111.111,316.667,536.111,19.444,F
518,0.010,1.985,0.380,127.778,61.111,272.222,550.000,13.889,N
519,0.040,2.355,-0.210,197.222,105.556,105.556,488.889,61.111,V
520,-0.330,2.020,0.280,130.556,63.889,300.000,591.667,102.778,N
521,-0.135,2.015,0.340,141.667,66.667,286.111,550.000,41.667,N
522,-0.080,1.760,0.235,122.222,61.111,280.556,541.667,8.333,N
523,-0.180,1.830,0.050,138.889,66.667,288.889,561.111,19.444,N
524,-0.230,1.825,0.180,130.556,75.000,305.556,544.444,16.667,N
525,-0.180,1.925,0.270,133.333,63.889,286.111,563.889,19.444,N
526,-0.095,1.820,0.225,130.556,63.889,280.556,541.667,22.222,N
527,-0.130,1.950,0.050,125.000,61.111,275.000,561.111,19.444,N
528,-0.225,1.905,0.185,127.778,61.111,277.778,522.222,38.889,N
529,-0.160,1.965,0.385,133.333,66.667,283.333,544.444,22.222,N
530,-0.055,1.995,0.275,133.333,66.667,288.889,555.556,11.111,N
531,-0.095,2.075,0.100,133.333,63.889,294.444,583.333,27.778,N
532,-0.140,2.060,0.220,130.556,66.667,297.222,536.111,47.222,N
533,-0.090,2.045,0.445,127.778,63.889,280.556,550.000,13.889,N
534,0.095,1.850,0.420,130.556,66.667,280.556,533.333,16.667,N
535,0.025,2.015,0.280,130.556,61.111,291.667,552.778,19.444,N
536,0.055,2.160,0.415,138.889,66.667,300.000,536.111,16.667,N
537,0.105,2.765,0.200,125.000,116.667,316.667,533.333,2.778,F
538,0.140,2.015,0.610,141.667,69.444,286.111,555.556,22.222,N
539,0.205,2.700,0.435,197.222,105.556,105.556,502.778,52.778,V
540,0.095,2.155,0.730,133.333,83.333,305.556,608.333,105.556,N
541,0.485,2.715,0.130,197.222,111.111,327.778,491.667,116.667,V
542,0.290,2.320,0.745,130.556,58.333,277.778,594.444,102.778,N
543,0.270,2.385,0.365,138.889,61.111,288.889,552.778,41.667,F
544,0.130,2.410,0.580,127.778,61.111,291.667,536.111,16.667,N
545,0.210,2.260,0.680,130.556,66.667,283.333,544.444,8.333,N
546,0.200,2.215,0.495,127.778,66.667,283.333,566.667,22.222,N
547,0.110,2.190,0.355,136.111,63.889,302.778,547.222,19.444,N
548,0.025,2.135,0.560,136.111,61.111,269.444,552.778,5.556,N
549,0.085,2.370,0.200,125.000,88.889,291.667,527.778,25.000,F
550,-0.075,2.055,0.140,127.778,61.111,272.222,550.000,22.222,N
551,-0.175,2.470,-0.365,136.111,116.667,330.556,541.667,8.333,V
552,-0.300,2.005,0.445,127.778,91.667,316.667,541.667,0.000,N
553,0.455,2.410,-0.410,58.333,116.667,327.778,558.333,16.667,V
554,-0.295,1.915,0.210,136.111,63.889,288.889,541.667,16.667,N
555,-0.225,2.000,0.225,136.111,69.444,275.000,555.556,13.889,N
556,-0.140,2.065,0.205,130.556,61.111,277.778,544.444,11.111,N
557,-0.235,1.955,0.095,133.333,61.111,272.222,547.222,2.778,N
558,-0.245,2.105,0.245,127.778,61.111,280.556,525.000,22.222,N
559,-0.135,1.950,0.190,138.889,63.889,288.889,530.556,5.556,N
560,-0.170,2.010,0.115,136.111,61.111,291.667,561.111,30.556,N
561,-0.215,2.005,0.145,136.111,63.889,275.000,561.111,0.000,N
562,-0.180,2.155,0.315,130.556,91.667,302.778,533.333,27.778,N
563,-0.080,2.165,0.125,125.000,63.889,277.778,558.333,25.000,N
564,-0.210,2.050,0.190,127.778,61.111,283.333,525.000,33.333,N
565,-0.155,2.225,0.295,127.778,63.889,275.000,544.444,19.444,N
566,-0.060,2.165,0.375,133.333,63.889,283.333,536.111,8.333,N
567,0.145,2.680,-0.260,197.222,113.889,352.778,497.222,38.889,V
568,-0.055,2.245,0.385,138.889,63.889,305.556,600.000,102.778,N
569,0.065,2.675,0.160,197.222,111.111,111.111,505.556,94.444,V
570,-0.005,2.245,0.570,144.444,63.889,294.444,619.444,113.889,N
571,0.150,2.245,0.580,130.556,61.111,272.222,550.000,69.444,N
572,0.165,2.155,0.480,136.111,63.889,288.889,547.222,2.778,N
573,0.085,2.180,0.350,130.556,61.111,272.222,552.778,5.556,N
574,0.110,2.285,0.575,133.333,63.889,280.556,533.333,19.444,N
575,0.240,2.425,0.720,136.111,63.889,283.333,547.222,13.889,N
576,0.270,2.300,0.545,136.111,61.111,286.111,563.889,16.667,N
577,0.155,2.225,0.445,130.556,61.111,283.333,538.889,25.000,N
578,0.200,2.265,0.645,127.778,63.889,275.000,544.444,5.556,N
579,0.195,2.255,0.375,125.000,63.889,277.778,533.333,11.111,N
580,0.085,2.230,0.400,130.556,61.111,272.222,533.333,0.000,N
581,0.080,2.210,0.720,133.333,63.889,280.556,527.778,5.556,N
582,0.305,2.255,0.585,125.000,69.444,275.000,541.667,13.889,N
583,0.150,2.750,-0.065,133.333,116.667,336.111,555.556,13.889,V
584,-0.070,2.180,0.430,127.778,66.667,277.778,547.222,8.333,N
585,-0.010,2.290,-0.210,319975.000,320033.333,320244.444,550.000,2.778,V
586,0.070,2.300,0.520,127.778,80.556,294.444,552.778,2.778,N
587,0.280,2.540,-0.310,58.333,116.667,336.111,555.556,2.778,V
588,-0.215,1.935,0.420,122.222,55.556,275.000,533.333,22.222,N
589,0.010,2.055,0.295,133.333,63.889,283.333,530.556,2.778,N
590,-0.035,2.215,0.210,130.556,63.889,294.444,561.111,30.556,N
591,-0.170,1.990,0.155,136.111,77.778,305.556,561.111,0.000,N
592,-0.250,1.970,0.320,127.778,63.889,277.778,550.000,11.111,N
593,-0.140,2.180,0.185,127.778,63.889,283.333,552.778,2.778,N
594,-0.205,2.065,0.105,125.000,61.111,280.556,536.111,16.667,N
595,-0.250,2.540,-0.135,130.556,116.667,319.444,533.333,2.778,F
596,-0.215,1.940,0.320,127.778,83.333,308.333,536.111,2.778,N
597,0.235,-0.660,2.590,197.222,2.778,58.333,466.667,69.444,V
598,-0.340,2.030,0.270,133.333,61.111,297.222,627.778,161.111,N
599,-0.105,2.640,-0.210,127.778,116.667,330.556,552.778,75.000,V
600,-0.170,2.230,0.275,130.556,63.889,283.333,563.889,11.111,N
601,-0.110,2.270,0.250,130.556,58.333,275.000,544.444,19.444,N
602,-0.060,2.175,0.430,133.333,61.111,277.778,533.333,11.111,N
603,0.005,2.220,0.325,130.556,55.556,269.444,538.889,5.556,N
604,0.005,2.200,0.335,133.333,63.889,286.111,538.889,0.000,N
605,0.025,2.230,0.465,130.556,58.333,280.556,544.444,5.556,N
606,0.115,2.420,0.585,136.111,66.667,288.889,555.556,11.111,N
607,0.185,2.120,0.490,125.000,61.111,280.556,541.667,13.889,N
608,0.100,2.270,0.345,136.111,63.889,297.222,561.111,19.444,N
609,0.065,2.310,0.330,127.778,61.111,291.667,530.556,30.556,N
610,0.020,2.415,0.445,133.333,61.111,280.556,538.889,8.333,N
611,0.045,2.425,0.540,138.889,66.667,283.333,536.111,2.778,F
612,0.095,2.305,0.425,133.333,61.111,269.444,563.889,27.778,N
613,0.390,-0.485,2.865,197.222,2.778,58.333,458.333,105.556,V
614,-0.125,2.200,0.525,130.556,61.111,283.333,650.000,191.667,N
615,0.090,2.295,0.340,136.111,66.667,277.778,555.556,94.444,N
616,-0.005,2.290,0.205,130.556,63.889,269.444,561.111,5.556,N
617,-0.085,2.325,0.185,138.889,66.667,288.889,538.889,22.222,N
618,-0.165,2.220,0.430,136.111,61.111,263.889,538.889,0.000,N
619,-0.065,2.170,0.255,127.778,63.889,283.333,544.444,5.556,N
620,-0.130,2.165,0.115,138.889,63.889,297.222,555.556,11.111,N
621,-0.240,2.115,0.150,136.111,69.444,308.333,552.778,2.778,N
622,-0.160,1.970,0.310,125.000,58.333,269.444,550.000,2.778,N
623,-0.105,2.165,0.080,136.111,66.667,291.667,561.111,11.111,N
624,-0.230,2.030,0.165,127.778,61.111,266.667,527.778,33.333,N
625,-0.230,2.165,0.495,130.556,88.889,297.222,538.889,11.111,N
626,0.495,2.465,0.095,177.778,88.889,297.222,416.667,122.222,A
627,-0.295,2.130,0.125,144.444,61.111,291.667,663.889,247.222,N
628,-0.165,2.095,0.175,127.778,63.889,300.000,538.889,125.000,N
629,-0.125,2.120,0.315,130.556,83.333,305.556,555.556,16.667,N
630,-0.150,2.155,0.035,130.556,61.111,288.889,566.667,11.111,N
631,-0.255,2.100,0.195,127.778,72.222,288.889,547.222,19.444,N
632,-0.130,2.005,0.300,130.556,61.111,272.222,538.889,8.333,N
633,-0.120,2.110,0.145,130.556,61.111,277.778,547.222,8.333,N
634,-0.150,2.100,0.390,133.333,61.111,302.778,536.111,11.111,N
635,0.390,2.355,0.370,183.333,61.111,263.889,455.556,80.556,A
636,-0.075,2.365,0.325,130.556,63.889,305.556,663.889,208.333,N
637,-0.015,2.180,0.235,133.333,63.889,272.222,561.111,102.778,N
638,-0.070,2.355,0.445,136.111,63.889,294.444,544.444,16.667,N
639,0.045,2.200,0.570,130.556,88.889,288.889,538.889,5.556,N
640,0.040,2.100,0.505,130.556,66.667,280.556,541.667,2.778,N
641,0.110,2.280,0.370,133.333,63.889,288.889,552.778,11.111,N
642,0.070,2.440,0.520,130.556,61.111,272.222,547.222,5.556,N
643,0.140,2.415,0.640,138.889,63.889,280.556,541.667,5.556,N
644,0.160,2.445,0.545,127.778,63.889,283.333,561.111,19.444,N
645,0.135,2.325,0.450,144.444,63.889,291.667,561.111,0.000,N
646,0.095,2.375,0.645,122.222,61.111,277.778,538.889,22.222,N
647,0.225,2.295,0.645,130.556,61.111,280.556,533.333,5.556,N
648,0.185,2.370,0.455,125.000,58.333,280.556,550.000,16.667,N
649,0.160,2.405,0.520,127.778,58.333,283.333,530.556,19.444,N
650,0.200,2.375,0.785,136.111,63.889,288.889,547.222,16.667,N
651,0.310,2.355,0.555,141.667,66.667,280.556,572.222,25.000,N
652,0.055,2.290,0.350,130.556,66.667,300.000,552.778,19.444,N
653,0.040,2.345,0.395,133.333,63.889,283.333,547.222,5.556,N
654,0.050,2.265,0.695,127.778,61.111,261.111,530.556,16.667,N
655,0.280,2.230,0.525,130.556,61.111,277.778,547.222,16.667,N
656,0.080,2.125,0.275,133.333,63.889,288.889,555.556,8.333,N
657,-0.080,2.155,0.270,133.333,63.889,250.000,547.222,8.333,N
658,0.270,2.150,0.335,177.778,63.889,269.444,394.444,152.778,A
659,-0.070,2.240,0.385,138.889,61.111,294.444,677.778,283.333,N
660,0.050,2.205,0.230,136.111,61.111,291.667,575.000,102.778,N
661,-0.100,2.100,0.330,125.000,55.556,280.556,541.667,33.333,N
662,0.015,2.015,0.410,130.556,61.111,277.778,541.667,0.000,N
663,0.000,2.125,0.235,122.222,58.333,280.556,544.444,2.778,N
664,-0.075,2.055,0.275,127.778,58.333,269.444,530.556,13.889,N
665,-0.140,2.040,0.415,133.333,66.667,280.556,555.556,25.000,N
666,-0.050,2.050,0.340,133.333,61.111,280.556,569.444,13.889,N
667,-0.105,2.180,0.165,127.778,61.111,283.333,547.222,22.222,N
668,-0.175,2.080,0.325,133.333,63.889,280.556,538.889,8.333,N
669,-0.050,2.090,0.270,127.778,61.111,272.222,527.778,11.111,N
670,-0.140,2.090,0.260,144.444,61.111,283.333,550.000,22.222,N
671,-0.125,2.175,0.430,130.556,61.111,283.333,530.556,19.444,N
672,0.030,2.225,0.395,127.778,61.111,269.444,550.000,19.444,N
673,0.000,2.150,0.375,136.111,63.889,288.889,547.222,2.778,N
674,0.065,2.200,0.425,127.778,61.111,275.000,547.222,0.000,N
675,0.060,2.100,0.525,138.889,63.889,283.333,558.333,11.111,N
676,0.130,2.235,0.370,122.222,61.111,275.000,550.000,8.333,N
677,0.125,2.245,0.480,133.333,66.667,291.667,536.111,13.889,N
678,0.090,2.360,0.565,133.333,63.889,269.444,544.444,8.333,N
679,0.115,2.230,0.525,136.111,63.889,280.556,538.889,5.556,N
680,0.085,2.130,0.370,138.889,63.889,286.111,569.444,30.556,N
681,0.060,2.080,0.480,138.889,63.889,286.111,552.778,16.667,N
682,0.140,2.060,0.455,133.333,63.889,277.778,541.667,11.111,N
683,0.455,2.370,0.300,186.111,91.667,305.556,436.111,105.556,A
684,-0.155,2.140,0.410,122.222,58.333,300.000,652.778,216.667,N
685,0.105,2.095,0.495,130.556,63.889,266.667,555.556,97.222,N
686,0.120,2.035,0.435,130.556,63.889,288.889,538.889,16.667,N
687,0.040,1.935,0.275,130.556,63.889,286.111,555.556,16.667,N
688,-0.075,2.005,0.510,136.111,63.889,280.556,536.111,19.444,N
689,0.510,2.335,0.270,169.444,69.444,269.444,416.667,119.444,A
690,-0.105,2.050,0.165,147.222,63.889,300.000,675.000,258.333,N
691,-0.065,1.925,0.065,125.000,58.333,275.000,547.222,127.778,N
692,-0.215,2.015,0.270,136.111,83.333,322.222,541.667,5.556,N
693,-0.100,2.000,0.470,125.000,83.333,286.111,536.111,5.556,N
694,0.005,1.975,0.370,130.556,61.111,283.333,541.667,5.556,N
695,-0.080,1.915,0.070,133.333,63.889,291.667,563.889,22.222,N
696,-0.275,1.940,0.180,130.556,61.111,291.667,552.778,11.111,N
697,-0.195,1.910,0.330,125.000,63.889,283.333,544.444,8.333,N
698,-0.105,1.870,0.270,130.556,63.889,275.000,547.222,2.778,N
699,-0.100,1.790,0.025,122.222,58.333,280.556,536.111,11.111,N
700,-0.295,1.840,0.100,133.333,61.111,272.222,541.667,5.556,N
701,-0.255,1.710,0.205,130.556,63.889,291.667,533.333,8.333,N
702,-0.230,2.000,0.045,125.000,61.111,269.444,558.333,25.000,N
703,-0.305,1.980,0.080,127.778,63.889,283.333,538.889,19.444,N
704,-0.275,1.980,0.210,133.333,61.111,286.111,550.000,11.111,N
705,-0.225,1.935,0.085,138.889,63.889,280.556,569.444,19.444,N
706,-0.320,1.810,0.065,125.000,61.111,283.333,541.667,27.778,N
707,-0.260,2.005,0.170,127.778,72.222,283.333,538.889,2.778,N
708,-0.100,2.250,0.400,125.000,61.111,275.000,536.111,2.778,N
709,0.000,2.180,0.330,130.556,63.889,294.444,544.444,8.333,N
710,-0.040,2.230,0.255,136.111,63.889,291.667,569.444,25.000,N
711,-0.025,2.150,0.360,130.556,63.889,275.000,555.556,13.889,N
712,0.025,2.235,0.440,127.778,63.889,277.778,538.889,16.667,N
713,0.065,2.270,0.310,127.778,63.889,283.333,561.111,22.222,N
714,0.025,2.120,0.420,125.000,61.111,277.778,530.556,30.556,N
715,0.025,2.170,0.495,133.333,63.889,272.222,541.667,11.111,N
716,0.065,2.255,0.440,133.333,61.111,288.889,541.667,0.000,N
717,0.060,2.180,0.400,125.000,61.111,266.667,555.556,13.889,N
718,0.050,2.180,0.530,130.556,72.222,286.111,536.111,19.444,N
719,0.115,2.155,0.450,127.778,63.889,280.556,555.556,19.444,N
720,0.055,2.160,0.360,138.889,63.889,288.889,561.111,5.556,N
721,0.030,2.105,0.500,141.667,61.111,280.556,538.889,22.222,N
722,0.155,2.095,0.530,133.333,61.111,280.556,550.000,11.111,N
723,0.175,2.195,0.280,130.556,61.111,275.000,555.556,5.556,N
724,0.015,2.135,0.385,130.556,61.111,280.556,536.111,19.444,N
725,0.060,2.090,0.745,138.889,88.889,319.444,550.000,13.889,N
726,0.745,2.215,0.345,191.667,83.333,286.111,455.556,94.444,A
727,-0.095,2.110,0.235,125.000,63.889,305.556,663.889,208.333,N
728,0.025,1.960,0.410,138.889,63.889,272.222,555.556,108.333,N
729,0.040,2.155,0.300,127.778,63.889,272.222,541.667,13.889,N
730,-0.070,1.925,0.135,130.556,63.889,269.444,541.667,0.000,N
731,-0.205,2.000,0.320,136.111,63.889,288.889,547.222,5.556,N
732,-0.060,1.910,0.255,125.000,61.111,266.667,547.222,0.000,N
733,-0.150,1.975,0.060,138.889,61.111,288.889,547.222,0.000,N
734,-0.305,1.835,0.055,127.778,66.667,286.111,544.444,2.778,N
735,-0.330,1.865,0.265,130.556,83.333,308.333,550.000,5.556,N
736,-0.155,2.025,0.185,119.444,58.333,277.778,552.778,2.778,N
737,-0.220,1.900,0.005,130.556,61.111,272.222,547.222,5.556,N
738,-0.320,1.920,0.075,127.778,63.889,272.222,525.000,22.222,N
739,-0.320,1.935,0.245,133.333,66.667,277.778,538.889,13.889,N
740,-0.200,1.870,0.240,130.556,91.667,316.667,550.000,11.111,N
741,-0.160,1.985,0.080,133.333,72.222,288.889,580.556,30.556,N
742,-0.195,1.995,0.150,127.778,58.333,280.556,536.111,44.444,N
743,-0.205,2.075,0.340,133.333,66.667,280.556,550.000,13.889,N
744,-0.220,2.065,0.315,197.222,61.111,269.444,522.222,27.778,N
745,-0.105,2.175,0.290,133.333,63.889,286.111,577.778,55.556,N
746,-0.005,2.105,0.385,136.111,66.667,286.111,536.111,41.667,N
747,-0.005,2.325,0.510,127.778,63.889,269.444,547.222,11.111,N
748,0.025,2.175,0.365,136.111,63.889,288.889,552.778,5.556,N
749,-0.035,2.260,0.245,130.556,61.111,291.667,561.111,8.333,N
750,-0.010,2.125,0.380,144.444,63.889,283.333,544.444,16.667,N
751,0.055,2.405,0.520,125.000,72.222,280.556,541.667,2.778,N
752,0.180,2.180,0.505,130.556,63.889,283.333,541.667,0.000,N
753,0.100,2.255,0.300,127.778,61.111,275.000,558.333,16.667,N
754,0.030,2.240,0.400,127.778,63.889,277.778,530.556,27.778,N
755,0.020,2.265,0.495,136.111,63.889,302.778,547.222,16.667,N
756,0.140,2.280,0.620,136.111,63.889,288.889,566.667,19.444,N
757,0.180,2.285,0.510,127.778,63.889,286.111,544.444,22.222,N
758,0.140,2.230,0.275,136.111,61.111,277.778,566.667,22.222,N
759,0.000,2.255,0.365,127.778,61.111,269.444,519.444,47.222,N
760,0.080,2.250,0.575,130.556,63.889,266.667,533.333,13.889,N
761,0.100,2.255,0.380,130.556,63.889,288.889,547.222,13.889,N
762,0.025,2.140,0.275,127.778,61.111,272.222,547.222,0.000,N
763,-0.085,2.140,0.460,130.556,63.889,280.556,536.111,11.111,N
764,0.055,2.125,0.280,133.333,61.111,280.556,544.444,8.333,N
765,-0.175,1.995,0.055,136.111,63.889,294.444,563.889,19.444,N
766,-0.275,2.145,0.145,125.000,88.889,313.889,538.889,25.000,N
767,-0.235,1.995,0.375,127.778,61.111,283.333,544.444,5.556,N
768,-0.070,2.200,0.270,122.222,58.333,266.667,547.222,2.778,N
769,-0.115,2.080,0.120,127.778,61.111,283.333,547.222,0.000,N
770,-0.170,2.015,0.195,133.333,66.667,288.889,550.000,2.778,N
771,-0.145,2.185,0.290,133.333,66.667,283.333,563.889,13.889,N
772,-0.095,2.155,0.190,127.778,61.111,283.333,555.556,8.333,N
773,-0.190,2.050,0.220,133.333,63.889,272.222,547.222,8.333,N
774,-0.160,2.085,0.360,125.000,61.111,277.778,527.778,19.444,N
775,-0.085,2.070,0.365,127.778,91.667,313.889,550.000,22.222,N
776,-0.010,2.255,0.230,127.778,69.444,283.333,550.000,0.000,N
777,-0.095,2.215,0.290,127.778,63.889,275.000,538.889,11.111,N
778,-0.050,2.195,0.445,130.556,61.111,269.444,533.333,5.556,N
779,0.020,2.345,0.355,122.222,66.667,297.222,555.556,22.222,N
780,0.050,2.240,0.340,130.556,72.222,302.778,555.556,0.000,N
781,0.015,2.145,0.475,122.222,58.333,275.000,538.889,16.667,N
782,0.095,2.090,0.500,127.778,63.889,283.333,538.889,0.000,N
783,0.065,2.275,0.390,122.222,58.333,277.778,555.556,16.667,N
784,0.135,2.245,0.500,133.333,61.111,283.333,533.333,22.222,N
785,0.120,2.345,0.580,133.333,91.667,313.889,544.444,11.111,N
786,0.145,2.210,0.415,127.778,63.889,286.111,566.667,22.222,N
787,0.060,2.220,0.380,136.111,63.889,288.889,558.333,8.333,N
788,0.130,2.340,0.575,133.333,63.889,283.333,541.667,16.667,N
789,0.205,2.180,0.575,125.000,66.667,283.333,538.889,2.778,N
790,0.155,2.400,0.350,136.111,63.889,266.667,555.556,16.667,N
791,0.035,2.160,0.445,136.111,63.889,288.889,533.333,22.222,N
792,0.090,2.355,0.520,127.778,55.556,269.444,547.222,13.889,F
793,0.240,2.245,0.510,133.333,66.667,291.667,547.222,0.000,N
794,0.160,2.265,0.350,130.556,63.889,277.778,561.111,13.889,N
795,0.015,2.200,0.330,138.889,66.667,283.333,552.778,8.333,N
796,-0.010,2.120,0.540,127.778,63.889,272.222,547.222,5.556,N
797,0.120,2.090,0.460,133.333,63.889,286.111,550.000,2.778,N
798,0.025,1.985,0.125,125.000,58.333,275.000,544.444,5.556,N
799,-0.180,1.960,0.185,136.111,63.889,288.889,519.444,25.000,N
800,-0.170,1.940,0.375,127.778,61.111,291.667,544.444,25.000,N
801,-0.005,1.990,0.300,136.111,66.667,291.667,561.111,16.667,N
802,-0.120,2.045,0.030,127.778,61.111,283.333,558.333,2.778,N
803,-0.285,1.955,0.140,136.111,63.889,288.889,536.111,22.222,N
804,0.140,2.025,0.215,180.556,63.889,272.222,452.778,83.333,A
805,-0.065,2.165,0.260,127.778,63.889,297.222,616.667,163.889,N
806,-0.040,2.020,0.125,127.778,63.889,283.333,552.778,63.889,N
807,-0.150,2.030,0.170,136.111,63.889,272.222,547.222,5.556,N
808,-0.175,2.090,0.180,133.333,63.889,291.667,525.000,22.222,N
809,-0.175,2.080,0.310,130.556,61.111,283.333,550.000,25.000,N
810,-0.080,2.030,0.330,138.889,86.111,308.333,555.556,5.556,N
811,0.070,2.470,-0.150,197.222,105.556,105.556,500.000,55.556,V
812,-0.255,2.090,0.215,133.333,63.889,286.111,602.778,102.778,N
813,-0.180,1.955,0.305,125.000,61.111,272.222,541.667,61.111,N
814,-0.030,2.275,0.210,127.778,72.222,283.333,544.444,2.778,N
815,-0.120,2.025,0.280,130.556,63.889,288.889,547.222,2.778,N
816,-0.105,2.080,0.410,133.333,66.667,280.556,552.778,5.556,N
817,-0.010,2.130,0.300,130.556,61.111,277.778,552.778,0.000,N
818,-0.075,2.120,0.345,127.778,66.667,297.222,550.000,2.778,N
819,-0.010,2.260,0.470,130.556,61.111,266.667,536.111,13.889,N
820,0.105,2.085,0.500,133.333,83.333,291.667,530.556,5.556,N
821,0.060,2.190,0.355,130.556,66.667,297.222,538.889,8.333,N
822,0.070,2.255,0.450,141.667,63.889,266.667,547.222,8.333,N
823,0.105,2.535,0.400,133.333,94.444,300.000,525.000,22.222,F
824,0.130,2.100,0.500,125.000,69.444,277.778,555.556,30.556,N
825,0.505,2.710,-0.190,58.333,116.667,336.111,552.778,2.778,V
826,-0.015,2.260,0.575,130.556,63.889,275.000,550.000,2.778,N
827,0.115,2.770,-0.020,125.000,116.667,333.333,530.556,19.444,V
828,0.110,2.260,0.525,125.000,61.111,280.556,552.778,22.222,N
829,0.045,2.655,0.040,127.778,105.556,316.667,544.444,8.333,F
830,-0.125,2.105,0.375,125.000,63.889,283.333,533.333,11.111,N
831,-0.020,2.730,0.020,141.667,116.667,341.667,555.556,22.222,F
832,-0.060,2.285,0.260,125.000,61.111,280.556,566.667,11.111,N
833,-0.205,2.605,-0.130,136.111,102.778,316.667,552.778,13.889,F
834,-0.365,2.080,0.255,133.333,86.111,288.889,541.667,11.111,N
835,-0.195,2.675,-0.200,136.111,111.111,313.889,536.111,5.556,F
836,-0.335,1.960,0.005,133.333,63.889,291.667,561.111,25.000,N
837,-0.395,2.660,-0.345,127.778,116.667,311.111,550.000,11.111,F
838,-0.325,1.995,0.250,127.778,61.111,286.111,530.556,19.444,N
839,0.810,2.310,-0.645,58.333,116.667,336.111,569.444,38.889,V
840,-0.480,2.160,0.165,133.333,66.667,297.222,544.444,25.000,N
841,-0.040,2.390,-0.445,58.333,108.333,325.000,550.000,5.556,V
842,-0.165,2.375,0.245,133.333,61.111,277.778,558.333,8.333,N
843,-0.210,2.685,-0.005,127.778,63.889,286.111,541.667,16.667,F
844,-0.205,2.385,0.435,130.556,75.000,300.000,525.000,16.667,N
845,0.025,2.920,0.180,130.556,108.333,333.333,544.444,19.444,F
846,0.055,2.430,0.420,138.889,66.667,305.556,583.333,38.889,N
847,0.075,3.060,0.210,130.556,111.111,316.667,544.444,38.889,F
848,0.160,2.345,0.670,136.111,66.667,280.556,552.778,8.333,N
849,0.180,2.930,-0.175,88.889,113.889,338.889,522.222,30.556,V
850,-0.050,2.345,0.650,130.556,63.889,283.333,563.889,41.667,N
851,0.395,2.880,-0.010,197.222,108.333,350.000,486.111,77.778,V
852,0.170,2.320,0.660,130.556,61.111,272.222,600.000,113.889,N
853,-0.010,2.750,-0.005,466558.333,466616.667,466841.667,550.000,50.000,V
854,0.175,2.370,0.815,130.556,61.111,277.778,552.778,2.778,N
855,0.310,2.920,0.355,136.111,116.667,336.111,552.778,0.000,F
856,0.255,2.360,0.680,127.778,63.889,269.444,566.667,13.889,N
857,0.230,2.655,0.410,130.556,91.667,302.778,544.444,22.222,F
858,0.185,2.430,0.655,130.556,61.111,272.222,533.333,11.111,N
859,0.250,2.620,0.545,133.333,66.667,300.000,533.333,0.000,V
860,0.265,2.325,0.735,127.778,83.333,322.222,541.667,8.333,N
861,0.285,2.285,0.500,141.667,69.444,291.667,580.556,38.889,N
862,0.185,2.245,0.570,130.556,61.111,280.556,561.111,19.444,N
863,0.205,2.710,0.185,133.333,116.667,325.000,547.222,13.889,V
864,0.265,2.250,0.670,127.778,61.111,277.778,536.111,11.111,N
865,0.185,2.645,0.085,138.889,116.667,316.667,547.222,11.111,F
866,-0.005,2.180,0.510,130.556,63.889,280.556,530.556,16.667,N
867,0.330,2.620,0.005,83.333,113.889,341.667,513.889,16.667,V
868,0.180,2.210,0.540,136.111,61.111,291.667,588.889,75.000,N
869,0.670,2.320,-0.255,58.333,116.667,330.556,552.778,36.111,V
870,-0.050,2.145,0.545,138.889,61.111,288.889,552.778,0.000,N
871,0.615,2.350,-0.185,58.333,116.667,313.889,550.000,2.778,V
872,0.065,2.115,0.385,125.000,61.111,275.000,558.333,8.333,N
873,-0.045,2.285,-0.035,127.778,88.889,297.222,538.889,19.444,F
874,-0.245,2.095,0.330,130.556,61.111,286.111,522.222,16.667,N
875,-0.025,2.470,0.125,136.111,105.556,319.444,563.889,41.667,F
876,-0.035,2.050,0.310,144.444,66.667,288.889,580.556,16.667,N
877,-0.110,2.245,0.075,130.556,88.889,286.111,555.556,25.000,F
878,-0.105,2.030,0.350,127.778,63.889,283.333,547.222,8.333,N
879,-0.080,2.535,-0.130,125.000,116.667,322.222,544.444,2.778,F
880,-0.205,2.050,0.450,127.778,61.111,275.000,547.222,2.778,N
881,0.570,2.195,-0.295,58.333,105.556,316.667,527.778,19.444,V
882,-0.065,2.145,0.370,130.556,58.333,280.556,569.444,41.667,N
883,0.505,2.520,-0.245,58.333,116.667,347.222,544.444,25.000,V
884,-0.105,2.180,0.685,127.778,63.889,288.889,552.778,8.333,N
885,0.535,-0.475,2.620,197.222,2.778,55.556,480.556,72.222,V
886,-0.020,2.230,0.335,125.000,61.111,288.889,636.111,155.556,N
887,0.000,2.295,0.300,136.111,69.444,300.000,538.889,97.222,N
888,0.040,2.325,0.700,133.333,61.111,266.667,533.333,5.556,N
889,0.200,2.375,0.500,133.333,63.889,286.111,544.444,11.111,N
890,0.105,2.310,0.530,138.889,63.889,288.889,569.444,25.000,N
891,0.175,2.690,0.515,136.111,97.222,302.778,555.556,13.889,F
892,0.280,2.510,0.755,127.778,61.111,283.333,552.778,2.778,N
893,0.345,2.620,0.665,138.889,66.667,266.667,555.556,2.778,F
894,0.325,2.390,0.700,125.000,58.333,277.778,530.556,25.000,N
895,0.255,2.955,0.260,116.667,105.556,300.000,550.000,19.444,F
896,0.200,2.550,0.795,136.111,66.667,283.333,533.333,16.667,N
897,0.370,2.865,0.045,91.667,111.111,350.000,519.444,13.889,V
898,0.275,2.460,0.705,127.778,63.889,294.444,588.889,69.444,N
899,0.705,-0.210,2.805,191.667,2.778,52.778,461.111,127.778,V
900,0.095,2.375,0.650,130.556,63.889,291.667,663.889,202.778,N
901,0.325,2.670,0.060,197.222,108.333,108.333,505.556,158.333,V
902,0.030,2.085,0.490,127.778,63.889,280.556,600.000,94.444,N
903,0.005,2.475,-0.045,130.556,105.556,311.111,538.889,61.111,F
904,-0.175,2.060,0.315,136.111,69.444,305.556,533.333,5.556,N
905,-0.125,2.165,0.265,133.333,63.889,288.889,558.333,25.000,F
906,-0.090,2.000,0.220,138.889,63.889,277.778,569.444,11.111,N
907,-0.180,2.020,-0.060,127.778,61.111,283.333,550.000,19.444,F
908,-0.290,1.895,0.185,133.333,61.111,280.556,536.111,13.889,N
909,-0.225,2.135,0.165,125.000,88.889,277.778,530.556,5.556,F
910,-0.155,1.780,0.190,130.556,61.111,280.556,541.667,11.111,N
911,-0.205,2.280,-0.170,130.556,105.556,327.778,547.222,5.556,F
912,-0.345,1.835,0.210,122.222,58.333,272.222,536.111,11.111,N
913,0.285,2.380,-0.365,58.333,116.667,330.556,541.667,5.556,V
914,-0.265,1.905,0.265,125.000,66.667,283.333,552.778,11.111,N
915,0.125,-0.805,2.335,197.222,2.778,58.333,483.333,69.444,V
916,-0.415,2.010,0.225,130.556,63.889,280.556,619.444,136.111,N
917,-0.175,2.550,-0.360,127.778,116.667,322.222,544.444,75.000,F
918,-0.290,2.125,0.175,130.556,63.889,280.556,544.444,0.000,N
919,-0.290,1.925,0.040,136.111,66.667,286.111,544.444,0.000,N
920,-0.240,2.050,0.220,138.889,66.667,288.889,555.556,11.111,N
921,-0.180,2.095,0.250,136.111,66.667,294.444,563.889,8.333,N
922,-0.080,2.140,0.305,125.000,63.889,286.111,541.667,22.222,N
923,-0.165,2.140,0.145,127.778,61.111,280.556,569.444,27.778,N
924,-0.150,2.205,0.350,125.000,63.889,286.111,527.778,41.667,N
925,-0.010,2.735,-0.115,122.222,116.667,313.889,533.333,5.556,V
926,-0.035,2.205,0.475,138.889,63.889,288.889,547.222,13.889,N
927,0.130,2.690,-0.125,197.222,105.556,105.556,505.556,41.667,V
928,-0.040,2.280,0.585,133.333,61.111,297.222,600.000,94.444,N
929,0.210,2.240,0.455,133.333,63.889,283.333,550.000,50.000,N
930,0.025,2.220,0.370,127.778,61.111,288.889,555.556,5.556,N
931,0.060,2.265,0.475,127.778,63.889,294.444,533.333,22.222,N
932,0.150,2.325,0.620,138.889,61.111,286.111,541.667,8.333,N
933,0.225,2.260,0.480,122.222,61.111,263.889,530.556,11.111,N
934,0.080,2.295,0.430,130.556,61.111,275.000,550.000,19.444,N
935,0.180,2.270,0.545,136.111,66.667,300.000,541.667,8.333,N
936,0.225,2.295,0.635,133.333,66.667,280.556,563.889,22.222,N
937,0.270,2.235,0.435,197.222,61.111,266.667,500.000,63.889,A
938,0.130,2.250,0.645,127.778,58.333,277.778,594.444,94.444,N
939,0.575,2.610,-0.205,197.222,105.556,336.111,466.667,127.778,V
940,-0.045,2.175,0.290,125.000,58.333,283.333,613.889,147.222,N
941,-0.010,2.020,0.325,130.556,61.111,288.889,547.222,66.667,N
942,-0.015,2.070,0.380,119.444,61.111,277.778,538.889,8.333,N
943,0.045,2.505,0.090,133.333,113.889,325.000,541.667,2.778,F
944,-0.005,2.035,0.395,127.778,61.111,283.333,558.333,16.667,N
945,-0.040,2.320,0.120,133.333,91.667,311.111,569.444,11.111,F
946,-0.195,2.075,0.460,127.778,63.889,266.667,541.667,27.778,N
947,-0.015,2.495,-0.335,130.556,116.667,327.778,536.111,5.556,V
948,-0.215,1.980,0.220,133.333,61.111,283.333,547.222,11.111,N
949,-0.210,2.005,0.140,130.556,69.444,291.667,536.111,11.111,F
950,-0.105,1.990,0.280,130.556,66.667,283.333,552.778,16.667,N
951,-0.090,2.100,0.025,138.889,63.889,277.778,577.778,25.000,F
952,-0.270,1.920,0.170,130.556,66.667,280.556,527.778,50.000,N
953,-0.200,2.220,0.105,130.556,88.889,277.778,550.000,22.222,F
954,-0.215,2.025,0.205,127.778,61.111,277.778,527.778,22.222,N
955,0.020,2.345,-0.480,58.333,116.667,327.778,544.444,16.667,V
956,-0.365,1.935,0.340,127.778,63.889,288.889,533.333,11.111,N
957,-0.030,2.490,-0.290,125.000,116.667,336.111,536.111,2.778,V
958,-0.170,2.025,0.295,138.889,63.889,283.333,558.333,22.222,N
959,-0.095,2.375,0.070,130.556,91.667,302.778,550.000,8.333,F
960,-0.215,2.025,0.315,136.111,66.667,286.111,550.000,0.000,N
961,-0.090,2.390,0.205,122.222,91.667,288.889,536.111,13.889,F
962,-0.055,2.035,0.310,127.778,63.889,291.667,541.667,5.556,N
963,-0.045,2.590,-0.270,122.222,116.667,333.333,555.556,13.889,F
964,-0.220,2.210,0.420,130.556,63.889,297.222,533.333,22.222,N
965,0.070,2.610,0.220,138.889,100.000,313.889,550.000,16.667,F
966,0.110,2.300,0.645,138.889,66.667,288.889,577.778,27.778,N
967,0.195,2.615,-0.145,130.556,116.667,336.111,550.000,27.778,F
968,0.055,2.260,0.460,133.333,61.111,269.444,575.000,25.000,N
969,0.160,2.415,0.300,133.333,88.889,297.222,525.000,50.000,F
970,0.080,2.175,0.655,136.111,58.333,263.889,541.667,16.667,N
971,0.195,2.375,0.265,136.111,88.889,297.222,547.222,5.556,F
972,0.040,2.120,0.355,125.000,61.111,277.778,550.000,2.778,N
973,0.110,2.290,0.280,136.111,91.667,302.778,538.889,11.111,F
974,0.050,2.170,0.685,127.778,63.889,286.111,533.333,5.556,N
975,0.280,2.555,-0.110,58.333,116.667,333.333,558.333,25.000,V
976,0.020,2.135,0.400,125.000,63.889,283.333,552.778,5.556,N
977,0.035,2.315,0.120,130.556,91.667,300.000,538.889,13.889,F
978,-0.080,2.095,0.585,125.000,61.111,277.778,527.778,11.111,N
979,0.125,2.470,-0.140,127.778,116.667,338.889,541.667,13.889,V
980,-0.080,1.895,0.340,136.111,66.667,288.889,563.889,22.222,N
981,-0.020,2.210,0.095,141.667,91.667,294.444,561.111,2.778,F
982,-0.120,1.955,0.340,127.778,61.111,283.333,530.556,30.556,N
983,0.110,2.395,0.090,133.333,100.000,294.444,547.222,16.667,F
984,-0.065,2.040,0.210,125.000,61.111,277.778,538.889,8.333,N
985,-0.160,2.130,0.040,130.556,91.667,294.444,547.222,8.333,F
986,-0.190,1.885,0.110,130.556,61.111,286.111,536.111,11.111,N
987,-0.300,2.185,-0.255,127.778,91.667,300.000,555.556,19.444,F
988,-0.465,1.760,0.045,130.556,63.889,297.222,538.889,16.667,N
989,-0.300,2.330,-0.440,58.333,116.667,338.889,552.778,13.889,V
990,-0.275,1.930,0.175,130.556,63.889,283.333,572.222,19.444,N
991,-0.345,2.480,-0.385,122.222,116.667,347.222,547.222,25.000,F
992,-0.400,1.920,0.190,136.111,66.667,286.111,547.222,0.000,N
993,-0.165,2.520,-0.055,127.778,102.778,305.556,544.444,2.778,F
994,-0.210,2.060,0.195,127.778,66.667,283.333,552.778,8.333,N
995,-0.170,2.065,0.150,130.556,63.889,288.889,555.556,2.778,N
996,-0.075,2.175,0.320,133.333,66.667,291.667,552.778,2.778,N
997,-0.035,2.175,0.395,130.556,66.667,277.778,544.444,8.333,N
998,-0.015,1.990,0.310,130.556,63.889,275.000,552.778,8.333,N
999,-0.010,2.175,0.250,127.778,61.111,300.000,541.667,11.111,N
1000,0.010,2.200,0.505,127.778,61.111,263.889,538.889,2.778,N
1001,0.135,2.630,0.150,133.333,108.333,322.222,536.111,2.778,F
1002,0.010,2.155,0.430,127.778,58.333,269.444,561.111,25.000,N
1003,0.160,2.805,0.075,130.556,116.667,336.111,533.333,27.778,F
1004,0.165,2.240,0.685,125.000,66.667,283.333,550.000,16.667,N
1005,0.580,-0.320,2.725,197.222,5.556,55.556,475.000,75.000,V
1006,-0.045,2.225,0.570,136.111,61.111,291.667,644.444,169.444,N
1007,0.165,2.555,0.415,133.333,94.444,280.556,550.000,94.444,F
1008,0.190,2.335,0.540,125.000,66.667,283.333,536.111,13.889,N
1009,0.135,2.230,0.435,141.667,66.667,300.000,550.000,13.889,N
1010,0.110,2.265,0.505,144.444,66.667,302.778,550.000,0.000,N
1011,0.300,2.340,0.615,130.556,66.667,283.333,566.667,16.667,N
1012,0.570,2.375,0.370,194.444,63.889,272.222,466.667,100.000,A
1013,-0.015,2.165,0.315,127.778,63.889,297.222,638.889,172.222,N
1014,0.060,2.140,0.540,127.778,58.333,272.222,533.333,105.556,N
1015,0.165,2.190,0.420,127.778,58.333,266.667,544.444,11.111,N
1016,0.030,2.015,0.210,125.000,63.889,291.667,550.000,5.556,N
1017,-0.055,2.400,0.185,122.222,94.444,305.556,541.667,8.333,F
1018,-0.105,2.125,0.540,127.778,77.778,300.000,530.556,11.111,N
1019,0.195,2.610,-0.300,197.222,111.111,352.778,513.889,16.667,V
1020,-0.205,1.950,0.200,130.556,63.889,294.444,608.333,94.444,N
1021,-0.190,2.040,0.125,125.000,61.111,283.333,538.889,69.444,N
1022,-0.120,1.940,0.370,125.000,63.889,286.111,533.333,5.556,N
1023,-0.105,2.170,0.135,130.556,58.333,266.667,550.000,16.667,N
1024,-0.275,1.880,0.090,130.556,63.889,283.333,544.444,5.556,N
1025,-0.275,1.935,0.070,127.778,66.667,291.667,541.667,2.778,N
1026,-0.285,1.965,0.295,138.889,66.667,288.889,561.111,19.444,N
1027,-0.140,2.055,0.150,125.000,75.000,280.556,547.222,13.889,N
1028,-0.245,1.905,0.100,130.556,61.111,283.333,558.333,11.111,N
1029,-0.215,2.050,0.180,125.000,61.111,277.778,533.333,25.000,N
1030,-0.180,2.095,0.325,127.778,66.667,275.000,538.889,5.556,N
1031,-0.090,2.065,0.170,133.333,63.889,294.444,558.333,19.444,N
1032,-0.170,1.955,0.235,133.333,63.889,288.889,561.111,2.778,N
1033,-0.135,2.070,0.290,136.111,69.444,286.111,538.889,22.222,N
1034,-0.005,2.065,0.390,122.222,58.333,280.556,552.778,13.889,N
1035,0.275,-0.540,2.610,197.222,5.556,61.111,475.000,77.778,V
1036,-0.185,2.185,0.445,127.778,61.111,286.111,633.333,158.333,N
1037,0.260,2.595,0.055,197.222,105.556,105.556,483.333,150.000,V
1038,0.025,2.045,0.460,133.333,61.111,288.889,608.333,125.000,N
1039,0.035,2.205,0.280,125.000,63.889,275.000,558.333,50.000,N
1040,0.005,2.165,0.385,133.333,63.889,294.444,552.778,5.556,N
1041,0.095,2.310,0.585,136.111,69.444,280.556,558.333,5.556,N
1042,0.225,2.235,0.535,127.778,61.111,277.778,536.111,22.222,N
1043,0.170,2.325,0.395,130.556,61.111,272.222,566.667,30.556,N
1044,0.125,2.095,0.525,127.778,61.111,272.222,525.000,41.667,N
1045,0.155,2.205,0.630,127.778,83.333,294.444,538.889,13.889,N
1046,0.570,-0.330,2.640,194.444,5.556,58.333,458.333,80.556,V
1047,0.035,2.140,0.415,130.556,61.111,275.000,638.889,180.556,N
1048,0.065,2.125,0.360,133.333,66.667,294.444,536.111,102.778,N
1049,0.020,2.165,0.630,133.333,63.889,280.556,552.778,16.667,N
1050,-0.010,2.245,-0.260,574525.000,574583.333,574808.333,566.667,13.889,V
1051,-0.110,2.135,0.350,130.556,61.111,288.889,552.778,13.889,N
1052,-0.050,2.210,0.090,141.667,94.444,297.222,541.667,11.111,F
1053,-0.020,1.960,0.360,127.778,61.111,283.333,536.111,5.556,N
1054,-0.055,2.185,-0.145,133.333,88.889,291.667,555.556,19.444,F
1055,-0.405,1.850,0.050,136.111,66.667,294.444,550.000,5.556,N
1056,-0.300,2.195,0.110,136.111,66.667,297.222,561.111,11.111,F
1057,-0.155,1.925,0.145,130.556,66.667,297.222,550.000,11.111,N
1058,-0.215,2.355,-0.130,133.333,94.444,305.556,566.667,16.667,F
1059,-0.335,1.885,0.095,122.222,58.333,283.333,519.444,47.222,N
1060,-0.280,2.425,-0.025,130.556,102.778,305.556,544.444,25.000,F
1061,-0.175,2.060,0.175,127.778,63.889,288.889,544.444,0.000,N
1062,-0.295,2.320,-0.155,125.000,94.444,294.444,550.000,5.556,F
1063,-0.340,2.025,0.135,133.333,66.667,305.556,538.889,11.111,N
1064,-0.135,2.495,-0.015,130.556,102.778,308.333,547.222,8.333,F
1065,-0.190,2.175,0.065,136.111,66.667,291.667,563.889,16.667,N
1066,-0.300,2.050,-0.005,133.333,63.889,288.889,541.667,22.222,F
1067,-0.325,2.170,0.155,138.889,69.444,291.667,538.889,2.778,N
1068,-0.135,2.110,0.155,122.222,61.111,280.556,536.111,2.778,F
1069,-0.130,2.270,0.130,133.333,77.778,308.333,547.222,11.111,N
1070,-0.145,2.260,0.135,144.444,66.667,302.778,552.778,5.556,N
1071,-0.160,2.245,0.265,127.778,63.889,286.111,561.111,8.333,N
1072,-0.030,2.420,0.215,130.556,88.889,288.889,552.778,8.333,F
1073,-0.050,2.375,0.240,130.556,75.000,280.556,563.889,11.111,N
1074,-0.050,2.775,0.045,125.000,100.000,319.444,530.556,33.333,F
1075,-0.050,2.310,0.365,127.778,61.111,280.556,544.444,13.889,N
1076,-0.005,2.870,0.105,133.333,91.667,333.333,544.444,0.000,F
1077,-0.045,2.340,0.280,125.000,77.778,294.444,552.778,8.333,N
1078,-0.110,2.620,-0.015,141.667,100.000,350.000,558.333,5.556,F
1079,-0.015,2.290,0.205,169.444,63.889,272.222,477.778,80.556,N
1080,-0.080,2.450,0.365,133.333,69.444,300.000,630.556,152.778,F
1081,0.030,2.340,0.285,136.111,66.667,280.556,547.222,83.333,N
1082,-0.060,2.220,0.195,127.778,63.889,275.000,558.333,11.111,N
1083,0.005,2.310,0.270,130.556,61.111,269.444,525.000,33.333,N
1084,-0.075,2.410,0.495,136.111,66.667,286.111,538.889,13.889,F
1085,0.115,2.250,0.345,127.778,61.111,294.444,561.111,22.222,N
1086,-0.015,2.600,0.000,136.111,100.000,311.111,569.444,8.333,F
1087,-0.105,2.150,0.270,130.556,66.667,294.444,530.556,38.889,N
1088,-0.090,2.650,0.215,133.333,105.556,302.778,544.444,13.889,F
1089,0.060,2.165,0.380,127.778,63.889,294.444,533.333,11.111,N
1090,-0.040,2.665,-0.110,122.222,113.889,325.000,561.111,27.778,F
1091,-0.215,2.055,0.175,133.333,63.889,288.889,541.667,19.444,N
1092,-0.180,2.400,0.165,130.556,66.667,288.889,536.111,5.556,F
1093,0.055,2.250,0.370,136.111,69.444,286.111,555.556,19.444,N
1094,-0.015,2.690,-0.160,133.333,116.667,333.333,569.444,13.889,F
1095,-0.230,2.175,0.180,130.556,69.444,272.222,563.889,5.556,N
1096,-0.150,2.360,0.140,133.333,88.889,291.667,536.111,27.778,F
1097,0.015,2.235,0.390,133.333,61.111,277.778,552.778,16.667,N
1098,-0.005,2.615,-0.015,130.556,102.778,305.556,552.778,0.000,F
1099,-0.165,2.035,0.160,130.556,61.111,286.111,547.222,5.556,N
1100,-0.160,2.385,0.090,136.111,88.889,308.333,550.000,2.778,F
1101,-0.140,2.240,0.505,133.333,63.889,277.778,555.556,5.556,N
1102,0.060,2.785,-0.065,136.111,116.667,347.222,555.556,0.000,F
1103,-0.010,2.310,0.280,130.556,61.111,280.556,563.889,8.333,N
1104,-0.085,2.130,0.120,133.333,63.889,288.889,538.889,25.000,N
1105,-0.110,2.220,0.350,130.556,61.111,286.111,525.000,13.889,N
1106,0.025,2.425,0.585,138.889,66.667,286.111,547.222,22.222,N
1107,0.205,2.315,0.475,122.222,61.111,283.333,541.667,5.556,N
1108,0.155,2.360,0.345,127.778,63.889,286.111,566.667,25.000,N
1109,0.120,2.360,0.480,138.889,66.667,288.889,550.000,16.667,N
1110,0.165,2.330,0.595,136.111,63.889,277.778,561.111,11.111,N
1111,0.215,2.305,0.495,113.889,58.333,283.333,536.111,25.000,F
1112,0.200,2.400,0.450,138.889,61.111,286.111,569.444,33.333,N
1113,0.185,2.330,0.665,130.556,58.333,263.889,525.000,44.444,N
1114,0.260,2.855,0.150,127.778,97.222,341.667,550.000,25.000,V
1115,0.195,2.425,0.550,130.556,66.667,308.333,572.222,22.222,N
1116,0.210,2.740,-0.035,125.000,116.667,341.667,558.333,13.889,V
1117,0.155,2.445,0.835,127.778,63.889,280.556,536.111,22.222,N
1118,0.445,2.800,-0.015,197.222,108.333,108.333,513.889,22.222,V
1119,0.090,2.205,0.580,130.556,63.889,300.000,597.222,83.333,N
1120,0.300,2.255,0.515,133.333,77.778,291.667,538.889,58.333,F
1121,0.210,2.310,0.430,133.333,66.667,277.778,566.667,27.778,N
1122,0.140,2.130,0.575,125.000,63.889,277.778,522.222,44.444,N
1123,0.230,2.150,0.445,136.111,66.667,286.111,561.111,38.889,N
1124,0.115,2.140,0.285,130.556,63.889,291.667,561.111,0.000,N
1125,-0.045,2.015,0.410,130.556,66.667,277.778,547.222,13.889,N
1126,0.090,2.200,0.430,125.000,66.667,277.778,533.333,13.889,N
1127,-0.010,2.080,0.190,127.778,61.111,286.111,552.778,19.444,N
1128,-0.100,1.980,0.210,133.333,61.111,280.556,527.778,25.000,N
1129,-0.095,2.055,0.425,147.222,66.667,277.778,547.222,19.444,N
1130,0.940,2.315,-0.410,58.333,102.778,350.000,561.111,13.889,V
1131,-0.220,2.170,0.350,130.556,61.111,294.444,558.333,2.778,N
1132,-0.065,2.190,0.220,136.111,63.889,294.444,538.889,19.444,N
1133,0.030,2.240,0.455,125.000,63.889,275.000,550.000,11.111,N
1134,0.070,2.210,0.160,133.333,61.111,286.111,550.000,0.000,N
1135,-0.125,2.150,0.220,138.889,61.111,291.667,530.556,19.444,N
1136,-0.160,2.095,0.370,127.778,63.889,280.556,550.000,19.444,N
1137,0.050,2.225,0.395,127.778,61.111,283.333,536.111,13.889,N
1138,0.025,2.080,0.105,130.556,63.889,283.333,577.778,41.667,N
1139,-0.130,2.075,0.215,136.111,63.889,297.222,541.667,36.111,N
1140,-0.110,2.670,0.015,133.333,113.889,325.000,558.333,16.667,F
1141,0.005,2.215,0.530,127.778,63.889,288.889,541.667,16.667,N
1142,0.135,2.695,-0.195,72.222,108.333,108.333,511.111,30.556,V
1143,-0.075,2.265,0.485,136.111,61.111,291.667,594.444,83.333,N
1144,0.270,2.595,0.570,197.222,102.778,102.778,488.889,105.556,V
1145,0.060,2.375,0.690,141.667,69.444,305.556,622.222,133.333,N
1146,0.690,-0.120,2.765,197.222,5.556,55.556,469.444,152.778,V
1147,0.010,2.210,0.495,133.333,61.111,286.111,661.111,191.667,N
1148,0.195,2.245,0.455,125.000,61.111,277.778,536.111,125.000,N
1149,0.165,2.250,0.625,133.333,66.667,283.333,533.333,2.778,N
1150,0.255,2.280,0.475,127.778,61.111,286.111,538.889,5.556,N
1151,0.110,2.155,0.345,130.556,61.111,266.667,572.222,33.333,N
1152,0.035,2.235,0.315,130.556,61.111,286.111,519.444,52.778,N
1153,0.005,2.210,0.485,130.556,61.111,277.778,552.778,33.333,N
1154,0.140,2.140,0.390,138.889,69.444,294.444,552.778,0.000,N
1155,0.070,2.135,0.235,130.556,61.111,272.222,575.000,22.222,N
1156,-0.025,2.440,0.125,125.000,88.889,302.778,527.778,47.222,F
1157,-0.080,2.095,0.485,127.778,63.889,275.000,538.889,11.111,N
1158,0.225,2.575,0.005,80.556,108.333,108.333,494.444,44.444,V
1159,0.065,2.255,0.405,130.556,66.667,302.778,611.111,116.667,N
1160,-0.010,2.385,-0.385,634947.222,635005.556,635236.111,575.000,36.111,V
1161,-0.160,2.160,0.425,130.556,63.889,297.222,552.778,22.222,N
1162,0.175,2.350,0.330,133.333,100.000,302.778,558.333,5.556,F
1163,0.330,2.225,0.235,163.889,91.667,286.111,430.556,127.778,A
1164,-0.135,2.010,0.130,136.111,63.889,302.778,655.556,225.000,N
1165,-0.055,1.965,0.285,133.333,61.111,283.333,538.889,116.667,N
1166,-0.040,2.090,0.185,133.333,61.111,266.667,563.889,25.000,N
1167,-0.160,2.010,0.060,127.778,63.889,291.667,544.444,19.444,N
1168,-0.250,1.925,0.205,130.556,58.333,283.333,555.556,11.111,N
1169,-0.115,1.980,0.235,136.111,66.667,283.333,555.556,0.000,N
1170,-0.115,1.970,0.110,125.000,61.111,275.000,563.889,8.333,N
1171,-0.180,2.095,0.135,133.333,66.667,280.556,536.111,27.778,N
1172,0.435,2.370,-0.395,58.333,116.667,322.222,541.667,5.556,V
1173,-0.135,2.095,0.375,122.222,61.111,286.111,544.444,2.778,N
1174,-0.055,2.625,-0.375,88.889,116.667,338.889,513.889,30.556,F
1175,-0.225,2.075,0.340,138.889,63.889,302.778,613.889,100.000,N
1176,-0.020,2.125,0.495,122.222,75.000,283.333,552.778,61.111,N
1177,0.495,2.400,0.140,180.556,66.667,283.333,419.444,133.333,A
1178,-0.180,2.215,0.235,136.111,58.333,300.000,652.778,233.333,N
1179,0.020,2.195,0.335,125.000,61.111,283.333,555.556,97.222,N
1180,0.135,2.315,0.505,130.556,66.667,288.889,536.111,19.444,N
1181,0.140,2.325,0.400,125.000,58.333,277.778,572.222,36.111,N
1182,0.105,2.275,0.435,136.111,63.889,291.667,544.444,27.778,N
1183,0.145,2.365,0.615,130.556,63.889,283.333,550.000,5.556,N
1184,0.190,2.360,0.490,127.778,63.889,291.667,563.889,13.889,N
1185,0.150,2.400,0.460,119.444,63.889,286.111,563.889,0.000,N
1186,0.435,2.385,0.535,183.333,63.889,263.889,463.889,100.000,A
1187,0.190,2.350,0.435,125.000,61.111,297.222,613.889,150.000,N
1188,0.120,2.285,0.330,133.333,63.889,286.111,555.556,58.333,N
1189,0.060,2.275,0.410,136.111,66.667,294.444,558.333,2.778,N
1190,0.095,2.250,0.565,138.889,66.667,277.778,563.889,5.556,N
1191,0.110,2.140,0.410,127.778,63.889,286.111,550.000,13.889,N
1192,0.025,2.280,0.230,138.889,61.111,288.889,558.333,8.333,N
1193,-0.075,2.260,0.275,127.778,63.889,294.444,527.778,30.556,N
1194,-0.050,2.220,0.545,125.000,58.333,275.000,550.000,22.222,N
1195,0.115,2.190,0.395,130.556,66.667,283.333,538.889,11.111,N
1196,0.010,2.115,0.150,127.778,58.333,275.000,563.889,25.000,N
1197,-0.120,2.045,0.215,136.111,66.667,305.556,538.889,25.000,N
1198,-0.130,2.130,0.460,133.333,66.667,286.111,550.000,11.111,N
1199,0.035,2.095,0.355,133.333,63.889,286.111,569.444,19.444,N
1200,-0.065,2.075,0.045,127.778,61.111,283.333,555.556,13.889,N
1201,-0.245,2.080,0.105,136.111,66.667,286.111,547.222,8.333,N
1202,-0.105,2.115,0.320,125.000,61.111,275.000,538.889,8.333,N
1203,-0.090,2.120,0.150,133.333,63.889,283.333,561.111,22.222,N
1204,-0.350,1.865,-0.100,133.333,63.889,294.444,558.333,2.778,N
1205,-0.380,1.995,0.015,150.000,72.222,308.333,558.333,0.000,N
1206,-0.290,2.125,0.095,138.889,63.889,291.667,550.000,8.333,N
1207,-0.175,2.130,0.235,133.333,61.111,286.111,555.556,5.556,N
1208,0.015,2.240,0.410,119.444,91.667,316.667,541.667,13.889,N
1209,0.040,2.315,0.245,127.778,55.556,275.000,566.667,25.000,N
1210,-0.080,2.275,0.265,130.556,66.667,302.778,550.000,16.667,N
1211,-0.050,2.435,0.390,122.222,58.333,280.556,550.000,0.000,N
1212,0.105,2.260,0.395,130.556,66.667,294.444,544.444,5.556,N
1213,0.095,2.300,0.305,133.333,61.111,300.000,577.778,33.333,N
1214,0.025,2.220,0.310,141.667,66.667,302.778,561.111,16.667,N
1215,0.040,2.375,0.495,133.333,63.889,269.444,544.444,16.667,N
1216,0.160,2.305,0.445,127.778,63.889,277.778,547.222,2.778,N
1217,0.105,2.235,0.325,125.000,61.111,280.556,547.222,0.000,N
1218,0.105,2.460,0.380,136.111,63.889,297.222,544.444,2.778,N
1219,0.080,2.375,0.480,127.778,69.444,313.889,552.778,8.333,N
1220,0.250,2.270,0.495,130.556,69.444,280.556,569.444,16.667,N
1221,0.125,2.390,0.370,125.000,61.111,291.667,552.778,16.667,N
1222,0.170,2.395,0.480,127.778,63.889,277.778,547.222,5.556,N
1223,0.195,2.465,0.480,125.000,58.333,277.778,530.556,16.667,N
1224,0.305,2.370,0.535,133.333,88.889,294.444,547.222,16.667,N
1225,0.170,2.360,0.405,136.111,63.889,291.667,563.889,16.667,N
1226,0.115,2.190,0.405,122.222,58.333,280.556,547.222,16.667,N
1227,0.145,2.310,0.465,133.333,63.889,291.667,550.000,2.778,N
1228,0.240,2.335,0.550,127.778,63.889,286.111,558.333,8.333,N
1229,0.175,2.420,0.415,133.333,83.333,305.556,575.000,16.667,N
1230,0.115,2.260,0.300,133.333,61.111,283.333,544.444,30.556,N
1231,0.040,2.240,0.365,127.778,61.111,286.111,547.222,2.778,N
1232,0.245,2.405,0.495,125.000,77.778,297.222,538.889,8.333,N
1233,0.110,2.320,0.315,125.000,61.111,283.333,563.889,25.000,N
1234,0.020,2.235,0.280,133.333,61.111,291.667,558.333,5.556,N
1235,0.005,2.160,0.530,133.333,66.667,280.556,561.111,2.778,N
1236,0.130,2.375,0.370,127.778,63.889,280.556,544.444,16.667,N
1237,0.015,2.340,0.285,125.000,66.667,275.000,563.889,19.444,N
1238,-0.050,2.165,0.400,130.556,63.889,280.556,527.778,36.111,N
1239,0.070,2.240,0.375,125.000,66.667,288.889,541.667,13.889,N
1240,0.005,2.135,0.180,130.556,63.889,288.889,563.889,22.222,N
1241,-0.100,2.070,0.190,127.778,61.111,283.333,541.667,22.222,N
1242,-0.135,2.140,0.405,138.889,63.889,280.556,555.556,13.889,N
1243,-0.010,2.190,0.290,127.778,69.444,302.778,555.556,0.000,N
1244,-0.050,2.125,0.165,141.667,63.889,277.778,572.222,16.667,N
1245,-0.135,2.155,0.235,130.556,61.111,288.889,536.111,36.111,N
1246,-0.085,2.300,0.420,125.000,72.222,288.889,547.222,11.111,N
1247,0.030,2.220,0.275,133.333,61.111,272.222,547.222,0.000,N
1248,-0.070,2.205,0.220,130.556,61.111,277.778,550.000,2.778,N
1249,-0.065,2.145,0.395,133.333,63.889,286.111,558.333,8.333,N
1250,0.035,2.175,0.345,136.111,66.667,277.778,572.222,13.889,N
1251,-0.005,2.190,0.325,130.556,63.889,288.889,555.556,16.667,N
1252,0.055,2.295,0.440,127.778,61.111,255.556,550.000,5.556,N
1253,0.020,2.335,0.365,130.556,69.444,283.333,533.333,16.667,N
1254,0.005,2.250,0.345,130.556,61.111,283.333,555.556,22.222,N
1255,0.090,2.265,0.465,136.111,63.889,277.778,555.556,0.000,N
1256,0.165,2.260,0.430,127.778,91.667,302.778,536.111,19.444,N
1257,0.065,2.250,0.330,133.333,63.889,277.778,569.444,33.333,N
1258,0.080,2.210,0.445,141.667,66.667,286.111,547.222,22.222,N
1259,0.165,2.335,0.660,136.111,63.889,266.667,561.111,13.889,N
1260,0.210,2.200,0.470,125.000,61.111,283.333,536.111,25.000,N
1261,0.110,2.165,0.350,133.333,58.333,280.556,558.333,22.222,N
1262,0.125,2.230,0.385,130.556,58.333,277.778,530.556,27.778,N
1263,0.115,2.120,0.445,125.000,63.889,286.111,547.222,16.667,N
1264,-0.010,2.170,0.225,130.556,66.667,288.889,577.778,30.556,N
1265,-0.045,2.105,0.245,125.000,58.333,283.333,558.333,19.444,N
1266,-0.040,2.120,0.405,130.556,63.889,272.222,547.222,11.111,N
1267,-0.005,2.090,0.245,133.333,63.889,269.444,555.556,8.333,N
1268,-0.070,2.100,0.145,130.556,66.667,300.000,544.444,11.111,N
1269,-0.115,2.055,0.175,130.556,61.111,294.444,536.111,8.333,N
1270,-0.140,2.070,0.295,133.333,66.667,283.333,555.556,19.444,N
1271,0.050,1.980,0.305,127.778,83.333,308.333,544.444,11.111,N
1272,-0.075,2.015,0.195,133.333,63.889,286.111,583.333,38.889,N
1273,-0.100,1.995,0.140,136.111,63.889,294.444,550.000,33.333,N
1274,-0.180,2.005,0.300,122.222,63.889,272.222,552.778,2.778,N
1275,-0.110,1.955,0.160,133.333,63.889,291.667,550.000,2.778,N
1276,-0.195,2.010,0.075,127.778,61.111,277.778,563.889,13.889,N
1277,-0.205,1.990,0.135,130.556,63.889,277.778,533.333,30.556,N
1278,-0.180,2.130,0.205,136.111,63.889,286.111,550.000,16.667,N
1279,-0.200,2.015,0.110,136.111,66.667,288.889,577.778,27.778,N
1280,-0.220,2.010,0.120,127.778,61.111,280.556,561.111,16.667,N
1281,-0.150,2.105,0.310,133.333,63.889,266.667,544.444,16.667,N
1282,-0.065,2.100,0.235,125.000,61.111,266.667,533.333,11.111,N
1283,-0.130,2.040,0.190,130.556,61.111,283.333,552.778,19.444,N
1284,-0.080,2.095,0.300,127.778,63.889,286.111,536.111,16.667,N
1285,-0.020,2.215,0.320,127.778,63.889,269.444,555.556,19.444,N
1286,-0.030,2.210,0.205,125.000,61.111,288.889,544.444,11.111,N
1287,-0.030,2.310,0.355,133.333,61.111,280.556,552.778,8.333,N
1288,-0.015,2.250,0.400,138.889,66.667,288.889,550.000,2.778,N
1289,-0.080,2.255,0.235,125.000,58.333,280.556,555.556,5.556,N
1290,-0.145,2.185,0.195,136.111,63.889,277.778,550.000,5.556,N
1291,-0.130,2.045,0.275,125.000,61.111,266.667,538.889,11.111,N
1292,-0.125,2.115,0.165,133.333,63.889,286.111,544.444,5.556,N
1293,-0.250,2.270,0.015,133.333,63.889,283.333,575.000,30.556,N
1294,-0.220,2.115,0.175,138.889,66.667,286.111,569.444,5.556,N
1295,-0.175,2.140,0.260,133.333,63.889,269.444,550.000,19.444,N
1296,-0.210,2.175,0.040,130.556,63.889,275.000,558.333,8.333,N
1297,-0.270,2.185,0.135,130.556,61.111,275.000,541.667,16.667,N
1298,-0.175,2.140,0.310,125.000,61.111,280.556,547.222,5.556,N
1299,-0.110,2.290,0.190,125.000,61.111,294.444,538.889,8.333,N
1300,-0.140,2.230,0.250,116.667,58.333,283.333,558.333,19.444,N
1301,-0.065,2.365,0.460,138.889,63.889,283.333,541.667,16.667,N
1302,0.095,2.400,0.375,133.333,66.667,286.111,555.556,13.889,N
1303,0.015,2.435,0.405,133.333,66.667,288.889,572.222,16.667,N
1304,0.120,2.600,0.515,127.778,58.333,280.556,536.111,36.111,N
1305,0.115,2.425,0.590,133.333,88.889,302.778,547.222,11.111,N
1306,0.145,2.445,0.405,127.778,61.111,275.000,547.222,0.000,N
1307,0.090,2.465,0.395,138.889,63.889,277.778,547.222,0.000,N
1308,0.065,2.325,0.610,136.111,63.889,280.556,547.222,0.000,N
1309,0.150,2.305,0.435,133.333,66.667,286.111,566.667,19.444,N
1310,0.055,2.290,0.360,125.000,61.111,286.111,563.889,2.778,N
1311,-0.005,2.405,0.475,133.333,63.889,280.556,550.000,13.889,N
1312,0.025,2.185,0.345,119.444,88.889,308.333,533.333,16.667,N
1313,-0.070,2.345,0.300,127.778,61.111,288.889,561.111,27.778,N
1314,-0.055,2.250,0.350,136.111,66.667,288.889,544.444,16.667,N
1315,-0.025,2.340,0.455,119.444,88.889,319.444,552.778,8.333,N
1316,0.050,2.330,0.440,138.889,66.667,302.778,561.111,8.333,N
1317,0.095,2.090,0.375,127.778,66.667,300.000,552.778,8.333,N
1318,0.010,2.180,0.275,127.778,63.889,291.667,580.556,27.778,N
1319,-0.025,2.215,0.465,138.889,61.111,277.778,552.778,27.778,N
1320,0.030,2.170,0.415,130.556,72.222,272.222,552.778,0.000,N
1321,0.015,2.175,0.415,122.222,63.889,286.111,544.444,8.333,N
1322,0.115,2.235,0.590,130.556,63.889,275.000,544.444,0.000,N
1323,0.135,2.115,0.480,127.778,63.889,291.667,558.333,13.889,N
1324,0.125,2.375,0.490,125.000,63.889,286.111,577.778,19.444,N
1325,0.200,2.335,0.630,130.556,80.556,283.333,533.333,44.444,N
1326,0.180,2.380,0.445,133.333,63.889,280.556,550.000,16.667,N
1327,0.060,2.245,0.400,130.556,63.889,283.333,544.444,5.556,N
1328,0.140,2.370,0.505,127.778,63.889,277.778,536.111,8.333,N
1329,0.095,2.230,0.580,130.556,63.889,269.444,555.556,19.444,N
1330,0.105,2.300,0.390,127.778,61.111,272.222,544.444,11.111,N
1331,-0.060,2.185,0.475,155.556,66.667,280.556,527.778,16.667,N
1332,0.115,2.295,0.550,130.556,66.667,291.667,583.333,55.556,N
1333,0.070,2.160,0.355,138.889,63.889,275.000,580.556,2.778,N
1334,0.025,2.205,0.450,127.778,63.889,291.667,550.000,30.556,N
1335,0.175,2.315,0.485,127.778,61.111,277.778,547.222,2.778,N
1336,0.070,2.255,0.325,127.778,61.111,291.667,552.778,5.556,N
1337,0.075,2.195,0.435,136.111,61.111,275.000,552.778,0.000,N
1338,0.135,2.120,0.450,133.333,63.889,288.889,561.111,8.333,N
1339,0.030,2.220,0.295,127.778,63.889,277.778,575.000,13.889,N
1340,-0.035,2.135,0.310,138.889,69.444,286.111,544.444,30.556,N
1341,-0.080,2.180,0.405,127.778,61.111,280.556,552.778,8.333,N
1342,-0.055,2.120,0.255,130.556,63.889,277.778,541.667,11.111,N
1343,-0.240,1.995,0.185,141.667,61.111,294.444,541.667,0.000,N
1344,-0.150,2.155,0.380,130.556,63.889,269.444,563.889,22.222,N
1345,-0.040,2.150,0.295,138.889,77.778,297.222,541.667,22.222,N
1346,-0.080,2.105,0.310,138.889,63.889,288.889,572.222,30.556,N
1347,-0.050,2.220,0.435,130.556,63.889,280.556,538.889,33.333,N
1348,-0.025,2.230,0.305,127.778,58.333,275.000,566.667,27.778,N
1349,-0.040,2.355,0.355,125.000,63.889,283.333,538.889,27.778,N
1350,-0.025,2.470,0.415,125.000,66.667,288.889,544.444,5.556,N
1351,0.040,2.405,0.480,127.778,61.111,277.778,538.889,5.556,N
1352,0.130,2.285,0.490,122.222,63.889,288.889,550.000,11.111,N
1353,0.085,2.310,0.335,130.556,63.889,300.000,586.111,36.111,N
1354,0.060,2.360,0.470,130.556,61.111,277.778,555.556,30.556,N
1355,0.125,2.335,0.570,136.111,66.667,286.111,547.222,8.333,N
1356,0.155,2.295,0.425,122.222,61.111,275.000,555.556,8.333,N
1357,0.105,2.250,0.395,133.333,66.667,288.889,566.667,11.111,N
1358,0.130,2.215,0.550,138.889,66.667,283.333,550.000,16.667,N
1359,0.075,2.325,0.325,127.778,61.111,258.333,558.333,8.333,N
1360,-0.045,2.105,0.325,127.778,63.889,286.111,550.000,8.333,N
1361,0.025,2.145,0.410,127.778,61.111,269.444,552.778,2.778,N
1362,0.045,2.135,0.360,136.111,66.667,300.000,561.111,8.333,N
1363,-0.100,2.100,0.185,130.556,61.111,266.667,566.667,5.556,N
1364,-0.095,2.045,0.285,133.333,63.889,288.889,541.667,25.000,N
1365,-0.070,2.085,0.295,127.778,61.111,277.778,541.667,0.000,N
1366,-0.165,2.090,0.135,127.778,61.111,286.111,544.444,2.778,N
1367,-0.170,1.995,0.240,138.889,63.889,286.111,558.333,13.889,N
1368,-0.160,2.045,0.355,141.667,61.111,275.000,561.111,2.778,N
1369,-0.125,2.060,0.190,130.556,61.111,275.000,555.556,5.556,N
1370,-0.150,2.005,0.170,133.333,63.889,280.556,563.889,8.333,N
1371,-0.155,2.005,0.295,122.222,61.111,275.000,533.333,30.556,N
1372,-0.125,2.045,0.160,130.556,61.111,272.222,550.000,16.667,N
1373,-0.200,1.995,0.075,127.778,63.889,277.778,547.222,2.778,N
1374,-0.220,2.135,0.190,127.778,63.889,286.111,547.222,0.000,N
1375,-0.140,2.070,0.230,133.333,66.667,288.889,544.444,2.778,N
1376,-0.180,2.030,0.110,122.222,63.889,288.889,569.444,25.000,N
1377,-0.260,1.945,0.085,127.778,66.667,288.889,569.444,0.000,N
1378,-0.265,2.115,0.250,127.778,75.000,286.111,544.444,25.000,N
1379,-0.210,2.065,0.135,130.556,63.889,286.111,555.556,11.111,N
1380,-0.270,2.140,0.065,125.000,61.111,286.111,550.000,5.556,N
1381,-0.275,2.580,-0.005,127.778,91.667,316.667,538.889,11.111,N
1382,-0.230,2.145,0.235,133.333,63.889,283.333,569.444,30.556,N
1383,-0.225,2.155,0.175,133.333,63.889,283.333,575.000,5.556,N
1384,-0.170,2.090,0.280,133.333,61.111,269.444,550.000,25.000,N
1385,-0.155,2.170,0.220,127.778,61.111,280.556,561.111,11.111,N
1386,-0.165,2.125,0.215,122.222,61.111,291.667,538.889,22.222,N
1387,-0.130,2.325,0.305,122.222,61.111,277.778,550.000,11.111,N
1388,-0.050,2.375,0.405,127.778,63.889,283.333,538.889,11.111,N
1389,-0.055,2.265,0.335,119.444,55.556,280.556,558.333,19.444,N
1390,-0.025,2.200,0.345,127.778,66.667,302.778,550.000,8.333,N
1391,-0.010,2.285,0.460,130.556,63.889,291.667,544.444,5.556,N
1392,0.060,2.215,0.450,138.889,63.889,277.778,566.667,22.222,N
1393,0.070,2.740,0.190,127.778,105.556,322.222,552.778,13.889,F
1394,0.040,2.440,0.565,136.111,63.889,275.000,552.778,0.000,N
1395,0.195,2.725,0.445,127.778,97.222,291.667,536.111,16.667,F
1396,0.205,2.305,0.560,130.556,63.889,283.333,547.222,11.111,N
1397,0.175,2.840,0.075,133.333,116.667,344.444,575.000,27.778,V
1398,0.185,2.460,0.820,136.111,61.111,275.000,569.444,5.556,N
1399,0.260,2.795,0.025,122.222,116.667,344.444,541.667,27.778,V
1400,0.090,2.335,0.615,127.778,63.889,288.889,572.222,30.556,N
1401,0.215,2.690,0.505,130.556,97.222,308.333,538.889,33.333,F
1402,0.225,2.390,0.605,130.556,63.889,277.778,552.778,13.889,N
1403,0.160,2.520,0.280,141.667,91.667,305.556,569.444,16.667,F
1404,0.090,2.275,0.680,127.778,66.667,280.556,536.111,33.333,N
1405,0.215,2.390,0.340,138.889,91.667,291.667,561.111,25.000,F
1406,0.075,2.245,0.425,130.556,63.889,288.889,569.444,8.333,N
1407,0.105,2.430,0.355,133.333,91.667,286.111,563.889,5.556,F
1408,0.115,2.020,0.455,130.556,61.111,280.556,536.111,27.778,N
1409,0.575,2.405,-0.400,58.333,116.667,322.222,563.889,27.778,V
1410,-0.155,2.050,0.435,130.556,61.111,277.778,533.333,30.556,N
1411,0.020,2.580,-0.165,119.444,116.667,330.556,547.222,13.889,V
1412,-0.100,2.040,0.305,122.222,61.111,283.333,563.889,16.667,N
1413,-0.125,2.570,-0.185,130.556,116.667,313.889,563.889,0.000,V
1414,-0.200,2.195,0.430,127.778,66.667,283.333,544.444,19.444,N
1415,0.355,-0.630,2.525,197.222,0.000,50.000,477.778,66.667,V
1416,-0.215,2.040,0.280,136.111,63.889,294.444,630.556,152.778,N
1417,-0.170,2.615,-0.315,122.222,116.667,319.444,538.889,91.667,F
1418,-0.150,2.090,0.480,133.333,63.889,272.222,558.333,19.444,N
1419,-0.060,2.645,-0.310,127.778,116.667,338.889,552.778,5.556,F
1420,-0.295,2.140,0.350,138.889,63.889,280.556,561.111,8.333,N
1421,-0.095,2.670,0.015,130.556,113.889,327.778,550.000,11.111,F
1422,0.000,2.180,0.450,133.333,80.556,300.000,572.222,22.222,N
1423,0.035,2.665,0.060,130.556,102.778,322.222,569.444,2.778,F
1424,-0.100,2.230,0.395,130.556,63.889,275.000,547.222,22.222,N
1425,-0.005,2.710,0.175,125.000,108.333,311.111,533.333,13.889,F
1426,0.060,2.230,0.495,127.778,61.111,288.889,552.778,19.444,N
1427,0.055,2.830,-0.050,127.778,116.667,350.000,580.556,27.778,F
1428,-0.015,2.395,0.565,133.333,63.889,283.333,563.889,16.667,N
1429,0.125,2.865,0.160,127.778,116.667,341.667,533.333,30.556,F
1430,0.205,2.350,0.610,127.778,91.667,297.222,552.778,19.444,N
1431,0.570,-0.370,2.760,197.222,5.556,61.111,455.556,97.222,V
1432,0.090,2.375,0.660,127.778,63.889,294.444,638.889,183.333,N
1433,0.915,2.700,0.030,58.333,116.667,319.444,550.000,88.889,V
1434,0.225,2.325,0.725,133.333,61.111,286.111,533.333,16.667,N
1435,0.260,2.845,0.055,130.556,116.667,333.333,575.000,41.667,V
1436,0.200,2.525,0.675,136.111,66.667,288.889,547.222,27.778,N
1437,0.240,2.610,0.535,130.556,91.667,288.889,558.333,11.111,F
1438,0.310,2.215,0.585,122.222,66.667,302.778,533.333,25.000,N
1439,0.185,2.195,0.415,122.222,61.111,280.556,563.889,30.556,N
1440,0.145,2.240,0.425,125.000,63.889,288.889,536.111,27.778,N
1441,0.115,2.255,0.430,130.556,61.111,288.889,550.000,13.889,N
1442,0.205,2.180,0.515,138.889,66.667,288.889,566.667,16.667,N
1443,0.070,2.095,0.235,127.778,61.111,288.889,566.667,0.000,N
1444,-0.025,2.055,0.245,138.889,66.667,288.889,561.111,5.556,N
1445,-0.075,2.560,0.100,136.111,102.778,302.778,547.222,13.889,F
1446,-0.060,2.140,0.575,130.556,63.889,272.222,536.111,11.111,N
1447,0.880,2.340,-0.340,58.333,116.667,330.556,555.556,19.444,V
1448,-0.065,2.105,0.375,133.333,61.111,275.000,572.222,16.667,N
1449,0.510,2.430,-0.375,58.333,116.667,352.778,538.889,33.333,V
1450,-0.140,2.125,0.580,127.778,61.111,266.667,555.556,16.667,N
1451,0.500,-0.455,2.545,197.222,5.556,58.333,463.889,91.667,V
1452,-0.160,2.120,0.290,127.778,61.111,277.778,663.889,200.000,N
1453,0.005,2.550,-0.365,58.333,116.667,338.889,536.111,127.778,V
1454,-0.200,2.250,0.505,122.222,88.889,294.444,547.222,11.111,N
1455,-0.050,2.670,-0.285,122.222,116.667,330.556,544.444,2.778,V
1456,-0.165,2.095,0.255,130.556,61.111,288.889,558.333,13.889,N
1457,-0.100,2.115,0.185,136.111,63.889,294.444,561.111,2.778,N
1458,-0.085,2.235,0.430,130.556,61.111,286.111,541.667,19.444,N
1459,-0.025,2.205,0.280,133.333,61.111,286.111,561.111,19.444,N
1460,-0.030,2.245,0.310,119.444,63.889,280.556,541.667,19.444,N
1461,-0.015,2.165,0.430,130.556,63.889,283.333,541.667,0.000,N
1462,0.105,2.260,0.435,127.778,61.111,288.889,538.889,2.778,N
1463,0.045,2.255,0.310,125.000,66.667,286.111,561.111,22.222,N
1464,0.095,2.415,0.545,130.556,63.889,283.333,527.778,33.333,N
1465,0.170,2.925,0.185,133.333,116.667,333.333,555.556,27.778,F
1466,0.240,2.340,0.695,138.889,66.667,300.000,569.444,13.889,N
1467,0.310,2.855,0.120,197.222,105.556,105.556,513.889,55.556,V
1468,0.170,2.440,0.695,130.556,63.889,291.667,600.000,86.111,N
1469,0.345,2.500,0.525,133.333,63.889,269.444,544.444,55.556,N
1470,0.205,2.345,0.510,130.556,63.889,288.889,550.000,5.556,N
1471,0.265,2.415,0.605,133.333,66.667,294.444,547.222,2.778,N
1472,0.255,2.425,0.785,136.111,63.889,272.222,561.111,13.889,N
1473,0.350,2.335,0.535,133.333,63.889,280.556,552.778,8.333,N
1474,0.165,2.340,0.530,136.111,63.889,277.778,572.222,19.444,N
1475,0.250,2.785,0.475,125.000,100.000,300.000,530.556,41.667,F
1476,0.340,2.380,0.670,127.778,61.111,266.667,536.111,5.556,N
1477,0.655,-0.335,2.755,197.222,5.556,61.111,450.000,86.111,V
1478,0.060,2.410,0.585,127.778,58.333,275.000,638.889,188.889,N
1479,0.170,2.390,0.670,133.333,63.889,286.111,541.667,97.222,N
1480,0.275,2.320,0.465,127.778,69.444,302.778,552.778,11.111,N
1481,0.085,2.765,-0.070,133.333,116.667,347.222,575.000,22.222,V
1482,-0.040,2.375,0.515,133.333,61.111,291.667,536.111,38.889,N
1483,0.150,2.780,0.065,130.556,116.667,319.444,544.444,8.333,V
1484,0.145,2.300,0.450,127.778,61.111,275.000,550.000,5.556,N
1485,0.035,2.470,0.195,125.000,94.444,302.778,547.222,2.778,F
1486,0.010,2.315,0.410,130.556,66.667,302.778,547.222,0.000,N
1487,0.145,2.395,0.270,130.556,94.444,300.000,569.444,22.222,F
1488,-0.015,2.255,0.250,127.778,63.889,280.556,561.111,8.333,N
1489,-0.090,2.220,0.170,138.889,63.889,286.111,561.111,0.000,F
1490,-0.090,2.195,0.465,130.556,55.556,272.222,522.222,38.889,N
1491,0.015,2.535,0.015,125.000,102.778,291.667,550.000,27.778,F
1492,-0.140,2.125,0.110,130.556,63.889,286.111,550.000,0.000,N
1493,-0.235,2.625,-0.220,130.556,113.889,316.667,544.444,5.556,F
1494,-0.285,2.115,0.275,133.333,66.667,305.556,538.889,5.556,N
1495,-0.010,2.270,-0.340,819947.222,820005.556,820236.111,552.778,13.889,V
1496,-0.045,2.200,0.535,136.111,66.667,288.889,566.667,13.889,N
1497,0.185,2.670,0.280,197.222,108.333,108.333,500.000,66.667,V
1498,-0.065,2.310,0.460,127.778,63.889,280.556,619.444,119.444,N
1499,0.085,2.730,-0.115,125.000,116.667,330.556,527.778,91.667,F
1500,0.065,2.360,0.540,133.333,61.111,288.889,550.000,22.222,N
1501,0.060,2.610,0.190,127.778,88.889,308.333,580.556,30.556,F
1502,0.020,2.400,0.455,133.333,63.889,277.778,552.778,27.778,N
1503,0.075,2.350,0.470,133.333,63.889,283.333,538.889,13.889,N
1504,0.140,2.360,0.665,125.000,58.333,263.889,550.000,11.111,N
1505,0.170,2.300,0.445,133.333,63.889,294.444,547.222,2.778,N
1506,0.140,2.470,0.485,130.556,61.111,272.222,561.111,13.889,N
1507,0.185,2.750,0.370,136.111,94.444,308.333,541.667,19.444,F
1508,0.170,2.480,0.830,130.556,63.889,275.000,544.444,2.778,N
1509,0.380,2.920,0.175,136.111,116.667,333.333,563.889,19.444,V
1510,0.215,2.440,0.620,127.778,66.667,297.222,575.000,11.111,N
1511,-0.010,2.455,-0.085,828830.556,828888.889,829105.556,563.889,11.111,V
1512,0.170,2.420,0.680,130.556,61.111,288.889,544.444,19.444,N
1513,0.235,2.850,0.305,127.778,116.667,327.778,552.778,8.333,F
1514,0.275,2.360,0.570,125.000,61.111,286.111,547.222,5.556,N
1515,0.145,2.535,0.170,130.556,94.444,297.222,569.444,22.222,F
1516,0.025,2.335,0.400,130.556,63.889,300.000,552.778,16.667,N
1517,0.035,2.315,0.380,133.333,63.889,305.556,566.667,13.889,F
1518,0.260,2.295,0.455,133.333,66.667,280.556,544.444,22.222,N
1519,0.050,2.410,0.045,133.333,86.111,286.111,569.444,25.000,F
1520,-0.145,2.150,0.240,133.333,66.667,277.778,527.778,41.667,N
1521,-0.065,2.620,0.060,119.444,116.667,333.333,530.556,2.778,F
1522,0.045,2.255,0.445,136.111,63.889,275.000,575.000,44.444,N
1523,0.185,2.495,-0.470,58.333,116.667,336.111,550.000,25.000,V
1524,-0.290,2.085,0.255,136.111,63.889,291.667,552.778,2.778,N
1525,-0.075,2.700,-0.140,125.000,116.667,330.556,555.556,2.778,F
1526,-0.085,2.240,0.255,127.778,55.556,277.778,580.556,25.000,N
1527,-0.230,2.155,-0.060,130.556,63.889,291.667,563.889,16.667,F
1528,-0.310,2.145,0.045,125.000,61.111,286.111,533.333,30.556,N
1529,-0.265,2.295,0.180,127.778,63.889,288.889,536.111,2.778,N
1530,-0.215,2.155,0.095,133.333,63.889,288.889,572.222,36.111,N
1531,-0.265,2.200,-0.020,138.889,66.667,305.556,586.111,13.889,N
1532,-0.330,2.185,0.070,122.222,61.111,280.556,555.556,30.556,N
1533,-0.295,2.230,0.230,136.111,66.667,286.111,544.444,11.111,N
1534,-0.215,2.280,0.115,122.222,58.333,280.556,550.000,5.556,N
1535,-0.240,2.390,0.045,133.333,61.111,272.222,558.333,8.333,N
1536,-0.210,2.270,0.140,127.778,63.889,291.667,538.889,19.444,N
1537,-0.215,2.705,0.010,127.778,100.000,286.111,555.556,16.667,F
1538,-0.205,2.180,0.185,141.667,61.111,300.000,550.000,5.556,N
1539,-0.200,2.240,0.080,125.000,66.667,283.333,575.000,25.000,N
1540,-0.160,2.375,0.220,130.556,63.889,294.444,555.556,19.444,N
1541,-0.115,2.930,-0.090,119.444,97.222,311.111,541.667,13.889,F
1542,-0.045,2.465,0.415,130.556,61.111,283.333,561.111,19.444,N
1543,0.005,2.540,0.305,127.778,61.111,286.111,555.556,5.556,N
1544,0.050,2.415,0.435,136.111,63.889,288.889,544.444,11.111,N
1545,0.075,2.495,0.680,133.333,66.667,286.111,555.556,11.111,N
1546,0.195,2.430,0.675,138.889,66.667,277.778,583.333,27.778,N
1547,0.675,2.735,0.350,175.000,91.667,288.889,419.444,163.889,A
1548,0.145,2.615,0.630,141.667,61.111,294.444,672.222,252.778,N
1549,0.830,2.625,0.095,58.333,102.778,330.556,533.333,138.889,V
1550,0.265,2.585,0.670,127.778,58.333,291.667,569.444,36.111,N
1551,0.230,2.395,0.430,133.333,66.667,302.778,563.889,5.556,N
1552,0.115,2.440,0.455,130.556,61.111,280.556,544.444,19.444,N
1553,0.065,2.280,0.640,138.889,66.667,291.667,561.111,16.667,N
1554,0.205,2.360,0.395,130.556,69.444,291.667,558.333,2.778,N
1555,-0.005,2.190,0.205,141.667,66.667,283.333,583.333,25.000,N
1556,-0.100,2.155,0.185,130.556,58.333,291.667,544.444,38.889,N
1557,-0.150,2.200,0.560,136.111,63.889,263.889,550.000,5.556,N
1558,0.065,2.190,0.315,125.000,61.111,272.222,550.000,0.000,N
1559,-0.070,2.155,0.085,138.889,63.889,291.667,558.333,8.333,F
1560,-0.240,2.120,0.180,136.111,63.889,300.000,555.556,2.778,N
1561,0.785,2.465,-0.285,58.333,116.667,330.556,569.444,13.889,V
1562,-0.060,2.215,0.400,127.778,61.111,294.444,558.333,11.111,N
1563,-0.075,2.525,-0.290,197.222,108.333,108.333,511.111,47.222,V
1564,-0.340,2.085,0.370,125.000,61.111,300.000,580.556,69.444,N
1565,0.815,2.360,-0.360,58.333,116.667,333.333,544.444,36.111,V
1566,-0.100,2.140,0.275,136.111,63.889,277.778,577.778,33.333,N
1567,-0.115,2.100,0.100,122.222,61.111,283.333,538.889,38.889,N
1568,-0.350,2.125,0.225,144.444,63.889,291.667,572.222,33.333,N
1569,-0.120,2.255,0.455,136.111,63.889,275.000,544.444,27.778,N
1570,0.005,2.245,0.380,133.333,61.111,275.000,575.000,30.556,N
1571,-0.010,2.250,0.195,130.556,61.111,277.778,552.778,22.222,N
1572,-0.095,2.200,0.360,133.333,61.111,286.111,547.222,5.556,N
1573,-0.035,2.340,0.460,127.778,61.111,288.889,536.111,11.111,N
1574,0.155,2.330,0.555,133.333,69.444,288.889,558.333,22.222,N
1575,0.095,2.875,0.075,127.778,116.667,338.889,588.889,30.556,F
1576,0.055,2.370,0.560,133.333,63.889,277.778,572.222,16.667,N
1577,-0.010,2.605,0.025,865508.333,865566.667,865800.000,550.000,22.222,V
1578,0.195,2.420,0.665,127.778,58.333,269.444,558.333,8.333,N
1579,0.280,2.830,0.110,58.333,116.667,333.333,558.333,0.000,V
1580,0.190,2.410,0.815,127.778,61.111,280.556,536.111,22.222,N
1581,0.380,2.385,0.585,130.556,61.111,280.556,558.333,22.222,N
1582,0.150,2.415,0.540,127.778,61.111,283.333,552.778,5.556,N
1583,0.240,2.305,0.585,130.556,58.333,286.111,561.111,8.333,N
1584,0.225,2.390,0.760,133.333,63.889,288.889,550.000,11.111,N
1585,0.260,2.360,0.490,122.222,61.111,286.111,558.333,8.333,N
1586,0.130,2.225,0.500,125.000,63.889,283.333,547.222,11.111,N
1587,0.200,2.375,0.540,130.556,61.111,266.667,544.444,2.778,N
1588,0.255,2.235,0.690,125.000,69.444,277.778,530.556,13.889,N
1589,0.185,2.295,0.290,136.111,61.111,286.111,566.667,36.111,N
1590,-0.165,2.195,-0.095,144.444,69.444,294.444,577.778,11.111,N
1591,-0.310,2.405,0.245,125.000,91.667,319.444,558.333,19.444,F
1592,0.060,2.295,0.630,130.556,66.667,277.778,550.000,8.333,N
1593,0.315,2.460,0.625,125.000,58.333,258.333,527.778,22.222,N
1594,0.230,2.295,0.615,130.556,63.889,297.222,552.778,25.000,N
1595,0.355,2.630,-0.005,197.222,113.889,113.889,491.667,61.111,V
1596,0.150,2.260,0.835,133.333,61.111,269.444,619.444,127.778,N
1597,0.210,2.165,0.335,133.333,63.889,269.444,563.889,55.556,N
1598,-0.205,1.920,0.140,133.333,61.111,302.778,572.222,8.333,N
1599,-0.200,2.020,0.275,138.889,69.444,305.556,558.333,13.889,N
1600,-0.205,1.950,0.405,119.444,61.111,272.222,552.778,5.556,N
1601,-0.050,2.405,-0.320,130.556,116.667,333.333,566.667,13.889,V
1602,-0.345,1.860,0.060,125.000,61.111,294.444,550.000,16.667,N
1603,-0.360,1.820,0.075,133.333,80.556,311.111,538.889,11.111,N
1604,-0.360,1.910,0.145,136.111,88.889,336.111,561.111,22.222,N
1605,-0.290,1.985,0.150,136.111,77.778,311.111,569.444,8.333,N
1606,-0.255,2.000,0.190,127.778,61.111,288.889,544.444,25.000,N
1607,-0.175,2.040,0.210,130.556,61.111,297.222,555.556,11.111,N
1608,-0.160,1.975,0.285,127.778,80.556,305.556,536.111,19.444,N
1609,-0.075,1.930,0.485,122.222,75.000,277.778,561.111,25.000,N
1610,0.000,1.945,0.220,133.333,61.111,294.444,563.889,2.778,N
1611,0.220,1.310,0.485,127.778,41.667,222.222,391.667,172.222,A
1612,0.485,-2.145,1.205,147.222,8.333,175.000,355.556,36.111,V
1613,-0.005,2.060,0.135,125.000,66.667,325.000,869.444,513.889,N
1614,0.000,2.070,0.305,133.333,66.667,305.556,594.444,275.000,N
1615,0.030,2.275,0.555,130.556,63.889,300.000,538.889,55.556,N
1616,0.175,2.280,0.555,133.333,66.667,275.000,555.556,16.667,N
1617,0.185,2.575,0.455,125.000,91.667,294.444,541.667,13.889,F
1618,0.130,2.265,0.690,130.556,63.889,275.000,561.111,19.444,N
1619,0.265,2.625,0.115,130.556,116.667,336.111,547.222,13.889,F
1620,0.045,2.150,0.375,136.111,63.889,297.222,583.333,36.111,N
1621,0.015,2.255,0.445,130.556,63.889,291.667,541.667,41.667,N
1622,0.145,2.230,0.770,125.000,61.111,277.778,550.000,8.333,N
1623,0.315,2.060,0.500,125.000,63.889,280.556,533.333,16.667,N
1624,0.000,1.980,0.370,119.444,61.111,272.222,561.111,27.778,N
1625,-0.125,1.945,0.470,127.778,66.667,286.111,544.444,16.667,N
1626,0.165,2.030,0.495,122.222,77.778,288.889,538.889,5.556,N
1627,-0.055,1.990,0.135,133.333,63.889,300.000,561.111,22.222,N
1628,-0.160,1.955,0.250,125.000,63.889,277.778,536.111,25.000,N
1629,-0.170,2.440,-0.245,58.333,116.667,344.444,555.556,19.444,F
1630,-0.075,2.135,0.535,127.778,63.889,283.333,547.222,8.333,N
1631,0.910,2.255,-0.425,58.333,116.667,330.556,544.444,2.778,V
1632,-0.155,-1.235,0.745,72.222,0.000,194.444,491.667,52.778,V
1633,0.080,2.420,-0.210,130.556,111.111,327.778,597.222,105.556,F
1634,-0.185,1.910,-0.090,133.333,63.889,291.667,577.778,19.444,N
1635,-0.340,1.905,0.090,136.111,63.889,275.000,566.667,11.111,N
1636,-0.260,1.970,0.475,127.778,61.111,275.000,538.889,27.778,N
1637,0.075,1.925,0.240,127.778,72.222,280.556,555.556,16.667,N
1638,-0.110,1.935,0.180,119.444,61.111,283.333,550.000,5.556,N
1639,-0.235,1.950,0.180,122.222,61.111,283.333,547.222,2.778,N
1640,-0.255,1.970,0.345,136.111,66.667,283.333,552.778,5.556,N
1641,-0.140,2.330,-0.015,122.222,88.889,291.667,552.778,0.000,F
1642,-0.275,1.805,0.250,130.556,63.889,291.667,555.556,2.778,N
1643,-0.090,2.375,-0.100,197.222,108.333,108.333,502.778,52.778,V
1644,-0.080,2.030,0.430,127.778,63.889,288.889,613.889,111.111,N
1645,-0.010,2.155,0.380,130.556,63.889,277.778,558.333,55.556,N
1646,0.025,2.590,0.330,141.667,88.889,316.667,544.444,13.889,N
1647,0.085,2.145,0.440,122.222,61.111,269.444,538.889,5.556,N
1648,-0.110,2.190,0.205,138.889,66.667,297.222,561.111,22.222,N
1649,-0.105,2.065,0.370,127.778,61.111,294.444,555.556,5.556,N
1650,-0.005,2.150,0.525,125.000,61.111,275.000,558.333,2.778,N
1651,0.035,2.120,0.285,125.000,63.889,283.333,538.889,19.444,N
1652,-0.125,2.175,0.330,127.778,69.444,275.000,575.000,36.111,N
1653,0.060,2.245,0.490,127.778,61.111,275.000,530.556,44.444,N
1654,0.150,1.955,0.610,108.333,61.111,275.000,525.000,5.556,F
1655,-0.010,2.325,-0.285,908625.000,908683.333,908900.000,580.556,55.556,V
1656,-0.035,2.130,0.695,127.778,63.889,286.111,550.000,30.556,N
1657,0.630,2.710,0.160,58.333,116.667,319.444,563.889,13.889,F
1658,0.275,2.180,0.640,130.556,63.889,286.111,547.222,16.667,N
1659,0.160,2.125,0.515,133.333,66.667,286.111,588.889,41.667,N
1660,0.195,2.175,0.675,130.556,61.111,280.556,538.889,50.000,N
1661,0.280,2.285,0.495,122.222,61.111,263.889,555.556,16.667,N
1662,0.010,2.020,0.380,125.000,61.111,275.000,555.556,0.000,N
1663,0.025,2.015,0.430,133.333,61.111,286.111,550.000,5.556,N
1664,0.040,2.060,0.510,133.333,66.667,294.444,569.444,19.444,N
1665,-0.040,1.945,0.205,125.000,63.889,280.556,577.778,8.333,N
1666,-0.130,1.790,0.345,133.333,63.889,288.889,552.778,25.000,N
1667,0.245,2.310,-0.155,58.333,116.667,311.111,547.222,5.556,V
1668,-0.020,1.900,0.400,127.778,61.111,283.333,552.778,5.556,N
1669,-0.095,2.510,-0.200,125.000,116.667,322.222,561.111,8.333,F
1670,-0.155,1.960,0.585,133.333,61.111,275.000,558.333,2.778,N
1671,0.015,2.185,0.035,127.778,86.111,291.667,541.667,16.667,F
1672,-0.215,1.865,0.185,125.000,61.111,288.889,569.444,27.778,N
1673,-0.235,1.795,0.255,130.556,66.667,286.111,552.778,16.667,N
1674,-0.210,1.885,0.155,125.000,72.222,291.667,572.222,19.444,N
1675,-0.230,1.925,0.190,133.333,63.889,288.889,541.667,30.556,N
1676,-0.245,1.935,0.270,122.222,88.889,297.222,550.000,8.333,N
1677,-0.240,2.025,0.135,127.778,58.333,291.667,550.000,0.000,N
1678,-0.245,1.960,0.260,138.889,63.889,294.444,566.667,16.667,N
1679,0.260,2.160,0.220,186.111,66.667,280.556,450.000,116.667,A
1680,-0.290,2.060,0.230,125.000,61.111,313.889,666.667,216.667,N
1681,-0.040,2.530,-0.030,75.000,111.111,111.111,522.222,144.444,V
1682,-0.095,2.125,0.675,125.000,58.333,277.778,600.000,77.778,N
1683,0.105,2.165,0.385,130.556,58.333,238.889,561.111,38.889,N
1684,0.385,2.375,0.280,163.889,66.667,275.000,391.667,169.444,A
1685,0.020,2.270,0.600,130.556,61.111,300.000,675.000,283.333,N
1686,0.165,2.265,0.410,127.778,61.111,300.000,572.222,102.778,N
1687,0.045,2.235,0.540,138.889,61.111,277.778,575.000,2.778,N
1688,0.245,2.315,0.790,130.556,63.889,286.111,561.111,13.889,N
1689,0.260,2.315,0.605,122.222,61.111,283.333,550.000,11.111,N
1690,0.160,2.335,0.615,130.556,69.444,277.778,572.222,22.222,N
1691,0.290,2.410,0.830,122.222,75.000,288.889,533.333,38.889,N
1692,0.305,2.265,0.590,136.111,61.111,286.111,544.444,11.111,N
1693,0.200,2.320,0.745,136.111,61.111,286.111,572.222,27.778,N
1694,0.345,2.380,0.875,138.889,63.889,272.222,563.889,8.333,N
1695,0.325,2.255,0.655,127.778,61.111,283.333,558.333,5.556,N
1696,0.220,2.305,0.570,130.556,58.333,269.444,566.667,8.333,N
1697,0.155,2.250,0.670,125.000,63.889,286.111,522.222,44.444,N
1698,0.240,2.255,0.775,127.778,58.333,280.556,555.556,33.333,N
1699,0.155,2.115,0.365,138.889,63.889,288.889,569.444,13.889,N
1700,-0.070,2.025,0.290,127.778,63.889,275.000,550.000,19.444,N
1701,-0.090,2.150,0.510,130.556,61.111,286.111,552.778,2.778,N
1702,0.175,1.955,0.405,130.556,63.889,291.667,555.556,2.778,N
1703,-0.080,1.935,0.185,130.556,80.556,294.444,594.444,38.889,N
1704,-0.165,1.975,0.240,136.111,61.111,286.111,544.444,50.000,N
1705,-0.195,1.980,0.465,127.778,61.111,266.667,555.556,11.111,N
1706,-0.060,1.845,0.210,133.333,63.889,277.778,544.444,11.111,N
1707,-0.205,1.845,0.200,130.556,61.111,288.889,569.444,25.000,N
1708,-0.230,1.940,0.295,138.889,61.111,283.333,566.667,2.778,N
1709,-0.270,1.880,0.070,133.333,61.111,275.000,569.444,2.778,N
1710,-0.420,1.815,-0.025,125.000,63.889,300.000,547.222,22.222,N
1711,-0.435,1.970,0.150,127.778,61.111,261.111,547.222,0.000,N
1712,-0.235,2.035,0.265,127.778,66.667,277.778,552.778,5.556,N
1713,-0.265,1.875,0.155,125.000,61.111,280.556,552.778,0.000,N
1714,-0.245,1.940,0.170,138.889,63.889,269.444,566.667,13.889,N
1715,-0.270,1.925,0.340,130.556,86.111,297.222,527.778,38.889,N
1716,-0.145,2.070,0.225,133.333,61.111,283.333,566.667,38.889,N
1717,-0.170,1.965,0.325,136.111,63.889,288.889,575.000,8.333,N
1718,-0.060,2.020,0.545,125.000,61.111,294.444,550.000,25.000,N
1719,0.545,2.215,0.345,177.778,61.111,263.889,441.667,108.333,A
1720,-0.220,2.090,0.325,130.556,58.333,297.222,661.111,219.444,N
1721,-0.005,2.075,0.480,130.556,61.111,283.333,555.556,105.556,N
1722,0.100,2.190,0.660,133.333,66.667,286.111,552.778,2.778,N
1723,0.105,2.160,0.460,138.889,63.889,286.111,575.000,22.222,N
1724,0.005,2.065,0.540,130.556,63.889,280.556,572.222,2.778,N
1725,0.210,2.305,0.790,138.889,66.667,280.556,558.333,13.889,N
1726,0.295,2.200,0.575,125.000,63.889,283.333,547.222,11.111,N
1727,0.150,2.270,0.655,127.778,61.111,272.222,569.444,22.222,N
1728,0.290,2.300,0.835,138.889,66.667,286.111,541.667,27.778,N
1729,0.300,2.280,0.565,127.778,55.556,272.222,563.889,22.222,N
1730,0.105,2.230,0.570,130.556,63.889,277.778,558.333,5.556,N
1731,0.220,2.220,0.775,127.778,58.333,277.778,552.778,5.556,N
1732,0.220,2.110,0.530,136.111,61.111,283.333,569.444,16.667,N
1733,0.010,2.070,0.425,127.778,63.889,269.444,566.667,2.778,N
1734,0.095,2.070,0.570,125.000,61.111,275.000,547.222,19.444,N
1735,0.230,2.095,0.590,125.000,61.111,275.000,536.111,11.111,N
1736,-0.015,2.110,0.290,133.333,63.889,280.556,555.556,19.444,N
1737,-0.115,1.970,0.345,127.778,63.889,291.667,561.111,5.556,N
1738,-0.065,2.095,0.555,136.111,63.889,277.778,572.222,11.111,N
1739,-0.035,2.000,0.215,133.333,61.111,269.444,550.000,22.222,N
1740,-0.275,1.935,0.145,127.778,61.111,272.222,561.111,11.111,N
1741,-0.260,1.935,0.195,127.778,61.111,275.000,527.778,33.333,N
1742,-0.160,1.660,0.175,125.000,58.333,263.889,544.444,16.667,N
1743,-0.375,1.835,-0.120,130.556,63.889,291.667,569.444,25.000,N
1744,-0.555,1.710,-0.075,130.556,61.111,288.889,538.889,30.556,N
1745,-0.520,1.680,0.035,130.556,66.667,277.778,555.556,16.667,N
1746,-0.550,1.735,-0.160,127.778,58.333,300.000,569.444,13.889,N
1747,-0.565,1.785,-0.145,138.889,63.889,272.222,577.778,8.333,N
1748,-0.615,1.770,-0.040,125.000,72.222,283.333,544.444,33.333,N
1749,-0.600,1.810,-0.215,122.222,88.889,300.000,561.111,16.667,N
1750,-0.635,1.660,-0.150,127.778,61.111,277.778,547.222,13.889,N
1751,-0.570,1.900,0.010,127.778,88.889,313.889,550.000,2.778,N
1752,-0.430,1.995,0.095,136.111,83.333,313.889,566.667,16.667,N
1753,-0.425,1.940,-0.055,127.778,58.333,277.778,575.000,8.333,N
1754,-0.400,2.020,0.155,130.556,75.000,311.111,552.778,22.222,N
1755,-0.200,2.235,0.365,125.000,61.111,255.556,555.556,2.778,N
1756,-0.190,2.120,0.160,127.778,69.444,280.556,538.889,16.667,N
1757,-0.210,2.250,0.375,127.778,63.889,280.556,550.000,11.111,N
1758,0.035,2.475,0.515,130.556,80.556,302.778,555.556,5.556,N
1759,0.140,2.465,0.740,133.333,88.889,319.444,538.889,16.667,N
1760,0.225,2.510,0.445,133.333,80.556,308.333,569.444,30.556,N
1761,-0.045,2.315,0.440,133.333,80.556,333.333,566.667,2.778,N
1762,0.075,2.440,0.620,152.778,66.667,258.333,552.778,13.889,N
1763,0.275,2.535,0.895,125.000,63.889,288.889,536.111,16.667,N
1764,0.350,2.675,0.910,119.444,116.667,308.333,547.222,11.111,N
1765,0.505,2.690,0.885,41.667,58.333,283.333,538.889,8.333,N
1766,0.480,2.530,1.065,127.778,61.111,258.333,541.667,2.778,N
1767,0.775,2.585,1.105,130.556,91.667,330.556,580.556,38.889,N
1768,0.725,2.435,0.850,122.222,58.333,275.000,580.556,0.000,N
1769,0.420,2.465,0.630,105.556,88.889,327.778,552.778,27.778,N
1770,0.170,2.435,0.610,111.111,88.889,322.222,544.444,8.333,N
1771,0.485,2.440,0.660,122.222,91.667,341.667,547.222,2.778,N
1772,0.445,2.325,0.730,130.556,63.889,305.556,550.000,2.778,N
1773,0.515,2.235,0.795,138.889,86.111,291.667,561.111,11.111,N
1774,0.205,2.070,0.290,130.556,69.444,300.000,558.333,2.778,N
1775,-0.055,1.950,0.300,136.111,66.667,280.556,563.889,5.556,N
1776,-0.005,1.885,0.290,144.444,66.667,291.667,555.556,8.333,N
1777,-0.100,1.965,0.430,133.333,61.111,263.889,555.556,0.000,N
1778,-0.215,1.760,-0.030,125.000,61.111,288.889,544.444,11.111,N
1779,-0.390,1.725,0.005,125.000,63.889,272.222,541.667,2.778,N
1780,-0.365,1.695,0.095,125.000,63.889,288.889,530.556,11.111,N
1781,-0.240,1.685,0.160,125.000,88.889,291.667,541.667,11.111,N
1782,-0.430,1.750,-0.130,133.333,58.333,280.556,575.000,33.333,N
1783,-0.575,1.705,-0.055,130.556,63.889,283.333,547.222,27.778,N
1784,-0.410,1.915,0.135,133.333,66.667,291.667,550.000,2.778,N
1785,-0.150,1.805,0.190,122.222,61.111,261.111,533.333,16.667,N
1786,-0.350,1.910,0.025,127.778,61.111,275.000,558.333,25.000,N
1787,-0.305,1.890,0.160,125.000,66.667,283.333,533.333,25.000,N
1788,-0.260,2.015,0.370,130.556,58.333,263.889,547.222,13.889,N
1789,-0.195,2.000,0.130,127.778,66.667,283.333,544.444,2.778,N
1790,-0.270,1.950,0.285,127.778,63.889,288.889,566.667,22.222,N
1791,-0.160,2.020,0.395,133.333,63.889,280.556,563.889,2.778,N
1792,-0.030,2.140,0.280,122.222,66.667,269.444,544.444,19.444,N
1793,-0.185,2.060,0.235,122.222,63.889,280.556,561.111,16.667,N
1794,-0.105,2.245,0.260,122.222,61.111,258.333,544.444,16.667,N
1795,-0.145,2.180,0.440,130.556,63.889,302.778,536.111,8.333,N
1796,0.135,2.460,0.620,138.889,66.667,294.444,558.333,22.222,N
1797,0.210,2.450,0.560,150.000,72.222,297.222,569.444,11.111,N
1798,0.165,2.550,0.710,130.556,61.111,300.000,547.222,22.222,N
1799,0.440,2.615,0.870,125.000,61.111,275.000,552.778,5.556,N
1800,0.645,2.620,0.885,130.556,61.111,283.333,533.333,19.444,N
1801,0.610,2.755,0.810,130.556,63.889,275.000,541.667,8.333,N
1802,0.490,2.470,0.930,127.778,63.889,286.111,536.111,5.556,N
1803,0.565,2.455,0.780,130.556,61.111,258.333,552.778,16.667,N
1804,0.615,2.430,1.070,130.556,61.111,283.333,544.444,8.333,N
1805,0.775,2.420,0.975,127.778,69.444,283.333,558.333,13.889,N
1806,0.540,2.145,0.775,130.556,66.667,302.778,569.444,11.111,N
1807,0.380,1.950,0.295,119.444,58.333,286.111,550.000,19.444,N
1808,-0.205,1.835,0.085,130.556,86.111,319.444,558.333,8.333,N
1809,-0.305,1.915,0.810,138.889,66.667,280.556,527.778,30.556,N
1810,0.155,1.830,0.565,127.778,66.667,280.556,541.667,13.889,N
1811,-0.090,1.660,-0.230,155.556,72.222,305.556,569.444,27.778,N
1812,-0.625,1.275,-0.170,55.556,72.222,322.222,583.333,13.889,N
1813,-0.375,1.675,-0.030,133.333,91.667,316.667,538.889,44.444,N
1814,-0.480,1.835,-0.240,133.333,58.333,277.778,563.889,25.000,N
1815,-0.515,2.070,-0.070,130.556,61.111,286.111,533.333,30.556,N
1816,-0.260,2.240,0.530,130.556,61.111,275.000,544.444,11.111,N
1817,0.015,2.190,0.610,133.333,66.667,300.000,533.333,11.111,N
1818,0.105,1.930,0.540,130.556,86.111,294.444,536.111,2.778,N
1819,-0.165,1.730,0.150,133.333,61.111,302.778,552.778,16.667,N
1820,-0.230,1.650,0.030,136.111,91.667,311.111,552.778,0.000,N
1821,-0.550,1.390,-0.320,133.333,66.667,286.111,558.333,5.556,N
1822,-0.320,1.545,-0.760,172.222,61.111,252.778,422.222,136.111,A
1823,-0.010,1.635,-0.750,1001747.222,61.111,325.000,650.000,227.778,N
1824,-0.850,1.620,-0.325,122.222,58.333,294.444,530.556,119.444,N
1825,-0.460,1.940,0.210,130.556,61.111,288.889,533.333,2.778,N
1826,-0.120,2.095,0.350,138.889,86.111,311.111,544.444,11.111,N
1827,-0.325,1.855,-0.230,127.778,61.111,288.889,572.222,27.778,N
1828,-0.635,1.805,-0.190,130.556,61.111,286.111,552.778,19.444,N
1829,-0.300,2.045,0.360,127.778,61.111,280.556,547.222,5.556,N
1830,-0.005,2.380,0.665,127.778,58.333,283.333,527.778,19.444,N
1831,0.235,2.265,0.775,125.000,58.333,255.556,533.333,5.556,N
1832,0.075,2.205,0.175,130.556,61.111,288.889,544.444,11.111,N
1833,-0.230,1.980,0.440,130.556,61.111,286.111,558.333,13.889,N
1834,0.150,2.370,0.825,127.778,66.667,288.889,538.889,19.444,N
1835,0.400,2.260,0.915,125.000,80.556,288.889,550.000,11.111,N
1836,0.175,2.120,0.340,130.556,61.111,294.444,569.444,19.444,N
1837,-0.110,2.175,0.510,127.778,63.889,300.000,563.889,5.556,N
1838,0.190,2.230,0.770,130.556,66.667,288.889,547.222,16.667,N
1839,0.290,2.190,0.810,125.000,61.111,272.222,538.889,8.333,N
1840,0.115,2.020,0.250,133.333,61.111,288.889,555.556,16.667,N
1841,-0.215,2.030,0.320,127.778,61.111,302.778,566.667,11.111,N
1842,-0.005,2.040,0.565,136.111,63.889,288.889,572.222,5.556,N
1843,0.130,2.065,0.700,125.000,61.111,277.778,547.222,25.000,N
1844,0.020,2.015,0.220,130.556,61.111,277.778,563.889,16.667,N
1845,-0.280,1.865,0.155,122.222,58.333,269.444,541.667,22.222,N
1846,-0.255,1.835,0.270,127.778,58.333,263.889,544.444,2.778,N
1847,-0.020,1.840,0.265,133.333,63.889,283.333,550.000,5.556,N
1848,-0.335,1.875,-0.095,119.444,63.889,286.111,561.111,11.111,N
1849,-0.540,1.725,0.070,130.556,66.667,294.444,552.778,8.333,N
1850,-0.385,1.910,0.310,133.333,61.111,300.000,563.889,11.111,N
1851,-0.235,1.970,0.065,133.333,61.111,286.111,572.222,8.333,N
1852,-0.485,1.850,-0.130,130.556,61.111,291.667,563.889,8.333,N
1853,-0.590,1.905,0.070,127.778,63.889,280.556,552.778,11.111,N
1854,-0.465,1.890,0.205,127.778,61.111,277.778,544.444,8.333,N
1855,-0.505,1.825,-0.120,127.778,66.667,300.000,569.444,25.000,N
1856,-0.610,1.725,-0.150,144.444,63.889,291.667,586.111,16.667,N
1857,-0.565,2.015,0.120,125.000,61.111,283.333,569.444,16.667,N
1858,-0.385,1.925,0.210,136.111,63.889,291.667,550.000,19.444,N
1859,-0.420,1.960,0.000,133.333,58.333,275.000,575.000,25.000,N
1860,-0.435,2.015,0.105,127.778,63.889,286.111,547.222,27.778,N
1861,-0.335,2.105,0.505,127.778,66.667,280.556,547.222,0.000,N
1862,-0.075,2.130,0.350,130.556,63.889,291.667,563.889,16.667,N
1863,-0.160,2.375,0.290,130.556,63.889,300.000,569.444,5.556,N
1864,-0.040,2.450,0.605,136.111,63.889,283.333,569.444,0.000,N
1865,0.185,2.425,0.915,133.333,63.889,288.889,547.222,22.222,N
1866,0.260,2.470,0.630,130.556,63.889,272.222,575.000,27.778,N
1867,0.135,2.465,0.700,133.333,66.667,286.111,555.556,19.444,N
1868,0.305,2.560,0.930,130.556,61.111,266.667,550.000,5.556,N
1869,0.480,2.600,1.130,125.000,58.333,280.556,541.667,8.333,N
1870,0.405,2.575,0.600,133.333,63.889,291.667,563.889,22.222,N
1871,0.020,2.330,0.400,136.111,66.667,297.222,588.889,25.000,N
1872,0.035,2.235,0.645,136.111,61.111,275.000,558.333,30.556,N
1873,0.295,2.270,0.755,130.556,63.889,283.333,555.556,2.778,N
1874,0.070,2.185,0.320,130.556,58.333,263.889,561.111,5.556,N
1875,-0.120,2.015,0.565,130.556,61.111,280.556,552.778,8.333,N
1876,0.150,2.270,0.935,138.889,66.667,280.556,555.556,2.778,N
1877,0.275,2.180,0.505,133.333,61.111,263.889,569.444,13.889,N
1878,-0.030,2.125,0.390,133.333,63.889,294.444,563.889,5.556,N
1879,-0.075,2.080,0.515,130.556,58.333,291.667,561.111,2.778,N
1880,0.185,2.060,0.500,141.667,66.667,291.667,575.000,13.889,N
1881,-0.140,2.045,0.180,125.000,61.111,272.222,575.000,0.000,N
1882,-0.285,1.960,0.205,133.333,63.889,283.333,555.556,19.444,N
1883,-0.260,1.925,0.505,130.556,61.111,266.667,541.667,13.889,N
1884,-0.165,1.975,0.095,138.889,61.111,283.333,558.333,16.667,N
1885,-0.415,1.945,0.025,147.222,63.889,305.556,586.111,27.778,N
1886,-0.440,1.835,0.165,133.333,63.889,277.778,572.222,13.889,N
1887,-0.270,1.725,0.145,130.556,63.889,283.333,547.222,25.000,N
1888,-0.410,1.850,-0.040,127.778,58.333,275.000,583.333,36.111,N
1889,-0.570,1.835,0.080,127.778,63.889,275.000,536.111,47.222,N
1890,-0.390,1.870,0.305,127.778,61.111,258.333,550.000,13.889,N
1891,-0.325,1.915,0.120,130.556,61.111,286.111,563.889,13.889,N
1892,-0.380,1.950,0.020,133.333,63.889,283.333,561.111,2.778,N
1893,-0.415,1.985,0.355,138.889,69.444,302.778,561.111,0.000,N
1894,-0.175,2.035,0.480,136.111,63.889,280.556,561.111,0.000,N
1895,-0.110,2.180,0.215,136.111,63.889,283.333,583.333,22.222,F
1896,-0.225,1.975,0.245,130.556,63.889,286.111,547.222,36.111,N
1897,-0.195,2.695,0.065,127.778,116.667,316.667,558.333,11.111,F
1898,0.065,2.330,0.645,133.333,61.111,275.000,550.000,8.333,N
1899,0.015,2.770,0.225,133.333,108.333,338.889,580.556,30.556,F
1900,-0.010,1.305,0.805,138.889,66.667,288.889,577.778,2.778,N
1901,0.520,2.630,0.275,58.333,116.667,347.222,530.556,47.222,V
1902,0.480,2.615,1.035,130.556,63.889,297.222,597.222,66.667,N
1903,0.585,2.950,0.125,197.222,105.556,330.556,508.333,88.889,V
1904,0.220,2.545,1.080,130.556,61.111,294.444,608.333,100.000,N
1905,0.805,2.900,0.760,197.222,105.556,105.556,494.444,113.889,V
1906,0.590,2.670,1.190,127.778,58.333,275.000,625.000,130.556,N
