id,Pamp,Ramp,Tamp,PR,QRS,QT,RRI,dRRI,label
1,-0.110,1.340,-0.510,141.667,113.889,380.556,661.111,130.556,N
2,-0.160,1.335,0.190,141.667,108.333,402.778,597.222,63.889,N
3,0.555,-2.435,0.780,38.889,2.778,205.556,397.222,200.000,V
4,0.165,1.640,-0.145,138.889,108.333,380.556,766.667,369.444,N
5,1.595,-1.640,0.070,36.111,0.000,225.000,530.556,236.111,V
6,0.235,1.625,-0.080,141.667,113.889,375.000,680.556,150.000,N
7,0.255,1.635,0.680,144.444,94.444,388.889,600.000,80.556,N
8,0.700,-2.445,0.655,33.333,2.778,202.778,383.333,216.667,V
9,-0.555,1.080,-0.845,130.556,108.333,386.111,766.667,383.333,N
10,-0.470,1.265,-0.555,141.667,111.111,405.556,616.667,150.000,N
11,-0.190,1.560,0.300,144.444,111.111,405.556,591.667,25.000,N
12,-0.265,0.695,0.875,58.333,100.000,308.333,358.333,233.333,V
13,0.270,1.875,0.125,133.333,113.889,380.556,816.667,458.333,N
14,0.505,2.030,0.320,144.444,113.889,350.000,594.444,222.222,N
15,0.650,2.065,0.375,141.667,94.444,350.000,577.778,16.667,N
16,0.695,1.995,0.310,144.444,116.667,375.000,594.444,16.667,N
17,0.620,1.960,0.120,147.222,102.778,358.333,602.778,8.333,N
18,0.375,1.665,0.150,144.444,111.111,405.556,597.222,5.556,N
19,0.700,-2.405,0.750,38.889,2.778,211.111,405.556,191.667,V
20,-0.060,1.390,-0.395,141.667,116.667,402.778,763.889,358.333,N
21,-0.270,1.410,-0.190,58.333,88.889,302.778,438.889,325.000,V
22,0.025,1.560,-0.300,136.111,97.222,347.222,733.333,294.444,N
23,0.025,1.520,-0.175,138.889,105.556,313.889,613.889,119.444,N
24,-0.175,1.225,-0.350,136.111,100.000,375.000,397.222,216.667,A
25,0.615,-2.620,0.725,38.889,2.778,222.222,508.333,111.111,V
26,0.015,1.475,-0.265,136.111,116.667,405.556,775.000,266.667,N
27,0.035,1.455,-0.265,138.889,100.000,347.222,580.556,194.444,N
28,0.040,1.420,-0.260,138.889,116.667,375.000,586.111,5.556,N
29,0.070,1.440,-0.235,141.667,116.667,375.000,600.000,13.889,N
30,0.075,1.455,-0.265,141.667,108.333,383.333,586.111,13.889,N
31,0.050,1.415,-0.260,138.889,111.111,400.000,580.556,5.556,N
32,0.055,1.470,-0.115,138.889,105.556,366.667,583.333,2.778,N
33,-0.115,1.580,-0.270,141.667,102.778,322.222,458.333,125.000,A
34,0.055,1.605,-0.225,136.111,116.667,380.556,652.778,194.444,N
35,0.090,1.630,0.170,138.889,111.111,405.556,597.222,55.556,N
36,0.765,-2.395,0.810,38.889,5.556,216.667,405.556,191.667,V
37,0.110,1.640,-0.155,133.333,113.889,380.556,763.889,358.333,N
38,0.190,1.670,-0.075,138.889,105.556,391.667,586.111,177.778,N
39,0.240,1.680,0.010,144.444,113.889,405.556,580.556,5.556,N
40,0.865,-2.185,0.945,36.111,2.778,213.889,419.444,161.111,V
41,0.200,1.645,-0.145,136.111,97.222,386.111,758.333,338.889,N
42,0.145,1.680,-0.160,138.889,111.111,383.333,583.333,175.000,N
43,0.125,1.730,-0.125,133.333,105.556,380.556,566.667,16.667,N
44,0.160,1.740,-0.060,136.111,116.667,405.556,580.556,13.889,N
45,0.335,2.095,-0.130,58.333,116.667,402.778,472.222,108.333,V
46,0.865,-2.110,0.590,41.667,2.778,216.667,666.667,194.444,V
47,0.590,-2.540,0.790,147.222,0.000,213.889,363.889,302.778,V
48,0.120,1.670,-0.220,136.111,105.556,383.333,816.667,452.778,N
49,1.570,-1.620,-0.080,36.111,2.778,230.556,502.778,313.889,V
50,0.075,1.760,-0.185,136.111,102.778,375.000,633.333,130.556,N
51,0.095,1.750,0.300,141.667,100.000,388.889,586.111,47.222,N
52,0.945,-2.075,1.035,38.889,2.778,225.000,408.333,177.778,V
53,0.345,1.875,0.010,133.333,111.111,380.556,769.444,361.111,N
54,1.630,-1.410,0.185,36.111,2.778,213.889,527.778,241.667,V
55,0.220,1.805,-0.105,141.667,116.667,402.778,625.000,97.222,N
56,0.150,1.815,0.085,133.333,105.556,394.444,575.000,50.000,N
57,0.925,-2.155,0.890,36.111,2.778,202.778,411.111,163.889,V
58,0.200,1.660,-0.315,150.000,97.222,344.444,758.333,347.222,N
59,1.305,-1.640,0.030,38.889,0.000,241.667,544.444,213.889,V
60,0.300,1.870,0.040,127.778,97.222,366.667,622.222,77.778,N
61,0.430,1.885,0.180,136.111,111.111,372.222,577.778,44.444,N
62,0.490,1.990,0.305,138.889,102.778,363.889,558.333,19.444,N
63,2.100,-1.150,0.375,36.111,2.778,241.667,494.444,63.889,V
64,0.535,2.020,0.120,141.667,97.222,336.111,661.111,166.667,N
65,0.405,1.940,0.370,133.333,105.556,394.444,572.222,88.889,N
66,1.060,-2.105,0.865,36.111,5.556,200.000,405.556,166.667,V
67,0.080,1.560,-0.365,130.556,100.000,388.889,719.444,313.889,N
68,1.070,-1.875,-0.215,36.111,0.000,227.778,552.778,166.667,V
69,-0.145,1.485,-0.425,133.333,116.667,369.444,580.556,27.778,N
70,-0.100,1.515,-0.305,127.778,116.667,400.000,572.222,8.333,N
71,0.015,1.600,-0.285,141.667,102.778,375.000,575.000,2.778,N
72,1.340,-1.735,0.465,36.111,2.778,291.667,516.667,58.333,V
73,0.465,-2.625,0.865,41.667,2.778,213.889,330.556,186.111,V
74,0.150,1.660,-0.075,127.778,94.444,386.111,847.222,516.667,N
75,-0.075,1.815,-0.030,63.889,91.667,372.222,408.333,438.889,V
76,0.315,2.030,0.130,138.889,116.667,397.222,758.333,350.000,N
77,0.420,1.980,0.120,133.333,86.111,344.444,569.444,188.889,N
78,0.385,1.905,0.075,133.333,91.667,338.889,566.667,2.778,N
79,0.330,1.870,0.015,136.111,113.889,380.556,558.333,8.333,N
80,0.315,1.800,0.625,119.444,116.667,405.556,563.889,5.556,N
81,0.880,-2.230,0.925,38.889,5.556,213.889,394.444,169.444,V
82,0.110,1.460,-0.380,133.333,116.667,405.556,744.444,350.000,N
83,-0.090,1.315,-0.525,138.889,111.111,391.667,580.556,163.889,N
84,-0.275,1.270,0.020,133.333,108.333,405.556,561.111,19.444,N
85,0.280,-2.400,0.300,44.444,5.556,202.778,402.778,158.333,V
86,-0.255,1.330,-0.390,133.333,116.667,386.111,716.667,313.889,N
87,-0.140,1.690,-0.225,136.111,113.889,375.000,575.000,141.667,N
88,0.090,1.745,-0.255,141.667,102.778,333.333,583.333,8.333,N
89,0.010,1.695,-0.225,136.111,100.000,383.333,563.889,19.444,N
90,0.030,1.690,-0.105,133.333,105.556,405.556,566.667,2.778,N
91,-0.190,1.040,0.970,61.111,97.222,288.889,388.889,177.778,V
92,0.075,1.715,-0.320,138.889,97.222,347.222,730.556,341.667,N
93,-0.035,1.585,-0.320,130.556,108.333,366.667,566.667,163.889,N
94,0.025,1.690,-0.240,138.889,91.667,361.111,580.556,13.889,N
95,0.150,1.570,0.015,58.333,91.667,319.444,475.000,105.556,V
96,0.110,1.760,-0.115,133.333,97.222,380.556,652.778,177.778,N
97,0.170,1.865,0.765,130.556,105.556,400.000,575.000,77.778,N
98,0.890,-2.200,1.040,38.889,2.778,205.556,391.667,183.333,V
99,0.535,2.170,0.145,147.222,108.333,380.556,741.667,350.000,N
100,0.255,1.930,0.050,155.556,97.222,386.111,586.111,155.556,N
101,0.270,1.980,-0.010,155.556,105.556,341.667,566.667,19.444,N
102,0.155,1.910,-0.140,125.000,100.000,341.667,575.000,8.333,N
103,0.105,1.935,-0.040,102.778,83.333,372.222,563.889,11.111,N
104,0.195,2.015,0.195,116.667,94.444,391.667,569.444,5.556,N
105,0.075,1.125,1.240,47.222,75.000,277.778,372.222,197.222,V
106,0.280,2.035,0.025,133.333,111.111,391.667,763.889,391.667,N
107,1.585,-1.655,0.460,41.667,2.778,238.889,527.778,236.111,V
108,0.410,2.010,-0.020,138.889,94.444,358.333,616.667,88.889,N
109,0.295,1.990,1.065,133.333,83.333,391.667,569.444,47.222,N
110,1.065,-2.335,1.115,38.889,2.778,213.889,380.556,188.889,V
111,0.245,2.000,0.005,147.222,113.889,405.556,747.222,366.667,N
112,0.800,-2.375,1.220,36.111,2.778,213.889,422.222,325.000,V
113,0.195,1.895,-0.160,138.889,88.889,386.111,722.222,300.000,N
114,0.140,1.835,-0.250,122.222,91.667,305.556,569.444,152.778,N
115,0.150,1.800,-0.090,133.333,102.778,386.111,572.222,2.778,N
116,0.210,1.815,-0.255,150.000,94.444,327.778,575.000,2.778,N
117,0.025,1.730,-0.295,136.111,94.444,327.778,555.556,19.444,N
118,-0.260,1.440,-0.190,58.333,94.444,352.778,450.000,105.556,V
119,-0.015,1.670,-0.250,119.444,100.000,375.000,705.556,255.556,N
120,-0.020,1.625,0.030,138.889,97.222,394.444,569.444,136.111,N
121,0.520,-2.495,0.395,36.111,2.778,202.778,397.222,172.222,V
122,-0.360,1.440,-0.545,136.111,111.111,405.556,722.222,325.000,N
123,1.420,-1.915,-0.320,41.667,2.778,227.778,538.889,183.333,V
124,-0.045,1.705,-0.220,138.889,113.889,366.667,638.889,100.000,N
125,0.165,1.845,0.650,138.889,111.111,402.778,577.778,61.111,N
126,1.225,-1.985,1.205,36.111,2.778,202.778,400.000,177.778,V
127,0.320,1.935,-0.220,136.111,91.667,97.222,733.333,333.333,N
128,-0.110,1.600,-0.430,133.333,88.889,327.778,575.000,158.333,N
129,-0.145,1.565,-0.270,138.889,111.111,405.556,569.444,5.556,N
130,0.800,-2.375,0.870,38.889,5.556,200.000,427.778,141.667,V
131,0.210,1.790,-0.290,138.889,88.889,388.889,738.889,311.111,N
132,-0.005,1.710,-0.290,141.667,94.444,369.444,572.222,166.667,N
133,0.085,1.665,-0.345,130.556,116.667,338.889,555.556,16.667,N
134,0.015,1.570,-0.195,58.333,94.444,350.000,447.222,108.333,V
135,0.315,1.790,-0.060,113.889,100.000,380.556,688.889,241.667,N
136,0.290,1.895,0.375,136.111,77.778,380.556,588.889,100.000,N
137,1.065,-2.280,1.025,41.667,2.778,213.889,402.778,186.111,V
138,0.345,1.835,0.210,105.556,91.667,330.556,711.111,308.333,N
139,0.210,2.205,0.690,155.556,105.556,311.111,447.222,263.889,N
140,0.690,-1.505,0.400,50.000,0.000,202.778,313.889,133.333,V
141,0.185,1.905,-0.255,127.778,111.111,377.778,841.667,527.778,N
142,-0.025,1.600,-0.030,155.556,102.778,369.444,586.111,255.556,N
143,0.220,1.960,0.210,136.111,102.778,336.111,577.778,8.333,N
144,0.520,2.080,0.155,116.667,88.889,336.111,569.444,8.333,N
145,0.310,1.855,0.005,127.778,94.444,369.444,563.889,5.556,N
146,0.310,1.840,0.110,133.333,113.889,405.556,558.333,5.556,N
147,0.400,1.955,0.060,136.111,102.778,383.333,572.222,13.889,N
148,0.330,1.835,0.195,150.000,111.111,377.778,586.111,13.889,N
149,0.480,1.795,0.110,133.333,97.222,352.778,561.111,25.000,N
150,0.235,1.255,-0.800,102.778,97.222,316.667,561.111,0.000,N
151,-0.530,1.370,0.375,136.111,102.778,400.000,558.333,2.778,N
152,-0.605,0.450,0.750,63.889,91.667,300.000,350.000,208.333,V
153,0.240,1.805,-0.145,133.333,94.444,386.111,769.444,419.444,N
154,0.090,1.685,-0.270,138.889,86.111,341.667,563.889,205.556,N
155,-0.060,1.590,-0.370,136.111,108.333,350.000,552.778,11.111,N
156,-0.105,1.625,-0.360,133.333,91.667,375.000,563.889,11.111,N
157,-0.110,1.560,-0.185,130.556,94.444,383.333,555.556,8.333,N
158,-0.670,0.280,0.135,80.556,88.889,291.667,358.333,197.222,V
159,-0.655,1.155,-0.860,130.556,100.000,380.556,744.444,386.111,N
160,-0.545,1.295,-0.675,138.889,102.778,358.333,577.778,166.667,N
161,-0.335,1.490,-0.180,111.111,94.444,388.889,555.556,22.222,N
162,-0.285,1.035,1.100,58.333,102.778,308.333,391.667,163.889,V
163,0.460,2.125,0.175,138.889,100.000,391.667,716.667,325.000,N
164,0.485,2.070,0.175,138.889,102.778,330.556,552.778,163.889,N
165,0.435,2.070,0.035,138.889,113.889,375.000,566.667,13.889,N
166,0.345,1.935,-0.010,141.667,116.667,405.556,563.889,2.778,N
167,0.325,1.990,0.035,136.111,94.444,375.000,561.111,2.778,N
168,0.035,1.185,1.115,58.333,100.000,294.444,394.444,166.667,V
169,0.355,1.960,0.040,138.889,97.222,377.778,725.000,330.556,N
170,0.355,1.945,0.005,130.556,113.889,341.667,552.778,172.222,N
171,0.320,1.945,-0.040,136.111,111.111,355.556,555.556,2.778,N
172,0.270,1.860,-0.075,136.111,105.556,388.889,563.889,8.333,N
173,0.220,1.825,-0.165,130.556,94.444,380.556,563.889,0.000,N
174,0.135,1.730,-0.155,116.667,88.889,383.333,558.333,5.556,N
175,0.135,1.600,0.155,130.556,97.222,391.667,536.111,22.222,N
176,-0.040,1.035,0.910,61.111,94.444,302.778,375.000,161.111,V
177,0.265,1.865,-0.020,136.111,91.667,341.667,733.333,358.333,N
178,0.290,1.825,-0.050,144.444,102.778,363.889,552.778,180.556,N
179,0.240,1.760,-0.250,136.111,108.333,350.000,552.778,0.000,N
180,0.005,1.590,-0.440,138.889,108.333,350.000,566.667,13.889,N
181,-0.120,1.540,-0.430,141.667,108.333,383.333,538.889,27.778,N
182,-0.080,1.640,-0.275,133.333,97.222,350.000,552.778,13.889,N
183,0.060,1.760,-0.145,138.889,113.889,380.556,547.222,5.556,N
184,0.190,1.795,-0.100,141.667,100.000,372.222,561.111,13.889,N
185,0.230,1.835,-0.065,133.333,113.889,386.111,563.889,2.778,N
186,0.250,1.880,-0.050,144.444,102.778,380.556,561.111,2.778,N
187,0.265,1.875,-0.020,138.889,94.444,361.111,555.556,5.556,N
188,0.335,1.930,-0.030,141.667,111.111,388.889,558.333,2.778,N
189,0.295,1.905,-0.005,141.667,102.778,352.778,561.111,2.778,N
190,0.310,1.855,-0.040,141.667,94.444,383.333,550.000,11.111,N
191,0.275,1.850,-0.095,141.667,94.444,347.222,569.444,19.444,N
192,-0.095,1.045,0.985,55.556,97.222,294.444,408.333,161.111,V
193,0.210,1.795,-0.130,136.111,116.667,375.000,716.667,308.333,N
194,0.205,1.770,-0.085,136.111,94.444,358.333,572.222,144.444,N
195,0.270,1.840,-0.065,138.889,108.333,383.333,555.556,16.667,N
196,0.245,1.860,-0.070,150.000,97.222,383.333,580.556,25.000,N
197,0.255,1.855,-0.140,138.889,94.444,341.667,577.778,2.778,N
198,0.165,1.760,-0.215,144.444,97.222,347.222,563.889,13.889,N
199,0.100,1.695,-0.255,133.333,94.444,377.778,563.889,0.000,N
200,1.170,-1.595,-0.125,36.111,2.778,216.667,561.111,2.778,V
201,0.085,1.660,-0.265,141.667,108.333,383.333,583.333,22.222,N
202,0.095,1.700,-0.220,138.889,94.444,386.111,561.111,22.222,N
203,0.120,1.760,-0.220,141.667,102.778,361.111,588.889,27.778,N
204,0.115,1.750,0.605,144.444,111.111,397.222,588.889,0.000,N
205,0.605,-2.380,0.660,36.111,2.778,213.889,380.556,208.333,V
206,-0.040,1.710,-0.160,127.778,116.667,402.778,763.889,383.333,N
207,0.330,1.675,0.370,58.333,94.444,330.556,505.556,258.333,V
208,0.690,2.305,0.540,122.222,100.000,380.556,666.667,161.111,N
209,0.800,2.310,1.000,141.667,102.778,400.000,586.111,80.556,N
210,1.305,-1.715,0.980,38.889,5.556,197.222,397.222,188.889,V
211,-0.050,1.585,-0.480,130.556,102.778,380.556,727.778,330.556,N
212,1.215,-1.685,-0.245,36.111,2.778,225.000,538.889,188.889,V
213,-0.020,1.825,-0.125,138.889,105.556,383.333,627.778,88.889,N
214,0.220,1.910,0.310,144.444,111.111,405.556,572.222,55.556,N
215,-0.030,1.010,1.090,72.222,100.000,311.111,366.667,205.556,V
216,0.285,1.895,0.670,136.111,97.222,386.111,811.111,444.444,N
217,-0.155,0.740,0.965,52.778,102.778,305.556,350.000,461.111,V
218,0.170,1.800,0.650,130.556,111.111,400.000,788.889,438.889,N
219,0.765,-2.145,0.830,38.889,5.556,213.889,391.667,397.222,V
220,0.085,1.570,-0.230,147.222,94.444,386.111,805.556,413.889,N
221,-0.110,1.780,-0.140,58.333,91.667,313.889,461.111,344.444,V
222,0.020,1.615,-0.275,138.889,100.000,383.333,716.667,255.556,N
223,0.010,1.630,0.315,138.889,102.778,397.222,569.444,147.222,N
224,0.775,-2.135,0.785,36.111,0.000,208.333,397.222,172.222,V
225,0.175,1.760,0.035,127.778,80.556,377.778,733.333,336.111,N
226,0.045,2.050,-0.055,75.000,116.667,369.444,427.778,305.556,A
227,0.185,1.660,-0.090,144.444,94.444,383.333,691.667,263.889,N
228,0.255,1.790,0.330,141.667,94.444,386.111,600.000,91.667,N
229,1.170,-1.700,1.065,36.111,5.556,211.111,416.667,183.333,V
230,0.410,1.850,-0.040,133.333,105.556,388.889,733.333,316.667,N
231,0.280,1.345,-0.090,52.778,83.333,319.444,525.000,208.333,V
232,-0.030,1.430,-0.485,144.444,102.778,394.444,647.222,122.222,N
233,0.300,-2.415,0.410,36.111,2.778,208.333,416.667,230.556,V
234,-0.250,1.400,-0.365,138.889,94.444,383.333,727.778,311.111,N
235,-0.485,0.550,0.545,61.111,97.222,300.000,383.333,344.444,V
236,-0.055,1.580,-0.360,141.667,100.000,391.667,758.333,375.000,N
237,-0.025,1.610,-0.375,136.111,108.333,352.778,577.778,180.556,N
238,-0.060,1.595,-0.355,144.444,97.222,355.556,586.111,8.333,N
239,-0.220,1.650,-0.220,58.333,94.444,325.000,447.222,138.889,V
240,0.030,1.680,-0.320,138.889,111.111,386.111,702.778,255.556,N
241,-0.005,1.615,0.535,138.889,100.000,383.333,586.111,116.667,N
242,0.535,-2.350,0.730,41.667,2.778,202.778,383.333,202.778,V
243,0.010,1.645,0.215,136.111,105.556,400.000,761.111,377.778,N
244,-0.385,0.495,0.775,58.333,111.111,330.556,358.333,402.778,V
245,0.045,1.690,-0.185,144.444,100.000,388.889,827.778,469.444,N
246,0.605,-2.305,0.850,36.111,5.556,194.444,422.222,405.556,V
247,0.115,1.735,-0.255,138.889,113.889,383.333,736.111,313.889,N
248,-0.120,1.760,-0.070,58.333,91.667,322.222,458.333,277.778,V
249,0.105,1.785,-0.295,147.222,97.222,380.556,719.444,261.111,N
250,-0.020,1.630,-0.085,141.667,91.667,386.111,602.778,116.667,N
251,-0.325,0.825,0.800,61.111,100.000,311.111,375.000,227.778,V
252,0.135,1.840,0.350,138.889,94.444,386.111,794.444,419.444,N
253,0.690,-2.300,0.955,38.889,5.556,211.111,400.000,394.444,V
254,0.265,1.890,-0.035,138.889,108.333,402.778,769.444,369.444,N
255,0.740,-2.285,1.000,38.889,2.778,213.889,422.222,347.222,V
256,0.250,1.865,-0.105,136.111,94.444,377.778,772.222,350.000,N
257,0.035,1.870,0.715,58.333,91.667,394.444,458.333,313.889,V
258,0.715,-2.345,0.965,41.667,0.000,200.000,377.778,80.556,V
259,0.110,1.795,-0.210,136.111,111.111,402.778,883.333,505.556,N
260,-0.180,1.510,-0.200,58.333,91.667,130.556,413.889,469.444,V
261,-0.020,1.645,-0.290,138.889,97.222,375.000,769.444,355.556,N
262,0.035,1.675,0.165,141.667,94.444,386.111,602.778,166.667,N
263,0.805,-2.395,0.875,36.111,0.000,200.000,402.778,200.000,V
264,0.145,1.785,0.230,136.111,94.444,386.111,766.667,363.889,N
265,0.715,-2.320,0.925,38.889,5.556,216.667,405.556,361.111,V
266,0.125,1.745,-0.315,147.222,97.222,358.333,780.556,375.000,N
267,0.030,1.670,0.260,141.667,91.667,383.333,611.111,169.444,N
268,0.790,-2.375,0.750,38.889,2.778,208.333,400.000,211.111,V
269,0.025,1.700,-0.055,130.556,100.000,391.667,763.889,363.889,N
270,0.630,-2.395,0.770,41.667,5.556,213.889,416.667,347.222,V
271,0.080,1.735,0.015,144.444,100.000,327.778,769.444,352.778,N
272,0.530,-2.265,0.475,38.889,5.556,208.333,411.111,358.333,V
273,0.035,1.710,-0.275,136.111,94.444,386.111,700.000,288.889,N
274,0.035,1.650,-0.115,144.444,102.778,394.444,611.111,88.889,N
275,0.815,-2.320,0.800,36.111,2.778,205.556,413.889,197.222,V
276,0.065,1.650,-0.315,133.333,97.222,383.333,741.667,327.778,N
277,1.265,-1.735,-0.120,36.111,2.778,211.111,538.889,202.778,V
278,0.030,1.625,-0.320,150.000,113.889,377.778,652.778,113.889,N
279,0.005,1.575,0.685,141.667,111.111,400.000,602.778,50.000,N
280,0.685,-2.490,0.725,36.111,5.556,200.000,383.333,219.444,V
281,-0.045,1.610,-0.030,138.889,111.111,405.556,775.000,391.667,N
282,0.510,-2.515,0.655,41.667,5.556,208.333,408.333,366.667,V
283,0.010,1.690,-0.080,138.889,108.333,402.778,786.111,377.778,N
284,0.605,-2.350,0.735,38.889,5.556,222.222,411.111,375.000,V
285,0.040,1.730,-0.230,144.444,100.000,386.111,772.222,361.111,N
286,-0.070,1.735,0.015,58.333,91.667,305.556,469.444,302.778,V
287,0.255,1.890,-0.025,141.667,108.333,380.556,722.222,252.778,N
288,0.300,1.810,0.345,133.333,113.889,405.556,583.333,138.889,N
289,0.920,-2.155,0.965,38.889,5.556,202.778,405.556,177.778,V
290,0.165,1.705,-0.170,147.222,102.778,380.556,802.778,397.222,N
291,0.735,-1.920,0.535,38.889,2.778,300.000,594.444,208.333,F
292,0.535,-2.405,0.675,44.444,0.000,202.778,344.444,250.000,V
293,0.045,1.620,-0.355,138.889,108.333,391.667,827.778,483.333,N
294,-0.035,1.570,-0.325,141.667,97.222,347.222,591.667,236.111,N
295,-0.005,1.630,0.225,141.667,100.000,394.444,575.000,16.667,N
296,0.570,-2.245,0.695,38.889,5.556,202.778,400.000,175.000,V
297,0.035,1.685,-0.330,141.667,102.778,380.556,763.889,363.889,N
298,-0.035,1.625,-0.060,136.111,86.111,402.778,577.778,186.111,N
299,0.510,-2.285,0.730,44.444,0.000,205.556,413.889,163.889,V
300,0.080,1.720,-0.185,119.444,97.222,355.556,727.778,313.889,N
301,0.155,1.790,-0.050,147.222,97.222,388.889,602.778,125.000,N
302,0.945,-2.180,0.810,41.667,5.556,208.333,427.778,175.000,V
303,0.095,1.680,0.410,138.889,94.444,386.111,744.444,316.667,N
304,0.550,-2.290,0.720,41.667,2.778,208.333,397.222,347.222,V
305,0.040,1.655,-0.300,133.333,108.333,377.778,752.778,355.556,N
306,0.025,1.610,-0.350,147.222,113.889,347.222,600.000,152.778,N
307,-0.045,1.500,-0.380,138.889,113.889,377.778,566.667,33.333,N
308,-0.075,1.565,-0.380,138.889,91.667,341.667,586.111,19.444,N
309,-0.080,1.520,-0.300,141.667,94.444,347.222,594.444,8.333,N
310,0.015,1.600,0.335,119.444,102.778,394.444,572.222,22.222,N
311,0.780,-2.030,0.785,41.667,2.778,200.000,402.778,169.444,V
312,0.145,1.710,-0.095,138.889,102.778,386.111,727.778,325.000,N
313,1.445,-1.390,0.070,36.111,2.778,236.111,538.889,188.889,V
314,0.180,1.715,-0.185,136.111,94.444,347.222,622.222,83.333,N
315,0.100,1.665,-0.225,144.444,97.222,363.889,580.556,41.667,N
316,0.070,1.660,-0.270,136.111,97.222,355.556,555.556,25.000,N
317,-0.120,1.565,-0.170,58.333,94.444,316.667,447.222,108.333,V
318,0.015,1.600,-0.280,138.889,91.667,383.333,691.667,244.444,N
319,-0.015,1.540,-0.305,144.444,102.778,358.333,561.111,130.556,N
320,-0.025,1.605,0.430,138.889,94.444,386.111,575.000,13.889,N
321,-0.350,0.565,0.685,58.333,105.556,311.111,352.778,222.222,V
322,0.050,1.595,-0.330,133.333,94.444,377.778,577.778,225.000,N
323,0.010,1.635,-0.220,130.556,100.000,375.000,672.222,94.444,N
324,0.105,1.695,-0.185,138.889,94.444,386.111,577.778,94.444,N
325,0.110,1.750,-0.180,147.222,97.222,347.222,583.333,5.556,N
326,0.150,1.745,-0.165,138.889,111.111,377.778,583.333,0.000,N
327,0.150,1.730,0.540,147.222,100.000,388.889,577.778,5.556,N
328,0.765,-2.195,0.860,36.111,2.778,200.000,391.667,186.111,V
329,0.175,1.775,-0.165,136.111,100.000,372.222,730.556,338.889,N
330,-0.155,1.005,0.940,75.000,105.556,313.889,438.889,291.667,V
331,0.140,1.715,-0.290,144.444,100.000,386.111,711.111,272.222,N
332,0.040,1.660,0.095,144.444,94.444,386.111,594.444,116.667,N
333,0.775,-2.235,0.825,36.111,2.778,211.111,405.556,188.889,V
334,0.130,1.750,0.085,138.889,102.778,397.222,744.444,338.889,N
335,0.610,-2.365,0.825,38.889,5.556,205.556,408.333,336.111,V
336,0.145,1.760,-0.225,141.667,94.444,380.556,744.444,336.111,N
337,0.095,1.645,0.565,130.556,86.111,400.000,580.556,163.889,N
338,0.565,-2.350,0.845,44.444,2.778,211.111,386.111,194.444,V
339,0.125,1.705,-0.240,138.889,113.889,380.556,786.111,400.000,N
340,1.390,-1.575,-0.095,33.333,2.778,213.889,519.444,266.667,V
341,0.030,1.690,-0.275,116.667,97.222,355.556,627.778,108.333,N
342,0.025,1.625,-0.215,138.889,111.111,388.889,586.111,41.667,N
343,0.070,1.645,-0.240,144.444,113.889,405.556,572.222,13.889,N
344,-0.025,1.540,-0.120,58.333,91.667,313.889,469.444,102.778,V
345,0.095,1.725,-0.130,138.889,91.667,372.222,683.333,213.889,N
346,0.175,1.785,-0.060,138.889,108.333,386.111,569.444,113.889,N
347,0.260,1.795,-0.075,138.889,108.333,383.333,569.444,0.000,N
348,1.550,-1.420,-0.145,38.889,2.778,219.444,508.333,61.111,V
349,-0.140,1.490,-0.505,150.000,108.333,380.556,655.556,147.222,N
350,-0.200,1.485,0.005,138.889,116.667,405.556,583.333,72.222,N
351,0.635,-2.275,0.725,36.111,0.000,211.111,402.778,180.556,V
352,0.060,1.770,0.075,136.111,100.000,391.667,744.444,341.667,N
353,0.590,-2.065,0.700,41.667,5.556,194.444,411.111,333.333,V
354,0.210,1.795,-0.095,136.111,116.667,380.556,697.222,286.111,N
355,0.195,1.620,-0.110,141.667,113.889,380.556,597.222,100.000,N
356,0.180,1.480,-0.090,144.444,105.556,386.111,588.889,8.333,N
357,0.180,1.445,-0.035,127.778,111.111,363.889,600.000,11.111,N
358,0.245,1.410,0.020,138.889,111.111,391.667,580.556,19.444,N
359,0.280,1.415,0.050,141.667,116.667,405.556,575.000,5.556,N
360,0.325,1.515,0.065,136.111,116.667,388.889,586.111,11.111,N
361,0.325,1.520,0.050,130.556,111.111,383.333,597.222,11.111,N
362,0.325,1.640,0.035,144.444,113.889,377.778,577.778,19.444,N
363,0.325,1.795,0.650,133.333,86.111,350.000,566.667,11.111,N
364,-0.160,0.640,1.005,197.222,108.333,319.444,294.444,272.222,V
365,0.060,1.575,-0.405,136.111,102.778,391.667,858.333,563.889,N
366,-0.250,1.365,-0.305,58.333,91.667,305.556,469.444,388.889,V
367,-0.125,1.535,-0.365,141.667,113.889,394.444,708.333,238.889,N
368,0.000,1.675,0.060,141.667,113.889,405.556,600.000,108.333,N
369,0.830,-2.300,0.955,36.111,2.778,208.333,408.333,191.667,V
370,0.265,1.885,0.790,133.333,100.000,394.444,761.111,352.778,N
371,0.790,-2.090,1.010,38.889,8.333,216.667,388.889,372.222,V
372,0.270,1.895,0.490,116.667,97.222,388.889,791.667,402.778,N
373,1.010,-1.990,1.285,44.444,8.333,225.000,416.667,375.000,V
374,0.580,2.015,0.240,130.556,116.667,402.778,783.333,366.667,N
375,0.510,1.890,0.145,136.111,116.667,344.444,586.111,197.222,N
376,0.395,1.735,0.005,133.333,97.222,338.889,577.778,8.333,N
377,0.280,1.535,-0.150,144.444,100.000,358.333,600.000,22.222,N
378,0.065,1.390,-0.305,141.667,108.333,358.333,583.333,16.667,N
379,-0.050,1.350,-0.380,147.222,97.222,383.333,588.889,5.556,N
380,-0.110,1.345,-0.390,144.444,100.000,383.333,602.778,13.889,N
381,-0.090,1.395,-0.355,138.889,97.222,380.556,569.444,33.333,N
382,0.060,1.220,-0.200,58.333,97.222,338.889,494.444,75.000,V
383,0.350,-2.395,0.655,44.444,2.778,205.556,427.778,66.667,V
384,0.000,1.575,-0.315,141.667,111.111,375.000,825.000,397.222,N
385,0.025,1.540,-0.295,138.889,86.111,363.889,602.778,222.222,N
386,0.045,1.385,-0.050,58.333,100.000,319.444,491.667,111.111,V
387,0.670,-1.865,0.035,41.667,0.000,230.556,658.333,166.667,F
388,0.050,1.700,-0.080,138.889,105.556,394.444,575.000,83.333,N
389,0.910,-2.055,0.975,36.111,5.556,208.333,419.444,155.556,V
390,0.335,2.255,-0.065,130.556,88.889,369.444,730.556,311.111,F
391,0.265,1.755,-0.110,144.444,116.667,372.222,600.000,130.556,N
392,0.195,1.730,-0.140,138.889,97.222,380.556,586.111,13.889,N
393,0.125,1.585,-0.145,141.667,100.000,330.556,586.111,0.000,N
394,0.230,1.285,0.040,58.333,97.222,322.222,494.444,91.667,V
395,0.520,-1.960,0.700,47.222,2.778,205.556,452.778,41.667,V
396,0.145,1.510,-0.130,141.667,113.889,386.111,800.000,347.222,N
397,0.135,1.470,-0.135,136.111,97.222,358.333,583.333,216.667,N
398,0.135,1.500,-0.130,138.889,111.111,352.778,583.333,0.000,N
399,0.140,1.490,-0.125,136.111,108.333,350.000,575.000,8.333,N
400,0.150,1.540,-0.080,144.444,94.444,380.556,583.333,8.333,N
401,0.200,1.600,-0.025,138.889,108.333,383.333,575.000,8.333,N
402,0.255,1.645,-0.020,138.889,94.444,383.333,580.556,5.556,N
403,0.265,1.685,-0.060,144.444,105.556,338.889,588.889,8.333,N
404,0.035,1.650,0.020,58.333,91.667,319.444,433.333,155.556,V
405,0.835,-2.325,0.645,38.889,2.778,222.222,669.444,236.111,V
406,0.160,1.635,-0.200,138.889,94.444,380.556,611.111,58.333,N
407,0.100,1.630,-0.190,144.444,113.889,386.111,586.111,25.000,N
408,0.075,1.615,-0.235,138.889,100.000,347.222,586.111,0.000,N
409,0.070,1.670,0.475,138.889,86.111,388.889,569.444,16.667,N
410,0.475,-2.250,0.680,44.444,2.778,202.778,375.000,194.444,V
411,0.070,1.600,-0.250,127.778,100.000,386.111,755.556,380.556,N
412,0.065,1.575,-0.255,141.667,97.222,369.444,588.889,166.667,N
413,0.065,1.590,-0.250,147.222,116.667,402.778,572.222,16.667,N
414,0.045,1.575,-0.285,147.222,116.667,347.222,594.444,22.222,N
415,0.025,1.610,-0.295,141.667,113.889,350.000,594.444,0.000,N
416,0.035,1.605,-0.245,138.889,102.778,369.444,566.667,27.778,N
417,0.090,1.645,0.715,141.667,94.444,388.889,575.000,8.333,N
418,0.715,-2.205,0.795,38.889,5.556,202.778,386.111,188.889,V
419,0.075,1.670,-0.275,144.444,113.889,377.778,777.778,391.667,N
420,-0.065,1.600,-0.040,58.333,91.667,311.111,477.778,300.000,V
421,0.155,1.725,-0.135,144.444,100.000,386.111,700.000,222.222,N
422,0.170,1.690,0.770,144.444,100.000,391.667,572.222,127.778,N
423,0.800,-2.160,0.860,38.889,0.000,205.556,388.889,183.333,V
424,0.115,1.665,0.465,130.556,108.333,402.778,752.778,363.889,N
425,0.505,-2.265,0.750,38.889,8.333,211.111,391.667,361.111,V
426,0.080,1.515,-0.225,144.444,116.667,402.778,786.111,394.444,N
427,0.095,1.485,-0.175,136.111,105.556,350.000,588.889,197.222,N
428,0.125,1.505,-0.130,144.444,108.333,372.222,583.333,5.556,N
429,0.170,1.620,-0.090,141.667,102.778,383.333,575.000,8.333,N
430,0.220,1.610,-0.065,150.000,97.222,355.556,594.444,19.444,N
431,0.215,1.635,-0.015,141.667,100.000,352.778,602.778,8.333,N
432,0.280,1.680,-0.020,138.889,105.556,386.111,577.778,25.000,N
433,0.260,1.720,-0.005,136.111,116.667,347.222,586.111,8.333,N
434,0.240,1.655,-0.060,141.667,91.667,361.111,588.889,2.778,N
435,0.190,1.625,-0.150,144.444,108.333,380.556,591.667,2.778,N
436,0.120,1.640,-0.075,136.111,111.111,391.667,566.667,25.000,N
437,0.210,1.665,-0.035,136.111,105.556,383.333,597.222,30.556,N
438,0.220,1.715,-0.055,150.000,91.667,372.222,602.778,5.556,N
439,0.230,1.660,-0.115,138.889,102.778,375.000,572.222,30.556,N
440,0.165,1.620,0.505,138.889,97.222,386.111,575.000,2.778,N
441,0.775,-2.050,0.755,38.889,2.778,213.889,394.444,180.556,V
442,0.125,1.590,-0.210,144.444,116.667,380.556,766.667,372.222,N
443,1.115,-1.550,-0.045,33.333,2.778,216.667,575.000,191.667,F
444,0.070,1.620,-0.220,144.444,102.778,355.556,605.556,30.556,N
445,0.065,1.600,-0.200,133.333,105.556,352.778,569.444,36.111,N
446,0.110,1.615,-0.245,141.667,111.111,352.778,580.556,11.111,N
447,-0.095,1.505,0.470,58.333,91.667,372.222,452.778,127.778,V
448,0.470,-2.415,0.820,41.667,0.000,213.889,355.556,97.222,V
449,0.025,1.540,-0.265,133.333,97.222,388.889,913.889,558.333,N
450,-0.140,1.370,-0.135,58.333,91.667,305.556,458.333,455.556,V
451,0.020,1.525,-0.275,144.444,100.000,386.111,736.111,277.778,N
452,0.025,1.515,-0.215,133.333,111.111,386.111,583.333,152.778,N
453,0.090,1.495,-0.215,147.222,100.000,386.111,580.556,2.778,N
454,0.070,1.490,-0.225,150.000,100.000,383.333,605.556,25.000,N
455,0.060,1.525,0.285,138.889,97.222,386.111,594.444,11.111,N
456,0.455,-2.160,0.720,44.444,2.778,205.556,405.556,188.889,V
457,0.060,1.570,-0.300,141.667,100.000,383.333,763.889,358.333,N
458,0.005,1.425,0.370,138.889,88.889,383.333,591.667,172.222,N
459,0.370,-2.325,0.755,44.444,2.778,202.778,369.444,222.222,V
460,0.050,1.590,-0.260,133.333,102.778,380.556,813.889,444.444,N
461,0.130,1.675,-0.195,141.667,102.778,372.222,605.556,208.333,N
462,0.130,1.745,-0.200,138.889,100.000,377.778,597.222,8.333,N
463,0.125,1.765,-0.180,138.889,102.778,386.111,594.444,2.778,N
464,0.150,1.735,0.585,141.667,108.333,400.000,575.000,19.444,N
465,0.740,-2.165,0.805,41.667,2.778,213.889,394.444,180.556,V
466,0.140,1.705,-0.150,138.889,97.222,380.556,797.222,402.778,N
467,0.160,1.690,-0.145,141.667,100.000,352.778,597.222,200.000,N
468,0.165,1.755,-0.120,133.333,105.556,383.333,580.556,16.667,N
469,0.190,1.795,-0.105,138.889,100.000,375.000,591.667,11.111,N
470,0.190,1.730,0.570,147.222,100.000,388.889,591.667,0.000,N
471,0.855,-2.180,0.935,36.111,2.778,213.889,394.444,197.222,V
472,0.200,1.720,-0.150,138.889,97.222,377.778,777.778,383.333,N
473,0.180,1.750,-0.305,136.111,80.556,97.222,605.556,172.222,N
474,-0.075,1.455,-0.530,119.444,102.778,352.778,594.444,11.111,N
475,-0.140,1.560,-0.365,141.667,113.889,369.444,588.889,5.556,N
476,-0.035,1.630,-0.275,150.000,94.444,377.778,586.111,2.778,N
477,0.025,1.640,-0.095,147.222,97.222,388.889,591.667,5.556,N
478,0.785,-2.265,0.800,36.111,2.778,213.889,416.667,175.000,V
479,0.080,1.670,-0.295,136.111,105.556,383.333,763.889,347.222,N
480,0.040,1.645,-0.265,144.444,97.222,366.667,583.333,180.556,N
481,0.035,1.720,0.185,141.667,108.333,402.778,583.333,0.000,N
482,-0.270,0.715,0.780,61.111,102.778,308.333,363.889,219.444,V
483,0.110,1.760,-0.170,141.667,100.000,383.333,822.222,458.333,N
484,-0.025,1.705,-0.040,58.333,91.667,319.444,458.333,363.889,V
485,0.155,1.775,-0.175,136.111,108.333,405.556,725.000,266.667,N
486,0.165,1.770,-0.175,138.889,111.111,383.333,594.444,130.556,N
487,0.110,1.790,-0.155,138.889,94.444,383.333,583.333,11.111,N
488,0.160,0.860,-0.070,111.111,69.444,319.444,561.111,22.222,F
489,0.200,1.785,-0.085,150.000,97.222,350.000,638.889,77.778,N
490,0.245,1.810,-0.060,141.667,108.333,380.556,586.111,52.778,N
491,0.265,1.835,-0.025,133.333,100.000,377.778,588.889,2.778,N
492,0.280,1.850,0.920,141.667,97.222,386.111,594.444,5.556,N
493,0.920,-2.100,0.940,38.889,5.556,219.444,386.111,208.333,V
494,0.245,1.835,-0.110,141.667,100.000,391.667,783.333,397.222,N
495,0.225,1.775,-0.095,144.444,111.111,355.556,613.889,169.444,N
496,0.240,1.790,0.750,152.778,97.222,388.889,619.444,5.556,N
497,0.820,-2.210,0.915,38.889,8.333,219.444,388.889,230.556,V
498,0.215,1.820,-0.075,136.111,111.111,388.889,791.667,402.778,N
499,-0.015,1.630,0.060,66.667,94.444,322.222,436.111,355.556,V
500,0.190,1.665,0.060,150.000,88.889,383.333,772.222,336.111,N
501,0.495,1.885,0.120,122.222,113.889,391.667,611.111,161.111,N
502,0.415,1.990,0.275,113.889,108.333,358.333,602.778,8.333,N
503,0.515,1.880,0.135,138.889,86.111,333.333,580.556,22.222,N
504,0.455,1.795,0.500,144.444,108.333,402.778,580.556,0.000,N
505,0.950,-2.125,0.975,38.889,5.556,211.111,402.778,177.778,V
506,0.360,1.790,-0.010,136.111,111.111,380.556,775.000,372.222,N
507,0.245,1.650,-0.055,138.889,108.333,361.111,600.000,175.000,N
508,0.270,1.720,-0.120,125.000,102.778,322.222,591.667,8.333,N
509,0.150,1.480,-0.320,138.889,108.333,366.667,586.111,5.556,N
510,0.000,1.470,0.295,133.333,102.778,394.444,580.556,5.556,N
511,0.465,-2.320,0.665,38.889,8.333,216.667,394.444,186.111,V
512,-0.120,1.295,-0.460,141.667,116.667,405.556,797.222,402.778,N
513,-0.125,1.355,-0.445,138.889,113.889,377.778,588.889,208.333,N
514,-0.125,1.445,0.275,138.889,97.222,388.889,586.111,2.778,N
515,-0.465,0.425,0.620,58.333,102.778,319.444,352.778,233.333,V
516,-0.100,1.460,-0.435,138.889,105.556,383.333,822.222,469.444,N
517,-0.105,1.515,-0.215,138.889,97.222,383.333,591.667,230.556,N
518,0.130,1.700,0.160,136.111,97.222,386.111,597.222,5.556,N
519,0.895,-2.070,0.980,38.889,5.556,230.556,416.667,180.556,V
520,0.255,1.640,-0.175,136.111,105.556,383.333,763.889,347.222,N
521,0.095,1.555,-0.315,138.889,108.333,325.000,600.000,163.889,N
522,-0.065,1.415,-0.260,141.667,100.000,388.889,583.333,16.667,N
523,0.370,-2.500,0.440,38.889,8.333,227.778,413.889,169.444,V
524,-0.270,1.265,-0.510,127.778,111.111,400.000,794.444,380.556,N
525,-0.390,0.995,-0.355,58.333,91.667,319.444,425.000,369.444,V
526,-0.100,1.105,0.000,138.889,113.889,405.556,752.778,327.778,N
527,0.035,-2.040,0.595,50.000,2.778,225.000,402.778,350.000,V
528,-0.045,0.735,-0.300,125.000,111.111,400.000,791.667,388.889,N
529,-0.080,0.580,-0.240,58.333,105.556,330.556,463.889,327.778,V
530,-0.100,0.465,-0.320,125.000,116.667,116.667,763.889,300.000,N
531,-0.145,0.590,-0.360,127.778,116.667,388.889,611.111,152.778,N
532,-0.110,0.845,-0.285,138.889,116.667,383.333,605.556,5.556,N
533,-0.005,1.100,-0.245,127.778,113.889,394.444,586.111,19.444,N
534,-0.005,1.310,-0.185,147.222,116.667,405.556,611.111,25.000,N
535,-0.330,0.510,0.705,77.778,105.556,308.333,377.778,233.333,V
536,-0.020,1.610,-0.275,144.444,113.889,400.000,841.667,463.889,N
537,0.035,1.645,-0.260,125.000,100.000,355.556,594.444,247.222,N
538,0.030,1.585,0.040,141.667,105.556,394.444,594.444,0.000,N
539,-0.280,0.655,0.755,75.000,105.556,311.111,369.444,225.000,V
540,0.025,1.635,-0.315,144.444,111.111,375.000,827.778,458.333,N
541,-0.205,1.540,-0.225,58.333,94.444,322.222,433.333,394.444,V
542,-0.005,1.600,0.365,130.556,113.889,402.778,786.111,352.778,N
543,-0.455,0.375,0.555,58.333,105.556,322.222,350.000,436.111,V
544,0.055,1.740,-0.125,133.333,108.333,386.111,827.778,477.778,N
545,0.060,1.740,0.095,58.333,94.444,325.000,458.333,369.444,V
546,0.295,1.780,-0.105,147.222,97.222,388.889,752.778,294.444,N
547,0.190,1.665,-0.215,147.222,113.889,372.222,600.000,152.778,N
548,0.075,1.615,-0.265,130.556,113.889,402.778,588.889,11.111,N
549,0.055,1.615,-0.305,138.889,108.333,391.667,591.667,2.778,N
550,0.000,1.610,0.370,147.222,102.778,391.667,600.000,8.333,N
551,0.610,-2.330,0.755,38.889,2.778,213.889,394.444,205.556,V
552,0.030,1.555,-0.365,136.111,116.667,405.556,791.667,397.222,N
553,-0.055,1.495,-0.395,138.889,100.000,352.778,613.889,177.778,N
554,-0.065,1.515,0.175,141.667,100.000,388.889,591.667,22.222,N
555,-0.405,0.505,0.645,58.333,102.778,311.111,358.333,233.333,V
556,-0.075,1.500,-0.560,141.667,116.667,405.556,830.556,472.222,N
557,-0.350,1.150,-0.715,150.000,97.222,366.667,625.000,205.556,N
558,-0.305,1.390,-0.055,136.111,105.556,394.444,591.667,33.333,N
559,-0.415,0.470,0.630,58.333,105.556,311.111,366.667,225.000,V
560,0.085,1.660,-0.125,138.889,113.889,405.556,788.889,422.222,N
561,0.200,1.805,-0.110,141.667,111.111,383.333,588.889,200.000,N
562,0.230,1.875,0.440,136.111,97.222,391.667,588.889,0.000,N
563,-0.055,0.980,0.915,58.333,105.556,322.222,363.889,225.000,V
564,0.320,1.930,0.015,138.889,116.667,400.000,827.778,463.889,N
565,0.350,1.935,0.005,136.111,113.889,375.000,594.444,233.333,N
566,0.330,1.940,0.710,138.889,116.667,405.556,591.667,2.778,N
567,-0.065,0.895,1.000,58.333,105.556,308.333,352.778,238.889,V
568,0.245,1.875,-0.085,138.889,100.000,383.333,830.556,477.778,N
569,0.255,1.815,-0.140,144.444,116.667,347.222,622.222,208.333,N
570,0.175,1.720,0.285,147.222,113.889,402.778,600.000,22.222,N
571,0.775,-2.205,0.860,36.111,5.556,200.000,400.000,200.000,V
572,0.185,1.765,-0.075,127.778,94.444,383.333,777.778,377.778,N
573,0.280,1.840,-0.010,136.111,94.444,341.667,608.333,169.444,N
574,0.305,1.855,0.465,152.778,100.000,388.889,597.222,11.111,N
575,0.870,-2.025,1.020,38.889,5.556,227.778,402.778,194.444,V
576,0.370,1.900,0.010,136.111,108.333,380.556,808.333,405.556,N
577,0.350,1.850,0.005,141.667,113.889,375.000,608.333,200.000,N
578,0.320,1.885,0.005,136.111,97.222,380.556,586.111,22.222,N
579,1.690,-1.335,0.090,38.889,2.778,238.889,530.556,55.556,V
580,0.295,1.795,-0.045,150.000,102.778,372.222,680.556,150.000,N
581,0.280,1.730,-0.070,144.444,113.889,383.333,600.000,80.556,N
582,0.265,1.810,-0.050,130.556,108.333,355.556,588.889,11.111,N
583,1.705,-1.360,0.075,38.889,2.778,213.889,519.444,69.444,V
584,0.275,1.790,-0.040,141.667,111.111,400.000,658.333,138.889,N
585,0.295,2.015,-0.160,58.333,116.667,377.778,441.667,216.667,V
586,-0.155,0.815,1.100,72.222,102.778,313.889,425.000,16.667,V
587,0.165,1.745,-0.160,136.111,100.000,380.556,922.222,497.222,N
588,0.200,1.720,-0.140,138.889,108.333,383.333,608.333,313.889,N
589,0.175,1.680,-0.160,141.667,102.778,380.556,588.889,19.444,N
590,0.135,1.540,-0.165,144.444,102.778,388.889,594.444,5.556,N
591,0.125,1.565,0.085,144.444,108.333,397.222,611.111,16.667,N
592,0.660,-2.240,0.820,38.889,5.556,211.111,408.333,202.778,V
593,0.170,1.760,-0.180,136.111,97.222,372.222,791.667,383.333,N
594,0.145,1.630,-0.215,144.444,97.222,372.222,597.222,194.444,N
595,0.100,1.620,0.195,147.222,105.556,397.222,608.333,11.111,N
596,0.575,-2.270,0.725,38.889,5.556,200.000,400.000,208.333,V
597,0.065,1.545,-0.260,138.889,116.667,380.556,805.556,405.556,N
598,0.070,1.590,-0.245,147.222,97.222,344.444,625.000,180.556,N
599,0.110,1.605,0.320,141.667,116.667,405.556,608.333,16.667,N
600,0.695,-2.170,0.740,38.889,5.556,222.222,400.000,208.333,V
601,0.065,1.550,-0.245,133.333,108.333,386.111,797.222,397.222,N
602,0.045,1.515,-0.225,144.444,97.222,355.556,608.333,188.889,N
603,0.070,1.660,-0.145,141.667,75.000,380.556,611.111,2.778,N
604,0.150,1.695,-0.160,147.222,97.222,341.667,608.333,2.778,N
605,0.155,1.705,0.350,138.889,116.667,405.556,580.556,27.778,N
606,0.760,-2.030,0.815,38.889,5.556,213.889,400.000,180.556,V
607,0.240,1.785,0.000,130.556,94.444,380.556,780.556,380.556,N
608,0.315,1.800,-0.020,144.444,100.000,341.667,602.778,177.778,N
609,0.280,1.795,0.200,144.444,97.222,388.889,594.444,8.333,N
610,0.855,-1.975,0.850,41.667,5.556,216.667,413.889,180.556,V
611,0.225,1.675,-0.100,136.111,97.222,377.778,786.111,372.222,N
612,0.185,1.615,-0.130,138.889,94.444,383.333,594.444,191.667,N
613,0.150,1.530,-0.110,138.889,97.222,386.111,588.889,5.556,N
614,0.615,-2.140,0.670,36.111,5.556,230.556,419.444,169.444,V
615,0.000,1.455,-0.295,138.889,102.778,377.778,794.444,375.000,N
616,0.020,1.465,-0.245,136.111,100.000,386.111,611.111,183.333,N
617,0.020,1.440,0.235,136.111,88.889,383.333,583.333,27.778,N
618,0.570,-2.185,0.555,38.889,5.556,225.000,397.222,186.111,V
619,-0.060,1.305,-0.340,136.111,94.444,383.333,769.444,372.222,N
620,-0.025,1.320,-0.285,138.889,97.222,386.111,600.000,169.444,N
621,-0.010,1.380,0.360,141.667,94.444,386.111,608.333,8.333,N
622,0.500,-2.125,0.570,41.667,5.556,219.444,394.444,213.889,V
623,0.005,1.395,-0.325,138.889,94.444,358.333,777.778,383.333,N
624,-0.050,1.315,-0.315,138.889,94.444,358.333,586.111,191.667,N
625,-0.010,1.315,-0.180,144.444,116.667,405.556,600.000,13.889,N
626,0.600,-2.040,0.530,41.667,5.556,205.556,425.000,175.000,V
627,-0.040,1.420,-0.300,138.889,97.222,380.556,750.000,325.000,N
628,-0.025,1.475,-0.240,136.111,100.000,377.778,575.000,175.000,N
629,0.055,1.475,0.250,138.889,105.556,400.000,575.000,0.000,N
630,-0.210,0.620,0.700,58.333,105.556,319.444,361.111,213.889,V
631,0.115,1.540,-0.200,144.444,97.222,372.222,808.333,447.222,N
632,0.120,1.535,-0.185,141.667,116.667,377.778,602.778,205.556,N
633,0.120,1.535,0.345,136.111,108.333,405.556,594.444,8.333,N
634,0.735,-2.065,0.650,38.889,2.778,227.778,397.222,197.222,V
635,0.045,1.495,-0.230,138.889,94.444,372.222,763.889,366.667,N
636,0.070,1.575,-0.210,144.444,100.000,383.333,600.000,163.889,N
637,0.105,1.565,0.100,150.000,116.667,405.556,613.889,13.889,N
638,0.695,-2.120,0.740,36.111,5.556,211.111,405.556,208.333,V
639,0.095,1.565,-0.225,136.111,94.444,380.556,772.222,366.667,N
640,0.070,1.550,-0.220,144.444,111.111,369.444,588.889,183.333,N
641,0.075,1.615,0.085,144.444,113.889,405.556,591.667,2.778,N
642,0.725,-2.160,0.775,38.889,2.778,208.333,408.333,183.333,V
643,0.140,1.680,-0.155,141.667,97.222,375.000,783.333,375.000,N
644,0.165,1.660,-0.110,144.444,113.889,383.333,613.889,169.444,N
645,0.200,1.685,0.255,136.111,108.333,400.000,586.111,27.778,N
646,-0.085,0.810,0.860,58.333,102.778,319.444,366.667,219.444,V
647,0.195,1.720,-0.140,138.889,111.111,400.000,805.556,438.889,N
648,0.180,1.620,-0.130,141.667,97.222,344.444,616.667,188.889,N
649,0.165,1.650,0.445,144.444,97.222,386.111,605.556,11.111,N
650,-0.140,0.760,0.830,58.333,102.778,313.889,358.333,247.222,V
651,0.175,1.655,-0.170,130.556,105.556,394.444,811.111,452.778,N
652,0.155,1.635,-0.140,133.333,94.444,377.778,597.222,213.889,N
653,0.165,1.660,0.510,141.667,91.667,386.111,602.778,5.556,N
654,0.775,-2.110,0.775,36.111,5.556,222.222,394.444,208.333,V
655,0.100,1.565,-0.245,144.444,113.889,405.556,788.889,394.444,N
656,0.045,1.530,-0.265,138.889,94.444,377.778,616.667,172.222,N
657,0.050,1.525,0.520,144.444,100.000,388.889,594.444,22.222,N
658,-0.330,0.520,0.690,61.111,100.000,308.333,347.222,247.222,V
659,0.040,1.610,-0.290,141.667,111.111,386.111,838.889,491.667,N
660,0.020,1.585,-0.265,147.222,102.778,347.222,630.556,208.333,N
661,0.040,1.530,0.215,141.667,108.333,400.000,591.667,38.889,N
662,-0.315,0.515,0.635,58.333,108.333,316.667,358.333,233.333,V
663,-0.095,1.425,-0.520,141.667,100.000,363.889,827.778,469.444,N
664,-0.210,1.375,-0.440,144.444,97.222,355.556,600.000,227.778,N
665,-0.125,1.460,0.015,141.667,108.333,402.778,588.889,11.111,N
666,-0.345,0.575,0.695,72.222,105.556,313.889,366.667,222.222,V
667,0.130,1.720,-0.155,141.667,105.556,391.667,825.000,458.333,N
668,0.160,1.715,-0.115,141.667,94.444,350.000,597.222,227.778,N
669,0.205,1.735,0.800,136.111,108.333,402.778,583.333,13.889,N
670,0.800,-1.945,1.010,38.889,5.556,216.667,386.111,197.222,V
671,0.390,1.885,0.040,141.667,94.444,375.000,800.000,413.889,N
672,0.340,1.835,-0.005,138.889,108.333,377.778,613.889,186.111,N
673,0.245,1.760,0.760,141.667,97.222,388.889,588.889,25.000,N
674,0.760,-1.990,0.825,38.889,5.556,213.889,386.111,202.778,V
675,0.155,1.720,-0.185,138.889,97.222,383.333,766.667,380.556,N
676,0.090,1.670,-0.170,130.556,94.444,383.333,600.000,166.667,N
677,0.125,1.640,0.360,147.222,116.667,405.556,591.667,8.333,N
678,0.620,-2.170,0.780,38.889,8.333,227.778,394.444,197.222,V
679,0.090,1.650,-0.245,136.111,105.556,383.333,797.222,402.778,N
680,0.080,1.645,-0.225,138.889,100.000,347.222,602.778,194.444,N
681,0.090,1.620,0.170,136.111,97.222,386.111,586.111,16.667,N
682,0.660,-2.175,0.805,38.889,8.333,216.667,405.556,180.556,V
683,0.175,1.705,-0.130,144.444,108.333,402.778,813.889,408.333,N
684,0.205,1.685,-0.100,144.444,102.778,350.000,613.889,200.000,N
685,0.220,1.720,-0.085,136.111,111.111,380.556,588.889,25.000,N
686,0.260,1.750,-0.045,141.667,108.333,352.778,594.444,5.556,N
687,0.280,1.800,-0.005,141.667,111.111,394.444,600.000,5.556,N
688,0.340,2.155,-0.070,58.333,116.667,405.556,475.000,125.000,V
689,0.325,1.860,-0.035,136.111,97.222,377.778,716.667,241.667,N
690,0.260,1.725,-0.135,144.444,113.889,372.222,619.444,97.222,N
691,0.195,1.685,-0.145,141.667,113.889,350.000,591.667,27.778,N
692,0.175,1.685,0.275,138.889,108.333,397.222,591.667,0.000,N
693,0.765,-2.265,0.810,36.111,8.333,211.111,400.000,191.667,V
694,0.120,1.705,-0.175,144.444,97.222,383.333,794.444,394.444,N
695,1.420,-1.455,0.630,36.111,2.778,338.889,580.556,213.889,V
696,0.630,-2.250,0.950,41.667,2.778,213.889,377.778,202.778,V
697,0.200,1.780,-0.065,138.889,113.889,405.556,858.333,480.556,N
698,0.700,-2.195,1.005,38.889,8.333,230.556,425.000,433.333,V
699,0.250,1.800,-0.135,138.889,100.000,388.889,788.889,363.889,N
700,1.360,-1.495,0.015,36.111,2.778,241.667,572.222,216.667,V
701,0.150,1.725,-0.260,150.000,94.444,372.222,666.667,94.444,N
702,0.035,1.675,0.070,141.667,102.778,394.444,605.556,61.111,N
703,-0.270,0.790,0.755,61.111,97.222,308.333,366.667,238.889,V
704,0.100,1.755,-0.170,138.889,97.222,386.111,827.778,461.111,N
705,1.400,-1.415,0.050,36.111,2.778,236.111,566.667,261.111,V
706,0.220,1.790,-0.050,141.667,97.222,388.889,661.111,94.444,N
707,0.275,1.865,-0.020,141.667,94.444,341.667,608.333,52.778,N
708,0.310,1.865,-0.030,144.444,116.667,402.778,588.889,19.444,N
709,1.570,-1.245,0.090,36.111,2.778,236.111,547.222,41.667,V
710,0.315,1.875,-0.025,136.111,105.556,383.333,638.889,91.667,N
711,0.300,1.795,-0.040,144.444,97.222,386.111,608.333,30.556,N
712,0.340,1.695,0.100,58.333,100.000,347.222,502.778,105.556,V
713,0.680,-2.245,0.935,44.444,0.000,202.778,458.333,44.444,V
714,0.285,1.895,0.050,136.111,105.556,394.444,825.000,366.667,N
715,0.805,-1.990,1.005,41.667,5.556,213.889,427.778,397.222,V
716,0.340,1.830,-0.065,141.667,111.111,383.333,783.333,355.556,N
717,0.290,1.775,-0.020,138.889,111.111,383.333,627.778,155.556,N
718,0.270,1.755,-0.070,144.444,111.111,391.667,600.000,27.778,N
719,0.255,1.470,0.000,52.778,86.111,333.333,544.444,55.556,V
720,0.095,1.520,-0.150,141.667,105.556,352.778,658.333,113.889,N
721,0.135,1.495,-0.215,138.889,88.889,352.778,608.333,50.000,N
722,0.065,1.630,-0.135,147.222,102.778,380.556,586.111,22.222,N
723,0.150,1.690,-0.090,147.222,94.444,386.111,597.222,11.111,N
724,0.865,-2.095,0.815,38.889,2.778,211.111,427.778,169.444,V
725,0.145,1.750,-0.165,144.444,91.667,369.444,741.667,313.889,N
726,0.140,1.740,-0.080,133.333,113.889,402.778,586.111,155.556,N
727,0.250,1.825,-0.005,144.444,111.111,377.778,588.889,2.778,N
728,1.435,-1.405,0.670,33.333,2.778,344.444,563.889,25.000,V
729,0.670,-2.280,0.890,41.667,0.000,194.444,383.333,180.556,V
730,0.115,1.675,0.125,130.556,105.556,400.000,813.889,430.556,N
731,0.685,-2.155,0.785,44.444,5.556,213.889,413.889,400.000,V
732,0.195,1.725,0.075,144.444,97.222,388.889,772.222,358.333,N
733,0.435,1.920,0.335,138.889,108.333,383.333,583.333,188.889,N
734,0.580,1.930,0.190,138.889,97.222,350.000,586.111,2.778,N
735,0.435,1.785,0.035,144.444,94.444,369.444,608.333,22.222,N
736,0.270,1.620,-0.130,138.889,111.111,377.778,583.333,25.000,N
737,0.145,1.565,-0.300,138.889,108.333,372.222,586.111,2.778,N
738,-0.040,1.380,-0.460,141.667,111.111,372.222,577.778,8.333,N
739,-0.150,1.310,-0.550,147.222,116.667,383.333,597.222,19.444,N
740,-0.235,1.330,-0.535,141.667,111.111,325.000,602.778,5.556,N
741,-0.155,1.315,-0.280,136.111,102.778,341.667,580.556,22.222,N
742,0.115,1.715,0.065,130.556,105.556,355.556,563.889,16.667,N
743,0.445,1.800,0.155,133.333,111.111,366.667,572.222,8.333,N
744,0.415,1.815,-0.005,138.889,97.222,344.444,594.444,22.222,N
745,0.240,1.680,-0.205,144.444,102.778,344.444,577.778,16.667,N
746,0.030,1.470,-0.475,144.444,113.889,355.556,575.000,2.778,N
747,-0.200,1.315,-0.610,136.111,91.667,352.778,580.556,5.556,N
748,-0.290,1.275,-0.605,144.444,102.778,391.667,569.444,11.111,N
749,1.005,-1.875,-0.535,33.333,2.778,227.778,513.889,55.556,V
750,-0.335,1.300,-0.580,136.111,113.889,377.778,608.333,94.444,N
751,-0.265,1.400,0.005,138.889,116.667,405.556,597.222,11.111,N
752,0.545,-2.290,0.580,36.111,2.778,216.667,400.000,197.222,V
753,-0.085,1.600,-0.320,138.889,100.000,388.889,752.778,352.778,N
754,-0.005,1.600,-0.260,136.111,97.222,344.444,563.889,188.889,N
755,0.070,1.725,-0.170,144.444,113.889,405.556,583.333,19.444,N
756,0.165,1.800,-0.095,133.333,100.000,383.333,586.111,2.778,N
757,0.215,1.765,0.485,144.444,97.222,386.111,591.667,5.556,N
758,-0.125,0.830,0.730,61.111,108.333,327.778,358.333,233.333,V
759,0.180,1.770,-0.100,133.333,116.667,405.556,808.333,450.000,N
760,0.195,1.765,-0.080,144.444,113.889,366.667,597.222,211.111,N
761,0.210,1.770,-0.070,138.889,97.222,386.111,563.889,33.333,N
762,0.215,1.825,-0.045,141.667,100.000,377.778,586.111,22.222,N
763,0.255,1.860,0.545,141.667,108.333,400.000,597.222,11.111,N
764,-0.050,0.845,0.910,58.333,105.556,322.222,355.556,241.667,V
765,0.270,1.850,0.000,127.778,97.222,380.556,797.222,441.667,N
766,0.345,1.445,0.060,75.000,91.667,330.556,538.889,258.333,F
767,0.355,1.850,-0.005,144.444,102.778,372.222,619.444,80.556,N
768,0.285,1.770,-0.125,144.444,94.444,347.222,577.778,41.667,N
769,0.200,1.730,-0.150,141.667,91.667,366.667,591.667,13.889,N
770,0.295,1.480,-0.050,52.778,88.889,325.000,513.889,77.778,V
771,0.760,-2.260,0.545,38.889,0.000,222.222,636.111,122.222,F
772,0.145,1.640,-0.205,138.889,113.889,375.000,619.444,16.667,N
773,0.115,1.660,-0.190,138.889,113.889,391.667,583.333,36.111,N
774,0.135,1.660,-0.200,141.667,111.111,383.333,605.556,22.222,N
775,0.125,1.675,-0.205,138.889,113.889,350.000,602.778,2.778,N
776,0.120,1.625,0.485,147.222,111.111,402.778,608.333,5.556,N
777,0.695,-2.265,0.775,36.111,2.778,200.000,391.667,216.667,V
778,0.080,1.625,-0.265,138.889,116.667,386.111,772.222,380.556,N
779,-0.125,1.500,-0.140,58.333,94.444,322.222,497.222,275.000,V
780,0.065,1.720,-0.210,150.000,100.000,386.111,716.667,219.444,N
781,0.120,1.745,-0.160,141.667,108.333,344.444,616.667,100.000,N
782,0.175,1.815,-0.190,141.667,108.333,352.778,602.778,13.889,N
783,0.140,1.730,-0.210,141.667,105.556,380.556,594.444,8.333,N
784,0.095,1.645,0.275,141.667,100.000,388.889,583.333,11.111,N
785,-0.285,0.665,0.710,55.556,102.778,311.111,361.111,222.222,V
786,0.025,1.600,-0.295,141.667,97.222,377.778,850.000,488.889,N
787,0.050,1.625,-0.225,141.667,108.333,386.111,602.778,247.222,N
788,0.120,1.705,0.505,136.111,97.222,386.111,597.222,5.556,N
789,-0.175,0.735,0.900,58.333,108.333,305.556,355.556,241.667,V
790,0.250,1.805,-0.040,138.889,97.222,377.778,836.111,480.556,N
791,0.315,1.885,0.030,144.444,97.222,380.556,608.333,227.778,N
792,0.360,1.885,0.440,152.778,100.000,388.889,625.000,16.667,N
793,-0.040,0.795,0.990,58.333,105.556,313.889,361.111,263.889,V
794,0.160,1.815,-0.155,138.889,116.667,405.556,855.556,494.444,N
795,0.190,1.850,-0.090,138.889,116.667,405.556,613.889,241.667,N
796,0.190,1.775,0.330,147.222,91.667,386.111,625.000,11.111,N
797,0.010,1.010,0.940,58.333,113.889,322.222,372.222,252.778,V
798,0.530,2.130,0.430,138.889,111.111,375.000,866.667,494.444,N
799,0.765,2.375,0.555,127.778,113.889,405.556,608.333,258.333,N
800,0.830,2.310,0.980,141.667,111.111,405.556,597.222,11.111,N
801,1.445,-1.720,1.460,41.667,2.778,213.889,405.556,191.667,V
802,0.905,2.335,0.640,133.333,116.667,386.111,772.222,366.667,N
803,0.825,2.200,0.370,138.889,97.222,322.222,619.444,152.778,N
804,0.635,2.005,0.665,147.222,111.111,400.000,611.111,8.333,N
805,1.085,-2.025,1.070,41.667,2.778,202.778,402.778,208.333,V
806,0.350,1.740,-0.155,130.556,91.667,380.556,766.667,363.889,N
807,0.075,1.555,-0.355,122.222,105.556,355.556,591.667,175.000,N
808,-0.090,1.475,-0.190,133.333,94.444,386.111,600.000,8.333,N
809,0.420,-2.465,0.355,38.889,5.556,205.556,408.333,191.667,V
810,-0.375,1.265,-0.490,136.111,113.889,402.778,780.556,372.222,N
811,-0.180,1.420,-0.540,136.111,102.778,347.222,588.889,191.667,N
812,-0.250,1.365,-0.385,138.889,113.889,405.556,588.889,0.000,N
813,0.465,-2.395,0.430,36.111,5.556,216.667,413.889,175.000,V
814,-0.270,1.395,-0.605,141.667,97.222,388.889,752.778,338.889,N
815,-0.295,1.390,-0.555,141.667,97.222,352.778,600.000,152.778,N
816,-0.245,1.500,0.260,144.444,97.222,388.889,608.333,8.333,N
817,-0.525,0.495,0.540,58.333,102.778,313.889,355.556,252.778,V
818,-0.110,1.615,-0.360,136.111,94.444,380.556,808.333,452.778,N
819,-0.040,1.635,-0.340,138.889,100.000,350.000,600.000,208.333,N
820,-0.035,1.715,-0.025,152.778,113.889,402.778,616.667,16.667,N
821,0.695,-2.260,0.745,36.111,5.556,213.889,405.556,211.111,V
822,0.005,1.745,-0.275,136.111,113.889,405.556,766.667,361.111,N
823,0.050,1.755,-0.225,141.667,111.111,358.333,591.667,175.000,N
824,0.100,1.740,0.095,147.222,97.222,388.889,586.111,5.556,N
825,0.810,-2.220,0.795,36.111,5.556,202.778,408.333,177.778,V
826,0.100,1.785,-0.185,133.333,100.000,375.000,763.889,355.556,N
827,0.140,1.815,-0.170,144.444,108.333,383.333,602.778,161.111,N
828,0.165,1.800,0.375,141.667,116.667,405.556,580.556,22.222,N
829,0.765,-2.105,0.870,41.667,5.556,213.889,400.000,180.556,V
830,0.125,1.730,-0.265,136.111,108.333,383.333,758.333,358.333,N
831,0.055,1.715,-0.250,138.889,113.889,386.111,600.000,158.333,N
832,0.070,1.710,0.430,141.667,100.000,397.222,608.333,8.333,N
833,0.710,-2.155,0.780,38.889,5.556,219.444,397.222,211.111,V
834,0.105,1.695,-0.255,136.111,102.778,380.556,758.333,361.111,N
835,0.055,1.660,-0.300,138.889,105.556,391.667,594.444,163.889,N
836,0.015,1.630,0.135,141.667,100.000,391.667,600.000,5.556,N
837,-0.300,0.745,0.730,61.111,102.778,322.222,366.667,233.333,V
838,0.045,1.630,-0.310,138.889,111.111,386.111,811.111,444.444,N
839,0.000,1.600,-0.330,136.111,97.222,350.000,613.889,197.222,N
840,-0.155,0.400,-0.365,58.333,116.667,361.111,475.000,138.889,V
841,0.675,-2.530,0.745,36.111,2.778,219.444,511.111,36.111,V
842,-0.025,1.600,-0.035,136.111,111.111,405.556,772.222,261.111,N
843,-0.405,0.485,0.800,58.333,105.556,336.111,369.444,402.778,V
844,0.030,1.545,-0.295,138.889,113.889,397.222,838.889,469.444,N
845,0.045,1.665,-0.180,136.111,91.667,352.778,602.778,236.111,N
846,0.105,1.730,-0.190,141.667,111.111,394.444,580.556,22.222,N
847,0.115,1.665,-0.155,141.667,100.000,388.889,588.889,8.333,N
848,0.140,1.685,0.070,141.667,100.000,391.667,580.556,8.333,N
849,0.795,-2.275,0.755,38.889,2.778,216.667,413.889,166.667,V
850,0.010,1.485,-0.340,138.889,91.667,358.333,769.444,355.556,N
851,-0.030,1.505,-0.345,138.889,105.556,355.556,583.333,186.111,N
852,-0.065,1.415,0.130,133.333,100.000,388.889,586.111,2.778,N
853,0.465,-2.620,0.570,38.889,5.556,216.667,400.000,186.111,V
854,-0.150,1.345,-0.490,141.667,94.444,383.333,775.000,375.000,N
855,-0.145,1.395,-0.415,138.889,116.667,388.889,611.111,163.889,N
856,-0.115,1.485,-0.130,141.667,105.556,397.222,591.667,19.444,N
857,0.615,-2.605,0.435,36.111,2.778,213.889,408.333,183.333,V
858,-0.215,1.495,-0.325,130.556,94.444,383.333,750.000,341.667,N
859,0.025,1.650,-0.180,138.889,91.667,375.000,608.333,141.667,N
860,0.105,1.700,0.230,144.444,111.111,402.778,586.111,22.222,N
861,-0.005,0.940,0.980,47.222,83.333,305.556,366.667,219.444,V
862,0.110,1.930,-0.020,136.111,113.889,397.222,827.778,461.111,N
863,0.350,2.050,0.255,141.667,100.000,386.111,588.889,238.889,N
864,0.630,2.330,0.865,138.889,116.667,405.556,577.778,11.111,N
865,1.805,-1.630,1.720,38.889,2.778,213.889,416.667,161.111,V
866,1.010,2.535,0.535,144.444,111.111,375.000,780.556,363.889,N
867,0.800,2.335,0.310,138.889,97.222,350.000,583.333,197.222,N
868,0.540,2.075,0.860,136.111,88.889,383.333,586.111,2.778,N
869,1.130,-2.275,0.975,41.667,5.556,222.222,397.222,188.889,V
870,0.230,1.895,-0.170,144.444,97.222,369.444,763.889,366.667,N
871,0.130,1.760,-0.210,113.889,91.667,361.111,580.556,183.333,N
872,0.140,1.805,-0.110,141.667,97.222,386.111,600.000,19.444,N
873,-0.210,0.980,0.910,58.333,102.778,397.222,383.333,216.667,V
874,0.910,-1.735,0.290,44.444,8.333,202.778,383.333,0.000,V
875,0.095,1.900,-0.115,130.556,97.222,355.556,930.556,547.222,N
876,0.155,1.800,-0.220,144.444,97.222,355.556,602.778,327.778,N
877,0.055,1.815,-0.165,150.000,100.000,391.667,611.111,8.333,N
878,-0.330,0.810,0.635,75.000,100.000,313.889,377.778,233.333,V
879,-0.025,1.705,-0.305,125.000,97.222,375.000,816.667,438.889,N
880,-0.005,1.700,-0.245,141.667,116.667,361.111,594.444,222.222,N
881,0.030,1.775,-0.045,141.667,94.444,388.889,591.667,2.778,N
882,-0.145,0.855,0.790,69.444,102.778,313.889,375.000,216.667,V
883,0.150,1.860,-0.160,147.222,97.222,386.111,802.778,427.778,N
884,0.145,1.880,-0.200,125.000,91.667,363.889,608.333,194.444,N
885,0.060,1.785,0.065,130.556,88.889,383.333,600.000,8.333,N
886,-0.320,0.725,0.660,52.778,91.667,316.667,366.667,233.333,V
887,-0.035,1.730,-0.330,133.333,111.111,391.667,813.889,447.222,N
888,0.050,1.745,-0.285,150.000,97.222,383.333,611.111,202.778,N
889,0.035,1.790,0.275,141.667,97.222,386.111,608.333,2.778,N
890,-0.330,0.795,0.795,61.111,105.556,313.889,361.111,247.222,V
891,0.075,1.930,-0.230,127.778,94.444,377.778,811.111,450.000,N
892,0.125,1.970,-0.165,141.667,97.222,366.667,608.333,202.778,N
893,0.170,2.010,0.795,147.222,108.333,400.000,600.000,8.333,N
894,-0.155,0.965,0.905,63.889,102.778,308.333,352.778,247.222,V
895,0.205,1.910,-0.180,133.333,111.111,386.111,819.444,466.667,N
896,0.160,1.985,-0.145,138.889,97.222,344.444,622.222,197.222,N
897,0.175,2.050,-0.110,141.667,102.778,388.889,591.667,30.556,N
898,0.205,1.995,-0.115,141.667,108.333,369.444,591.667,0.000,N
899,0.220,1.995,-0.065,144.444,108.333,358.333,588.889,2.778,N
900,0.275,1.995,0.385,152.778,102.778,391.667,613.889,25.000,N
901,-0.095,0.965,0.995,58.333,105.556,308.333,363.889,250.000,V
902,0.260,2.045,-0.060,136.111,100.000,377.778,816.667,452.778,N
903,0.250,2.015,-0.025,141.667,102.778,366.667,586.111,230.556,N
904,0.300,2.025,0.180,144.444,94.444,386.111,588.889,2.778,N
905,-0.035,1.070,1.030,72.222,100.000,305.556,375.000,213.889,V
906,0.295,2.045,-0.065,138.889,100.000,388.889,816.667,441.667,N
907,0.255,2.005,-0.040,141.667,97.222,375.000,605.556,211.111,N
908,0.295,2.070,0.295,138.889,94.444,386.111,588.889,16.667,N
909,0.015,1.100,1.070,55.556,100.000,297.222,372.222,216.667,V
910,0.355,2.065,-0.010,136.111,97.222,380.556,797.222,425.000,N
911,0.330,2.040,-0.050,144.444,105.556,380.556,613.889,183.333,N
912,0.280,2.035,0.670,141.667,116.667,405.556,605.556,8.333,N
913,-0.050,0.950,1.010,58.333,105.556,319.444,358.333,247.222,V
914,0.280,2.000,-0.115,136.111,97.222,380.556,819.444,461.111,N
915,1.595,-1.540,-0.020,36.111,2.778,227.778,547.222,272.222,V
916,0.060,1.755,-0.350,144.444,97.222,386.111,652.778,105.556,N
917,-0.025,1.715,-0.340,150.000,97.222,388.889,605.556,47.222,N
918,0.000,1.755,-0.310,147.222,102.778,350.000,602.778,2.778,N
919,-0.080,1.570,-0.110,58.333,94.444,313.889,486.111,116.667,V
920,0.105,1.820,-0.205,147.222,97.222,380.556,705.556,219.444,N
921,0.155,1.825,-0.170,138.889,116.667,350.000,588.889,116.667,N
922,0.170,1.935,-0.120,144.444,111.111,377.778,602.778,13.889,N
923,0.160,1.785,0.025,58.333,91.667,313.889,500.000,102.778,V
924,1.150,-2.395,0.985,41.667,2.778,230.556,630.556,130.556,V
925,0.285,1.965,-0.125,141.667,111.111,388.889,663.889,33.333,N
926,0.210,1.955,-0.100,141.667,100.000,383.333,588.889,75.000,N
927,0.230,1.985,-0.055,144.444,94.444,386.111,591.667,2.778,N
928,0.255,2.060,0.000,133.333,94.444,375.000,577.778,13.889,N
929,0.335,2.050,0.405,138.889,105.556,397.222,602.778,25.000,N
930,1.075,-2.150,1.070,38.889,5.556,222.222,405.556,197.222,V
931,0.315,2.035,-0.055,138.889,111.111,380.556,769.444,363.889,N
932,0.275,2.015,-0.055,133.333,100.000,344.444,588.889,180.556,N
933,0.235,2.010,-0.085,127.778,94.444,344.444,594.444,5.556,N
934,0.190,1.860,-0.040,138.889,94.444,383.333,600.000,5.556,N
935,0.245,1.920,0.370,122.222,91.667,388.889,597.222,2.778,N
936,0.005,1.055,0.990,58.333,102.778,322.222,369.444,227.778,V
937,0.350,2.025,0.055,138.889,116.667,386.111,786.111,416.667,N
938,0.390,2.025,0.045,141.667,108.333,350.000,588.889,197.222,N
939,0.330,1.975,0.805,141.667,100.000,388.889,588.889,0.000,N
940,-0.010,0.960,0.995,63.889,108.333,325.000,352.778,236.111,V
941,0.275,1.935,-0.035,144.444,111.111,394.444,830.556,477.778,N
942,0.275,1.955,-0.020,116.667,100.000,361.111,613.889,216.667,N
943,0.250,1.875,0.495,138.889,91.667,383.333,577.778,36.111,N
944,0.950,-2.270,0.870,38.889,2.778,213.889,400.000,177.778,V
945,0.125,1.830,-0.210,136.111,100.000,377.778,772.222,372.222,N
946,0.095,1.740,-0.195,119.444,94.444,350.000,619.444,152.778,N
947,0.110,1.735,-0.235,138.889,113.889,380.556,588.889,30.556,N
948,-0.065,1.600,-0.180,58.333,94.444,325.000,483.333,105.556,V
949,0.080,1.585,-0.190,144.444,88.889,350.000,686.111,202.778,N
950,0.110,1.700,-0.145,144.444,116.667,380.556,566.667,119.444,N
951,0.120,1.750,-0.130,138.889,91.667,386.111,580.556,13.889,N
952,0.075,1.655,-0.075,58.333,94.444,325.000,480.556,100.000,V
953,0.150,1.870,-0.095,144.444,108.333,391.667,691.667,211.111,N
954,0.225,1.865,-0.075,138.889,111.111,383.333,580.556,111.111,N
955,0.250,1.950,0.055,136.111,97.222,383.333,577.778,2.778,N
956,1.780,-1.230,0.145,36.111,2.778,238.889,508.333,69.444,V
957,0.310,1.900,-0.065,138.889,111.111,388.889,647.222,138.889,N
958,0.260,1.895,-0.100,150.000,94.444,350.000,613.889,33.333,N
959,0.210,1.895,-0.100,150.000,105.556,402.778,583.333,30.556,N
960,1.620,-1.465,-0.060,36.111,2.778,222.222,516.667,66.667,V
961,0.995,-2.540,0.855,38.889,0.000,230.556,577.778,61.111,V
962,0.135,1.775,-0.220,141.667,97.222,377.778,661.111,83.333,N
963,0.105,1.780,-0.190,144.444,111.111,380.556,586.111,75.000,N
964,0.145,1.840,-0.195,144.444,105.556,377.778,591.667,5.556,N
965,0.135,1.815,-0.165,144.444,111.111,375.000,605.556,13.889,N
966,0.115,1.855,0.125,133.333,100.000,394.444,586.111,19.444,N
967,0.960,-2.315,0.900,38.889,5.556,205.556,411.111,175.000,V
968,0.140,1.830,-0.210,138.889,97.222,383.333,747.222,336.111,N
969,0.110,1.385,0.645,108.333,88.889,400.000,577.778,169.444,V
970,0.645,-2.550,0.895,44.444,0.000,205.556,388.889,188.889,V
971,0.105,1.845,-0.195,136.111,102.778,383.333,838.889,450.000,N
972,0.150,1.885,-0.110,147.222,100.000,358.333,597.222,241.667,N
973,0.215,1.865,0.080,147.222,113.889,405.556,588.889,8.333,N
974,0.890,-2.265,0.905,38.889,2.778,205.556,413.889,175.000,V
975,0.190,1.860,-0.175,138.889,105.556,388.889,777.778,363.889,N
976,0.150,1.815,-0.125,150.000,97.222,386.111,616.667,161.111,N
977,0.165,1.845,0.495,138.889,94.444,383.333,602.778,13.889,N
978,-0.155,0.805,0.900,58.333,105.556,313.889,358.333,244.444,V
979,0.175,1.845,-0.195,136.111,97.222,380.556,833.333,475.000,N
980,-0.035,1.765,-0.080,58.333,94.444,338.889,494.444,338.889,V
981,0.115,1.780,-0.200,141.667,94.444,363.889,747.222,252.778,N
982,0.115,1.780,-0.215,147.222,97.222,336.111,616.667,130.556,N
983,0.115,1.745,-0.180,138.889,97.222,352.778,586.111,30.556,N
984,-0.080,1.605,-0.080,58.333,91.667,316.667,461.111,125.000,V
985,0.105,1.765,-0.195,138.889,94.444,383.333,736.111,275.000,N
986,0.095,1.765,-0.260,147.222,91.667,347.222,608.333,127.778,N
987,0.055,1.705,-0.320,147.222,108.333,380.556,605.556,2.778,N
988,-0.240,1.575,-0.265,58.333,94.444,313.889,472.222,133.333,V
989,-0.010,1.785,-0.275,144.444,97.222,377.778,727.778,255.556,N
990,0.070,1.825,-0.210,138.889,91.667,341.667,594.444,133.333,N
991,0.075,1.735,-0.210,138.889,100.000,377.778,597.222,2.778,N
992,0.060,1.670,-0.085,58.333,94.444,333.333,497.222,100.000,V
993,0.100,1.775,-0.175,144.444,97.222,350.000,708.333,211.111,N
994,0.155,1.790,-0.180,138.889,111.111,352.778,605.556,102.778,N
995,0.100,1.805,-0.205,136.111,100.000,383.333,588.889,16.667,N
996,0.015,1.700,-0.115,58.333,94.444,325.000,486.111,102.778,V
997,0.115,1.825,-0.150,144.444,111.111,405.556,708.333,222.222,N
998,0.140,1.815,-0.145,147.222,94.444,366.667,625.000,83.333,N
999,0.160,1.815,-0.135,147.222,97.222,380.556,611.111,13.889,N
1000,0.155,1.700,-0.060,58.333,94.444,327.778,483.333,127.778,V
1001,-0.155,1.085,0.805,58.333,100.000,322.222,575.000,91.667,V
1002,0.805,-2.595,0.745,116.667,2.778,211.111,380.556,194.444,V
1003,0.065,1.760,-0.250,138.889,111.111,405.556,952.778,572.222,N
1004,-0.150,1.735,-0.125,66.667,91.667,319.444,463.889,488.889,V
1005,0.090,1.765,-0.190,136.111,108.333,386.111,755.556,291.667,N
1006,0.060,1.525,-0.215,144.444,102.778,375.000,608.333,147.222,N
1007,0.090,1.595,-0.125,141.667,94.444,363.889,602.778,5.556,N
1008,0.105,1.665,-0.135,138.889,100.000,377.778,588.889,13.889,N
1009,0.135,1.655,0.255,144.444,100.000,388.889,594.444,5.556,N
1010,0.730,-2.100,0.740,38.889,5.556,219.444,402.778,191.667,V
1011,0.155,1.710,-0.230,136.111,100.000,380.556,772.222,369.444,N
1012,0.080,1.635,-0.245,138.889,100.000,377.778,602.778,169.444,N
1013,0.030,1.640,-0.275,144.444,91.667,350.000,586.111,16.667,N
1014,0.020,1.570,-0.315,141.667,97.222,338.889,611.111,25.000,N
1015,-0.025,1.640,0.060,138.889,88.889,386.111,602.778,8.333,N
1016,-0.290,0.825,0.675,63.889,97.222,311.111,369.444,233.333,V
1017,0.080,1.685,-0.200,136.111,111.111,386.111,797.222,427.778,N
1018,0.085,1.655,-0.195,141.667,102.778,375.000,600.000,197.222,N
1019,0.120,1.700,0.360,136.111,102.778,394.444,600.000,0.000,N
1020,-0.195,0.820,0.750,55.556,102.778,322.222,361.111,238.889,V
1021,0.185,1.775,-0.095,138.889,108.333,388.889,841.667,480.556,N
1022,0.225,1.695,-0.140,136.111,111.111,377.778,608.333,233.333,N
1023,0.140,1.665,0.570,144.444,113.889,405.556,597.222,11.111,N
1024,0.775,-2.200,0.680,38.889,5.556,222.222,391.667,205.556,V
1025,0.000,1.655,-0.265,144.444,94.444,383.333,797.222,405.556,N
1026,0.035,1.645,-0.235,141.667,100.000,358.333,627.778,169.444,N
1027,0.090,1.610,0.170,144.444,116.667,405.556,588.889,38.889,N
1028,0.750,-2.230,0.700,36.111,2.778,208.333,402.778,186.111,V
1029,0.035,1.605,-0.295,138.889,94.444,366.667,758.333,355.556,N
1030,0.045,1.630,-0.225,144.444,113.889,383.333,605.556,152.778,N
1031,0.080,1.645,-0.010,141.667,97.222,386.111,572.222,33.333,N
1032,0.825,-2.140,0.740,36.111,2.778,211.111,413.889,158.333,V
1033,0.125,1.630,-0.250,133.333,108.333,383.333,769.444,355.556,N
1034,0.035,1.660,-0.270,141.667,80.556,352.778,597.222,172.222,N
1035,0.045,1.630,-0.230,138.889,88.889,363.889,580.556,16.667,N
1036,0.105,1.555,-0.075,58.333,94.444,330.556,480.556,100.000,V
1037,0.125,1.665,-0.180,144.444,102.778,372.222,711.111,230.556,N
1038,0.150,1.640,0.215,138.889,108.333,400.000,597.222,113.889,N
1039,-0.195,0.785,0.735,61.111,102.778,313.889,363.889,233.333,V
1040,0.090,1.645,-0.240,141.667,113.889,377.778,813.889,450.000,N
1041,0.095,1.640,-0.190,147.222,100.000,358.333,608.333,205.556,N
1042,0.105,1.625,-0.220,144.444,97.222,352.778,597.222,11.111,N
1043,0.070,1.585,-0.265,138.889,97.222,386.111,602.778,5.556,N
1044,0.040,1.585,0.120,147.222,113.889,405.556,594.444,8.333,N
1045,0.680,-2.270,0.655,36.111,5.556,213.889,402.778,191.667,V
1046,0.050,1.640,-0.285,136.111,97.222,391.667,786.111,383.333,N
1047,0.025,1.675,-0.235,138.889,83.333,394.444,594.444,191.667,N
1048,0.045,1.625,-0.225,144.444,100.000,388.889,597.222,2.778,N
1049,0.035,1.610,-0.250,141.667,94.444,350.000,600.000,2.778,N
1050,0.060,1.535,-0.310,144.444,91.667,350.000,588.889,11.111,N
1051,-0.010,1.530,0.020,133.333,116.667,405.556,563.889,25.000,N
1052,0.720,-2.275,0.695,38.889,2.778,211.111,408.333,155.556,V
1053,0.380,1.455,-0.085,197.222,100.000,338.889,444.444,36.111,V
1054,0.040,1.640,-0.240,144.444,102.778,377.778,908.333,463.889,N
1055,-0.125,1.535,-0.230,58.333,91.667,336.111,475.000,433.333,V
1056,-0.010,1.630,-0.295,138.889,108.333,391.667,722.222,247.222,N
1057,0.025,1.675,-0.250,138.889,100.000,350.000,600.000,122.222,N
1058,0.060,1.610,-0.250,144.444,113.889,388.889,575.000,25.000,N
1059,-0.140,1.565,0.510,58.333,94.444,397.222,455.556,119.444,V
1060,0.510,-2.415,0.740,41.667,2.778,216.667,380.556,75.000,V
1061,-0.005,1.565,-0.355,138.889,116.667,405.556,930.556,550.000,N
1062,-0.035,1.565,-0.310,138.889,113.889,375.000,608.333,322.222,N
1063,0.015,1.560,-0.205,144.444,111.111,386.111,588.889,19.444,N
1064,0.045,1.570,-0.245,122.222,105.556,361.111,580.556,8.333,N
1065,0.045,1.615,-0.010,138.889,105.556,400.000,583.333,2.778,N
1066,0.850,-1.965,0.865,38.889,2.778,211.111,425.000,158.333,V
1067,0.305,1.805,-0.020,144.444,100.000,375.000,761.111,336.111,N
1068,1.375,-1.305,0.665,36.111,2.778,325.000,561.111,200.000,V
1069,0.665,-2.210,0.855,38.889,2.778,211.111,361.111,200.000,V
1070,0.130,1.675,0.115,136.111,94.444,388.889,825.000,463.889,N
1071,0.610,-2.250,0.780,41.667,5.556,225.000,408.333,416.667,V
1072,0.105,1.610,-0.205,133.333,97.222,386.111,783.333,375.000,N
1073,0.585,-2.185,0.730,38.889,5.556,211.111,425.000,358.333,V
1074,0.060,1.635,-0.275,136.111,100.000,380.556,747.222,322.222,N
1075,0.140,1.400,-0.065,58.333,97.222,341.667,544.444,202.778,V
1076,0.150,1.720,0.395,138.889,94.444,383.333,644.444,100.000,N
1077,-0.140,0.690,0.810,58.333,108.333,316.667,358.333,286.111,V
1078,0.095,1.685,-0.230,136.111,113.889,388.889,822.222,463.889,N
1079,0.075,1.490,-0.155,122.222,88.889,355.556,602.778,219.444,N
1080,0.155,1.735,0.475,141.667,111.111,405.556,600.000,2.778,N
1081,-0.130,0.835,0.830,63.889,102.778,313.889,358.333,241.667,V
1082,0.185,1.715,-0.175,141.667,105.556,391.667,819.444,461.111,N
1083,0.135,1.535,-0.150,97.222,97.222,336.111,572.222,247.222,F
1084,0.140,1.730,-0.145,138.889,113.889,380.556,627.778,55.556,N
1085,0.195,1.765,-0.115,138.889,102.778,350.000,588.889,38.889,N
1086,0.195,1.770,-0.075,144.444,97.222,391.667,583.333,5.556,N
1087,0.225,1.775,-0.140,144.444,111.111,352.778,583.333,0.000,N
1088,0.165,1.710,-0.120,136.111,100.000,366.667,572.222,11.111,N
1089,0.175,1.760,-0.115,138.889,100.000,383.333,591.667,19.444,N
1090,0.185,1.810,-0.100,147.222,100.000,383.333,597.222,5.556,N
1091,0.095,1.770,0.150,58.333,100.000,338.889,461.111,136.111,V
1092,0.150,1.480,0.110,172.222,91.667,311.111,452.778,8.333,V
1093,0.170,1.755,-0.130,138.889,100.000,388.889,805.556,352.778,N
1094,-0.180,0.725,0.795,58.333,102.778,322.222,391.667,413.889,V
1095,0.175,1.850,-0.075,141.667,94.444,388.889,819.444,427.778,N
1096,0.065,1.830,0.055,58.333,94.444,308.333,461.111,358.333,V
1097,0.250,1.850,-0.070,133.333,100.000,377.778,708.333,247.222,N
1098,0.195,1.795,0.200,144.444,97.222,388.889,597.222,111.111,N
1099,-0.105,0.920,0.855,55.556,100.000,305.556,369.444,227.778,V
1100,0.195,1.805,0.430,144.444,91.667,386.111,819.444,450.000,N
1101,-0.165,0.755,0.895,58.333,102.778,325.000,361.111,458.333,V
1102,0.240,1.815,-0.180,141.667,94.444,369.444,861.111,500.000,N
1103,0.160,1.800,-0.180,138.889,111.111,380.556,602.778,258.333,N
1104,0.110,1.790,-0.160,138.889,97.222,344.444,583.333,19.444,N
1105,0.155,1.810,-0.140,144.444,97.222,350.000,597.222,13.889,N
1106,0.190,1.815,-0.110,152.778,113.889,380.556,619.444,22.222,N
1107,-0.005,1.725,-0.010,58.333,94.444,316.667,436.111,183.333,V
1108,0.155,1.835,-0.145,138.889,97.222,386.111,741.667,305.556,N
1109,0.185,1.845,-0.095,138.889,111.111,372.222,594.444,147.222,N
1110,0.225,1.910,-0.070,147.222,102.778,386.111,588.889,5.556,N
1111,0.025,1.800,0.015,58.333,94.444,316.667,450.000,138.889,V
1112,0.225,1.795,-0.170,138.889,113.889,386.111,722.222,272.222,N
1113,0.160,1.805,-0.150,144.444,94.444,350.000,613.889,108.333,N
1114,0.190,1.905,-0.095,144.444,113.889,380.556,586.111,27.778,N
1115,0.060,1.775,0.035,58.333,94.444,311.111,472.222,113.889,V
1116,0.270,1.850,-0.100,144.444,97.222,352.778,702.778,230.556,N
1117,0.220,1.805,-0.175,150.000,100.000,350.000,608.333,94.444,N
1118,0.150,1.855,-0.185,138.889,100.000,369.444,605.556,2.778,N
1119,0.055,1.795,-0.070,58.333,94.444,319.444,483.333,122.222,V
1120,0.155,1.815,-0.145,144.444,113.889,380.556,697.222,213.889,N
1121,0.185,1.800,0.130,141.667,111.111,402.778,594.444,102.778,N
1122,0.850,-2.325,0.825,38.889,5.556,213.889,408.333,186.111,V
1123,0.125,1.860,-0.240,138.889,97.222,380.556,786.111,377.778,N
1124,0.075,1.695,-0.205,144.444,105.556,383.333,611.111,175.000,N
1125,0.115,1.750,-0.190,136.111,102.778,347.222,591.667,19.444,N
1126,0.135,1.835,-0.115,150.000,94.444,336.111,602.778,11.111,N
1127,0.195,1.840,-0.120,138.889,108.333,380.556,569.444,33.333,N
1128,0.215,1.815,0.010,144.444,105.556,388.889,583.333,13.889,N
1129,0.335,1.880,-0.065,141.667,105.556,330.556,602.778,19.444,N
1130,0.220,1.765,-0.290,144.444,111.111,394.444,583.333,19.444,N
1131,0.100,1.655,-0.160,130.556,102.778,383.333,586.111,2.778,N
1132,0.185,1.760,-0.115,133.333,86.111,336.111,569.444,16.667,N
1133,0.160,1.815,-0.125,150.000,97.222,344.444,572.222,2.778,N
1134,-0.005,1.820,-0.040,58.333,91.667,327.778,438.889,133.333,V
1135,0.135,1.705,-0.190,138.889,100.000,386.111,722.222,283.333,N
1136,0.070,1.665,0.475,136.111,113.889,402.778,594.444,127.778,N
1137,0.770,-2.280,0.750,38.889,0.000,208.333,394.444,200.000,V
1138,0.035,1.670,-0.300,127.778,88.889,372.222,763.889,369.444,N
1139,-0.155,1.690,-0.190,66.667,94.444,319.444,475.000,288.889,V
1140,0.010,1.705,-0.235,138.889,116.667,386.111,711.111,236.111,N
1141,0.090,1.730,0.455,108.333,116.667,405.556,605.556,105.556,N
1142,0.835,-2.285,0.875,38.889,2.778,230.556,397.222,208.333,V
1143,0.055,1.775,-0.285,133.333,105.556,394.444,769.444,372.222,N
1144,0.120,1.775,-0.175,133.333,113.889,363.889,594.444,175.000,N
1145,0.140,1.840,-0.200,141.667,91.667,380.556,586.111,8.333,N
1146,0.125,1.775,-0.285,122.222,91.667,375.000,580.556,5.556,N
1147,0.020,1.745,-0.275,138.889,88.889,386.111,594.444,13.889,N
1148,0.055,1.665,-0.150,136.111,97.222,361.111,591.667,2.778,N
1149,0.070,1.685,-0.240,122.222,113.889,397.222,577.778,13.889,N
1150,-0.090,1.640,-0.200,58.333,94.444,316.667,461.111,116.667,V
1151,-0.105,1.680,-0.275,138.889,105.556,377.778,686.111,225.000,N
1152,0.075,1.730,0.740,141.667,108.333,402.778,600.000,86.111,N
1153,0.940,-2.260,0.915,38.889,2.778,213.889,391.667,208.333,V
1154,0.265,1.960,0.840,133.333,105.556,391.667,761.111,369.444,N
1155,0.840,-2.325,1.055,41.667,2.778,219.444,386.111,375.000,V
1156,0.295,2.025,0.420,133.333,105.556,394.444,766.667,380.556,N
1157,0.775,-2.290,1.035,38.889,5.556,194.444,402.778,363.889,V
1158,0.330,2.165,0.425,138.889,108.333,361.111,769.444,366.667,N
1159,0.425,1.765,0.285,144.444,91.667,305.556,455.556,313.889,V
1160,0.225,1.820,-0.335,113.889,94.444,372.222,716.667,261.111,N
1161,-0.020,1.720,0.690,147.222,105.556,402.778,583.333,133.333,N
1162,-0.205,0.775,0.765,72.222,97.222,297.222,350.000,233.333,V
1163,0.030,1.690,0.020,116.667,108.333,397.222,808.333,458.333,N
1164,0.695,-2.405,0.890,38.889,8.333,216.667,413.889,394.444,V
1165,0.115,1.725,0.305,144.444,111.111,405.556,769.444,355.556,N
1166,0.525,-2.605,0.855,41.667,2.778,205.556,397.222,372.222,V
1167,0.090,1.635,-0.195,141.667,108.333,375.000,758.333,361.111,N
1168,-0.195,1.415,-0.210,147.222,94.444,311.111,466.667,291.667,V
1169,-0.020,1.580,-0.225,141.667,97.222,366.667,688.889,222.222,N
1170,0.125,1.600,0.070,133.333,97.222,386.111,591.667,97.222,N
1171,0.610,-2.565,0.690,36.111,5.556,230.556,405.556,186.111,V
1172,-0.170,1.570,0.010,136.111,83.333,383.333,752.778,347.222,N
1173,0.435,-2.430,0.700,44.444,0.000,188.889,408.333,344.444,V
1174,0.250,1.785,0.375,136.111,100.000,388.889,672.222,263.889,N
1175,0.535,-2.230,0.825,41.667,5.556,211.111,400.000,272.222,V
1176,0.120,1.655,-0.255,136.111,111.111,383.333,780.556,380.556,N
1177,1.355,-1.760,-0.105,36.111,0.000,213.889,527.778,252.778,V
1178,0.035,1.560,-0.275,130.556,100.000,386.111,619.444,91.667,N
1179,0.030,1.530,0.115,133.333,111.111,405.556,583.333,36.111,N
1180,0.685,-2.505,0.785,38.889,5.556,208.333,405.556,177.778,V
1181,0.060,1.630,-0.305,138.889,111.111,386.111,761.111,355.556,N
1182,1.430,-1.710,-0.105,36.111,0.000,230.556,536.111,225.000,V
1183,0.025,1.665,-0.305,144.444,100.000,383.333,658.333,122.222,N
1184,-0.020,1.620,-0.310,144.444,88.889,352.778,586.111,72.222,N
1185,0.000,1.640,-0.250,138.889,94.444,377.778,575.000,11.111,N
1186,-0.155,1.560,-0.055,58.333,94.444,325.000,452.778,122.222,V
1187,0.125,1.660,-0.210,141.667,116.667,405.556,741.667,288.889,N
1188,0.120,1.655,-0.245,138.889,97.222,375.000,605.556,136.111,N
1189,0.115,1.735,-0.200,138.889,111.111,369.444,594.444,11.111,N
1190,0.170,1.805,-0.125,144.444,102.778,380.556,586.111,8.333,N
1191,0.205,1.795,-0.105,147.222,100.000,386.111,586.111,0.000,N
1192,0.235,1.765,0.105,138.889,111.111,405.556,583.333,2.778,N
1193,0.845,-2.245,0.950,36.111,5.556,211.111,411.111,172.222,V
1194,0.195,1.670,-0.190,141.667,97.222,358.333,763.889,352.778,N
1195,-0.080,1.660,-0.055,58.333,91.667,322.222,447.222,316.667,V
1196,0.120,1.770,-0.170,133.333,116.667,394.444,727.778,280.556,N
1197,0.150,1.635,-0.155,122.222,100.000,386.111,597.222,130.556,N
1198,0.165,1.720,-0.140,144.444,113.889,383.333,591.667,5.556,N
1199,0.085,1.520,-0.055,58.333,94.444,316.667,494.444,97.222,V
1200,0.610,-2.180,0.890,47.222,2.778,216.667,438.889,55.556,V
1201,0.165,1.660,-0.120,127.778,91.667,383.333,808.333,369.444,N
1202,-0.085,1.580,0.010,66.667,91.667,305.556,436.111,372.222,V
1203,0.285,1.920,0.065,147.222,100.000,380.556,738.889,302.778,N
1204,0.385,1.885,0.385,147.222,102.778,394.444,600.000,138.889,N
1205,1.035,-2.215,1.045,36.111,0.000,213.889,405.556,194.444,V
1206,0.270,1.805,-0.115,133.333,108.333,383.333,772.222,366.667,N
1207,0.140,1.660,-0.230,133.333,97.222,322.222,591.667,180.556,N
1208,0.095,1.545,-0.370,141.667,116.667,383.333,583.333,8.333,N
1209,-0.105,1.375,-0.520,136.111,108.333,366.667,588.889,5.556,N
1210,-0.195,1.360,-0.080,150.000,108.333,402.778,602.778,13.889,N
1211,0.460,-2.495,0.500,36.111,5.556,225.000,400.000,202.778,V
1212,-0.175,1.310,-0.540,133.333,83.333,355.556,766.667,366.667,N
1213,-0.245,0.895,-0.570,58.333,94.444,341.667,461.111,305.556,V
1214,-0.200,1.555,-0.255,116.667,108.333,394.444,683.333,222.222,N
1215,0.045,1.640,-0.145,138.889,91.667,355.556,600.000,83.333,N
1216,0.085,1.620,-0.290,141.667,91.667,327.778,600.000,0.000,N
1217,-0.220,1.155,-0.545,58.333,94.444,300.000,486.111,113.889,V
1218,1.215,-1.165,-0.320,183.333,8.333,347.222,186.111,300.000,|
1219,-0.160,1.635,-0.195,136.111,105.556,383.333,511.111,325.000,N
1220,0.130,1.765,-0.125,136.111,105.556,377.778,608.333,97.222,N
1221,0.105,1.740,-0.180,138.889,105.556,391.667,586.111,22.222,N
1222,0.035,1.500,-0.100,58.333,91.667,336.111,491.667,94.444,V
1223,0.120,1.785,-0.080,136.111,105.556,383.333,713.889,222.222,N
1224,0.245,1.875,0.065,141.667,105.556,347.222,602.778,111.111,N
1225,0.365,1.965,0.115,144.444,97.222,386.111,586.111,16.667,N
1226,0.275,1.705,0.155,55.556,88.889,322.222,477.778,108.333,V
1227,0.415,1.905,0.110,133.333,111.111,383.333,705.556,227.778,N
1228,0.380,1.860,0.090,138.889,97.222,336.111,597.222,108.333,N
1229,0.380,1.880,0.080,147.222,108.333,391.667,594.444,2.778,N
1230,0.225,1.810,0.140,58.333,94.444,316.667,477.778,116.667,V
1231,0.295,1.815,0.055,141.667,94.444,350.000,683.333,205.556,N
1232,0.290,1.780,0.460,130.556,86.111,383.333,572.222,111.111,N
1233,0.870,-1.815,0.635,41.667,2.778,222.222,402.778,169.444,V
1234,-0.245,-1.160,1.430,186.111,2.778,227.778,555.556,152.778,|
1235,-0.290,1.430,0.045,122.222,108.333,394.444,227.778,327.778,N
1236,0.305,1.545,0.060,130.556,116.667,402.778,575.000,347.222,N
1237,0.285,1.790,-0.160,136.111,94.444,344.444,569.444,5.556,N
1238,0.055,1.620,-0.305,138.889,102.778,347.222,575.000,5.556,N
1239,-0.055,1.525,-0.385,144.444,116.667,397.222,583.333,8.333,N
1240,-0.100,1.575,-0.300,136.111,105.556,391.667,575.000,8.333,N
1241,-0.320,0.695,0.730,58.333,100.000,308.333,391.667,183.333,V
1242,0.165,1.830,-0.115,136.111,108.333,386.111,788.889,397.222,N
1243,0.045,1.735,0.030,58.333,91.667,322.222,463.889,325.000,V
1244,0.255,1.895,0.025,130.556,91.667,375.000,694.444,230.556,N
1245,0.355,1.940,0.635,136.111,116.667,405.556,580.556,113.889,N
1246,1.085,-1.975,1.155,38.889,8.333,222.222,400.000,180.556,V
1247,0.465,1.970,0.090,138.889,108.333,383.333,797.222,397.222,N
1248,0.380,1.895,0.060,141.667,102.778,355.556,588.889,208.333,N
1249,0.375,1.845,0.145,130.556,105.556,397.222,566.667,22.222,N
1250,1.005,-2.155,0.940,36.111,5.556,205.556,413.889,152.778,V
1251,0.090,1.575,-0.480,136.111,94.444,369.444,761.111,347.222,N
1252,-0.195,1.465,-0.460,150.000,100.000,386.111,591.667,169.444,N
1253,-0.135,1.515,-0.340,144.444,116.667,402.778,591.667,0.000,N
1254,-0.190,1.535,-0.100,58.333,94.444,313.889,480.556,111.111,V
1255,0.135,1.755,-0.105,141.667,91.667,361.111,708.333,227.778,N
1256,0.200,1.750,0.905,136.111,100.000,388.889,583.333,125.000,N
1257,0.905,-2.275,0.970,38.889,2.778,213.889,386.111,197.222,V
1258,0.225,1.810,-0.095,141.667,100.000,377.778,816.667,430.556,N
1259,0.205,1.770,-0.195,138.889,91.667,336.111,605.556,211.111,N
1260,0.145,1.810,0.815,133.333,102.778,397.222,597.222,8.333,N
1261,0.915,-2.225,0.920,38.889,2.778,208.333,391.667,205.556,V
1262,0.395,2.005,0.220,116.667,97.222,372.222,800.000,408.333,N
1263,0.470,2.005,0.235,125.000,97.222,380.556,600.000,200.000,N
1264,0.465,1.965,0.305,138.889,97.222,388.889,602.778,2.778,N
1265,1.055,-1.970,0.940,38.889,5.556,225.000,413.889,188.889,V
1266,0.175,1.650,-0.440,138.889,102.778,363.889,777.778,363.889,N
1267,-0.200,1.370,-0.640,133.333,105.556,344.444,605.556,172.222,N
1268,-0.385,1.310,-0.420,138.889,113.889,405.556,594.444,11.111,N
1269,-0.580,0.535,0.600,55.556,97.222,311.111,377.778,216.667,V
1270,0.130,1.860,-0.050,141.667,94.444,358.333,841.667,463.889,N
1271,0.290,1.860,0.030,141.667,100.000,355.556,611.111,230.556,N
1272,0.335,1.900,0.355,141.667,100.000,391.667,580.556,30.556,N
1273,1.025,-2.240,1.035,36.111,2.778,200.000,405.556,175.000,V
1274,0.315,1.780,-0.020,133.333,86.111,358.333,775.000,369.444,N
1275,0.275,1.655,-0.085,138.889,116.667,391.667,602.778,172.222,N
1276,0.120,1.590,-0.030,144.444,88.889,383.333,597.222,5.556,N
1277,0.765,-2.350,0.665,36.111,2.778,211.111,411.111,186.111,V
1278,0.040,1.630,-0.035,141.667,111.111,405.556,761.111,350.000,N
1279,0.245,1.730,0.000,133.333,91.667,347.222,580.556,180.556,N
1280,0.265,1.570,0.035,144.444,113.889,405.556,588.889,8.333,N
1281,0.720,-2.280,0.645,38.889,5.556,208.333,413.889,175.000,V
1282,-0.070,1.375,-0.475,138.889,100.000,380.556,763.889,350.000,N
1283,-0.185,1.305,-0.520,136.111,97.222,322.222,597.222,166.667,N
1284,-0.200,1.280,-0.475,138.889,113.889,377.778,586.111,11.111,N
1285,1.175,-1.835,-0.315,36.111,2.778,233.333,525.000,61.111,V
1286,-0.110,1.450,-0.260,136.111,97.222,383.333,652.778,127.778,N
1287,0.055,1.550,0.115,136.111,105.556,397.222,611.111,41.667,N
1288,0.725,-2.345,0.795,36.111,5.556,227.778,405.556,205.556,V
1289,0.080,1.615,-0.255,138.889,100.000,383.333,788.889,383.333,N
1290,0.025,1.620,-0.250,133.333,94.444,347.222,600.000,188.889,N
1291,-0.025,1.685,-0.265,136.111,113.889,372.222,591.667,8.333,N
1292,-0.050,1.610,-0.340,138.889,97.222,383.333,605.556,13.889,N
1293,-0.115,1.565,-0.325,130.556,105.556,366.667,594.444,11.111,N
1294,-0.095,1.575,-0.340,136.111,113.889,405.556,600.000,5.556,N
1295,-0.105,1.525,-0.365,133.333,97.222,347.222,575.000,25.000,N
1296,-0.270,1.395,-0.245,58.333,94.444,319.444,444.444,130.556,V
1297,-0.180,1.445,-0.450,125.000,94.444,344.444,719.444,275.000,N
1298,-0.205,1.395,-0.505,141.667,113.889,380.556,591.667,127.778,N
1299,-0.275,1.375,-0.545,136.111,111.111,358.333,591.667,0.000,N
1300,-0.425,1.340,-0.400,58.333,94.444,325.000,463.889,127.778,V
1301,-0.225,1.515,-0.370,127.778,113.889,352.778,713.889,250.000,N
1302,-0.105,1.655,0.335,136.111,111.111,400.000,577.778,136.111,N
1303,-0.290,0.785,0.760,58.333,105.556,313.889,358.333,219.444,V
1304,0.015,1.760,-0.225,133.333,111.111,386.111,852.778,494.444,N
1305,0.025,1.670,-0.210,133.333,94.444,377.778,588.889,263.889,N
1306,0.000,1.690,-0.220,133.333,116.667,366.667,594.444,5.556,N
1307,0.015,1.665,-0.245,138.889,113.889,377.778,588.889,5.556,N
1308,-0.005,1.655,-0.265,136.111,111.111,347.222,594.444,5.556,N
1309,-0.045,1.605,-0.270,138.889,100.000,352.778,586.111,8.333,N
1310,-0.030,1.660,-0.245,138.889,100.000,388.889,600.000,13.889,N
1311,1.435,-1.655,-0.105,36.111,0.000,216.667,527.778,72.222,V
1312,-0.070,1.625,-0.320,133.333,113.889,386.111,652.778,125.000,N
1313,-0.090,1.565,0.620,127.778,116.667,405.556,580.556,72.222,N
1314,0.710,-2.430,0.780,36.111,5.556,222.222,388.889,191.667,V
1315,-0.110,1.630,-0.245,141.667,91.667,375.000,802.778,413.889,N
1316,-0.015,1.555,-0.155,58.333,91.667,311.111,500.000,302.778,V
1317,0.020,1.655,-0.120,113.889,108.333,375.000,672.222,172.222,N
1318,0.165,1.750,0.500,113.889,113.889,405.556,563.889,108.333,N
1319,0.965,-1.845,0.940,36.111,2.778,222.222,397.222,166.667,V
1320,0.235,1.750,-0.300,130.556,97.222,380.556,758.333,361.111,N
1321,-0.060,1.540,-0.430,144.444,100.000,347.222,588.889,169.444,N
1322,-0.165,1.445,-0.440,141.667,105.556,375.000,580.556,8.333,N
1323,-0.130,1.535,-0.340,136.111,108.333,358.333,594.444,13.889,N
1324,-0.025,1.555,-0.285,141.667,97.222,355.556,583.333,11.111,N
1325,0.020,1.605,-0.220,136.111,97.222,386.111,569.444,13.889,N
1326,0.115,1.645,-0.135,141.667,111.111,380.556,594.444,25.000,N
1327,0.165,1.675,-0.130,144.444,113.889,405.556,605.556,11.111,N
1328,0.155,1.695,-0.180,144.444,108.333,375.000,591.667,13.889,N
1329,0.125,1.685,-0.175,136.111,97.222,352.778,580.556,11.111,N
1330,0.110,1.710,-0.200,141.667,105.556,380.556,575.000,5.556,N
1331,0.105,1.695,-0.185,144.444,111.111,372.222,583.333,8.333,N
1332,0.115,1.730,-0.205,136.111,100.000,355.556,575.000,8.333,N
1333,0.105,1.650,-0.180,133.333,111.111,391.667,586.111,11.111,N
1334,0.120,1.695,-0.110,147.222,102.778,391.667,583.333,2.778,N
1335,0.210,1.735,-0.090,136.111,97.222,352.778,572.222,11.111,N
1336,0.200,1.775,-0.095,133.333,102.778,344.444,569.444,2.778,N
1337,0.205,1.730,-0.125,136.111,94.444,383.333,563.889,5.556,N
1338,0.160,1.685,-0.135,138.889,100.000,377.778,572.222,8.333,N
1339,0.125,1.720,-0.160,119.444,97.222,352.778,588.889,16.667,N
1340,0.840,-2.195,1.070,38.889,2.778,238.889,550.000,38.889,V
1341,1.070,-2.365,1.040,50.000,5.556,208.333,288.889,261.111,V
1342,0.190,1.805,-0.045,127.778,108.333,402.778,863.889,575.000,N
1343,0.045,1.765,-0.020,58.333,91.667,333.333,427.778,436.111,V
1344,0.165,1.780,-0.095,138.889,100.000,386.111,738.889,311.111,N
1345,0.155,1.730,-0.105,141.667,94.444,347.222,591.667,147.222,N
1346,0.115,1.665,-0.220,144.444,100.000,327.778,597.222,5.556,N
1347,1.340,-1.610,-0.165,36.111,2.778,219.444,508.333,88.889,V
1348,-0.320,0.840,0.685,197.222,97.222,316.667,472.222,36.111,V
1349,-0.100,1.620,-0.265,133.333,111.111,402.778,747.222,275.000,N
1350,0.015,1.745,-0.085,144.444,113.889,366.667,602.778,144.444,N
1351,0.090,1.765,-0.010,163.889,113.889,386.111,588.889,13.889,N
1352,0.205,1.820,-0.035,136.111,111.111,383.333,605.556,16.667,N
1353,0.210,1.765,0.825,141.667,91.667,386.111,577.778,27.778,N
1354,0.825,-1.855,0.815,38.889,5.556,208.333,386.111,191.667,V
1355,0.210,1.775,-0.060,130.556,108.333,388.889,761.111,375.000,N
1356,0.170,1.665,-0.095,119.444,94.444,352.778,583.333,177.778,N
1357,0.140,1.655,-0.150,138.889,94.444,350.000,569.444,13.889,N
1358,-0.135,0.870,0.820,61.111,91.667,291.667,413.889,155.556,V
1359,0.090,1.570,-0.215,136.111,116.667,400.000,719.444,305.556,N
1360,0.085,1.580,-0.190,133.333,94.444,380.556,572.222,147.222,N
1361,0.135,1.610,-0.180,144.444,111.111,402.778,586.111,13.889,N
1362,0.115,1.590,-0.195,144.444,111.111,377.778,597.222,11.111,N
1363,0.100,1.560,0.295,136.111,113.889,402.778,569.444,27.778,N
1364,0.635,-2.270,0.685,38.889,5.556,216.667,397.222,172.222,V
1365,0.025,1.565,-0.285,133.333,105.556,383.333,761.111,363.889,N
1366,-0.010,1.530,-0.260,119.444,94.444,352.778,583.333,177.778,N
1367,0.015,1.625,-0.205,133.333,97.222,383.333,572.222,11.111,N
1368,0.090,1.650,-0.190,133.333,102.778,363.889,588.889,16.667,N
1369,0.100,1.670,-0.135,144.444,116.667,383.333,594.444,5.556,N
1370,0.160,1.685,-0.120,136.111,111.111,380.556,566.667,27.778,N
1371,0.190,1.660,-0.115,136.111,111.111,380.556,569.444,2.778,N
1372,0.170,1.665,-0.080,138.889,108.333,386.111,566.667,2.778,N
1373,0.210,1.705,-0.045,144.444,100.000,377.778,580.556,13.889,N
1374,0.230,1.685,0.435,138.889,105.556,400.000,586.111,5.556,N
1375,0.875,-2.030,0.850,36.111,5.556,222.222,397.222,188.889,V
1376,0.120,1.675,-0.235,136.111,113.889,377.778,736.111,338.889,N
1377,0.000,1.530,-0.260,127.778,94.444,355.556,575.000,161.111,N
1378,-0.025,1.570,-0.275,138.889,97.222,383.333,572.222,2.778,N
1379,-0.020,1.500,-0.295,138.889,91.667,352.778,558.333,13.889,N
1380,-0.025,1.490,-0.275,136.111,97.222,383.333,569.444,11.111,N
1381,0.040,1.560,-0.260,144.444,105.556,377.778,591.667,22.222,N
1382,0.050,1.565,0.225,136.111,108.333,400.000,558.333,33.333,N
1383,0.655,-2.205,0.680,33.333,5.556,208.333,394.444,163.889,V
1384,0.045,1.575,-0.265,136.111,100.000,375.000,741.667,347.222,N
1385,0.830,-2.380,0.750,36.111,5.556,230.556,530.556,211.111,V
1386,0.085,1.590,-0.240,136.111,113.889,377.778,650.000,119.444,N
1387,1.445,-1.490,-0.045,36.111,2.778,219.444,525.000,125.000,V
1388,0.070,1.635,-0.170,138.889,100.000,388.889,616.667,91.667,N
1389,0.135,1.655,-0.155,136.111,113.889,394.444,575.000,41.667,N
1390,0.135,1.690,-0.170,138.889,94.444,338.889,597.222,22.222,N
1391,1.265,-1.455,0.015,38.889,2.778,230.556,536.111,61.111,V
1392,0.115,1.640,-0.170,150.000,100.000,377.778,630.556,94.444,N
1393,0.060,1.555,0.645,130.556,97.222,388.889,588.889,41.667,N
1394,-0.225,0.715,0.850,58.333,102.778,313.889,350.000,238.889,V
1395,0.135,1.655,-0.160,136.111,108.333,397.222,800.000,450.000,N
1396,0.130,1.650,-0.105,141.667,97.222,383.333,588.889,211.111,N
1397,0.165,1.740,-0.095,141.667,100.000,383.333,602.778,13.889,N
1398,0.175,1.800,-0.040,133.333,108.333,383.333,577.778,25.000,N
1399,0.215,1.855,0.005,113.889,113.889,375.000,583.333,5.556,N
1400,0.280,1.860,-0.010,133.333,83.333,402.778,561.111,22.222,N
1401,0.250,1.830,-0.030,141.667,97.222,347.222,583.333,22.222,N
1402,1.500,-1.300,0.125,33.333,0.000,219.444,527.778,55.556,V
1403,0.225,1.785,-0.040,141.667,97.222,380.556,633.333,105.556,N
1404,0.215,1.740,0.475,141.667,100.000,388.889,594.444,38.889,N
1405,0.920,-2.055,0.960,36.111,0.000,213.889,397.222,197.222,V
1406,0.230,1.770,-0.095,138.889,91.667,358.333,763.889,366.667,N
1407,0.160,1.690,-0.115,141.667,97.222,372.222,586.111,177.778,N
1408,0.130,1.695,-0.115,141.667,102.778,388.889,591.667,5.556,N
1409,0.145,1.720,-0.075,136.111,97.222,375.000,602.778,11.111,N
1410,0.155,1.695,0.490,144.444,113.889,405.556,591.667,11.111,N
1411,0.770,-2.145,0.910,33.333,2.778,213.889,391.667,200.000,V
1412,0.140,1.725,-0.110,130.556,116.667,383.333,769.444,377.778,N
1413,0.135,1.640,-0.080,138.889,108.333,377.778,597.222,172.222,N
1414,0.170,1.710,-0.060,138.889,113.889,405.556,591.667,5.556,N
1415,0.725,-2.065,0.705,38.889,2.778,211.111,416.667,175.000,V
1416,0.220,1.765,-0.040,136.111,94.444,369.444,775.000,358.333,N
1417,0.225,1.770,-0.035,141.667,111.111,380.556,580.556,194.444,N
1418,0.215,1.760,0.170,136.111,94.444,386.111,580.556,0.000,N
1419,0.900,-1.915,0.815,36.111,2.778,205.556,411.111,169.444,V
1420,-0.020,1.475,-0.065,147.222,97.222,386.111,752.778,341.667,N
1421,0.280,-2.380,0.545,38.889,8.333,216.667,400.000,352.778,V
1422,-0.125,1.540,-0.395,138.889,102.778,383.333,783.333,383.333,N
1423,-0.290,1.480,-0.205,63.889,94.444,316.667,436.111,347.222,V
1424,0.020,1.745,-0.180,144.444,102.778,383.333,725.000,288.889,N
1425,0.115,1.715,0.320,130.556,94.444,386.111,594.444,130.556,N
1426,-0.145,0.810,0.810,58.333,102.778,316.667,363.889,230.556,V
1427,0.665,1.530,0.155,197.222,102.778,350.000,486.111,122.222,V
1428,0.225,1.790,0.000,108.333,105.556,383.333,927.778,441.667,N
1429,0.285,1.800,-0.020,136.111,108.333,383.333,600.000,327.778,N
1430,0.265,1.780,0.385,141.667,113.889,405.556,572.222,27.778,N
1431,0.760,-1.900,0.895,41.667,8.333,219.444,402.778,169.444,V
1432,0.265,1.810,-0.040,138.889,94.444,369.444,788.889,386.111,N
1433,0.235,1.750,-0.050,141.667,100.000,380.556,594.444,194.444,N
1434,0.255,1.755,-0.105,138.889,108.333,347.222,577.778,16.667,N
1435,0.170,1.715,-0.115,133.333,94.444,355.556,580.556,2.778,N
1436,0.175,1.675,0.775,141.667,111.111,405.556,588.889,8.333,N
1437,-0.125,0.855,0.750,55.556,91.667,308.333,350.000,238.889,V
1438,0.175,1.755,-0.135,138.889,108.333,377.778,813.889,463.889,N
1439,0.180,1.725,-0.115,136.111,108.333,383.333,602.778,211.111,N
1440,0.175,1.655,-0.105,141.667,111.111,377.778,569.444,33.333,N
1441,0.195,1.680,-0.080,138.889,116.667,386.111,566.667,2.778,N
1442,0.200,1.650,-0.105,144.444,100.000,355.556,577.778,11.111,N
1443,0.205,1.580,-0.115,136.111,86.111,383.333,583.333,5.556,N
1444,0.810,-2.220,0.605,38.889,0.000,208.333,563.889,19.444,V
1445,0.225,1.725,0.685,147.222,94.444,380.556,611.111,47.222,N
1446,0.685,-2.060,0.860,38.889,0.000,205.556,377.778,233.333,V
1447,0.205,1.710,-0.110,138.889,113.889,375.000,755.556,377.778,N
1448,0.300,2.025,-0.025,58.333,116.667,116.667,477.778,277.778,V
1449,0.160,1.740,-0.055,144.444,102.778,394.444,677.778,200.000,N
1450,-0.145,0.780,0.775,58.333,102.778,308.333,383.333,294.444,V
1451,0.120,1.605,-0.145,136.111,88.889,383.333,797.222,413.889,N
1452,-0.085,1.570,-0.125,58.333,91.667,319.444,422.222,375.000,V
1453,0.055,1.585,-0.245,133.333,94.444,355.556,719.444,297.222,N
1454,0.070,1.590,-0.005,138.889,111.111,405.556,586.111,133.333,N
1455,0.735,-2.200,0.720,36.111,5.556,216.667,411.111,175.000,V
1456,0.060,1.590,0.365,144.444,113.889,405.556,763.889,352.778,N
1457,0.485,-2.340,0.730,41.667,5.556,216.667,397.222,366.667,V
1458,0.065,1.600,-0.250,141.667,116.667,405.556,758.333,361.111,N
1459,0.560,-2.205,0.780,38.889,5.556,216.667,433.333,325.000,V
1460,0.065,1.590,-0.265,133.333,97.222,377.778,722.222,288.889,N
1461,0.045,2.170,-0.255,133.333,88.889,400.000,597.222,125.000,N
1462,0.090,1.650,-0.215,141.667,113.889,372.222,586.111,11.111,N
1463,0.000,1.505,-0.115,58.333,94.444,308.333,472.222,113.889,V
1464,0.095,1.630,-0.195,141.667,94.444,386.111,694.444,222.222,N
1465,0.120,1.975,-0.045,125.000,91.667,405.556,558.333,136.111,F
1466,0.810,-2.265,0.895,36.111,2.778,211.111,413.889,144.444,V
1467,0.140,1.750,0.205,141.667,111.111,405.556,788.889,375.000,N
1468,0.625,-2.170,0.750,41.667,2.778,219.444,405.556,383.333,V
1469,0.140,1.735,0.150,133.333,88.889,383.333,750.000,344.444,N
1470,0.645,-2.050,0.805,41.667,8.333,208.333,408.333,341.667,V
1471,0.185,1.775,-0.080,141.667,102.778,383.333,755.556,347.222,N
1472,0.065,1.690,0.075,58.333,94.444,308.333,461.111,294.444,V
1473,0.290,1.870,-0.020,138.889,105.556,383.333,713.889,252.778,N
1474,0.275,1.845,0.515,141.667,105.556,397.222,600.000,113.889,N
1475,0.980,-2.045,0.985,36.111,0.000,211.111,397.222,202.778,V
1476,0.300,1.800,-0.065,130.556,94.444,377.778,758.333,361.111,N
1477,1.550,-1.480,0.075,38.889,2.778,219.444,525.000,233.333,V
1478,0.235,1.730,-0.145,147.222,116.667,386.111,661.111,136.111,N
1479,0.180,1.695,0.465,136.111,105.556,400.000,597.222,63.889,N
1480,0.845,-2.215,0.910,38.889,5.556,208.333,397.222,200.000,V
1481,0.185,1.710,0.310,136.111,94.444,386.111,755.556,358.333,N
1482,0.650,-2.345,0.960,38.889,8.333,213.889,400.000,355.556,V
1483,0.165,1.750,-0.020,130.556,108.333,400.000,775.000,375.000,N
1484,0.680,-2.270,0.870,41.667,5.556,216.667,419.444,355.556,V
1485,0.145,1.780,-0.185,138.889,97.222,380.556,777.778,358.333,N
1486,0.150,1.695,0.555,136.111,102.778,394.444,597.222,180.556,N
1487,0.765,-2.280,0.870,38.889,2.778,208.333,394.444,202.778,V
1488,0.130,1.715,-0.185,133.333,97.222,386.111,766.667,372.222,N
1489,1.305,-1.660,-0.025,36.111,2.778,227.778,541.667,225.000,V
1490,0.110,1.640,-0.210,147.222,100.000,383.333,658.333,116.667,N
1491,0.085,1.605,0.215,138.889,97.222,386.111,594.444,63.889,N
1492,0.760,-2.385,0.825,36.111,2.778,208.333,402.778,191.667,V
1493,0.085,1.695,0.295,136.111,94.444,383.333,766.667,363.889,N
1494,0.590,-2.380,0.795,38.889,5.556,227.778,400.000,366.667,V
1495,0.065,1.685,-0.205,138.889,111.111,400.000,777.778,377.778,N
1496,0.485,-2.515,0.720,41.667,2.778,213.889,419.444,358.333,V
1497,-0.130,1.435,-0.095,141.667,108.333,400.000,786.111,366.667,N
1498,0.295,-2.650,0.500,38.889,5.556,222.222,400.000,386.111,V
1499,-0.190,1.445,-0.475,136.111,108.333,391.667,769.444,369.444,N
1500,-0.070,1.515,-0.335,136.111,108.333,386.111,594.444,175.000,N
1501,0.005,1.660,-0.265,141.667,108.333,380.556,602.778,8.333,N
1502,-0.090,1.540,-0.050,58.333,94.444,311.111,477.778,125.000,V
1503,0.170,1.825,-0.100,141.667,116.667,388.889,702.778,225.000,N
1504,0.215,1.810,-0.115,141.667,113.889,350.000,588.889,113.889,N
1505,0.230,1.795,-0.005,144.444,113.889,400.000,580.556,8.333,N
1506,0.205,1.735,0.055,58.333,91.667,327.778,477.778,102.778,V
1507,0.260,1.850,-0.015,144.444,94.444,355.556,688.889,211.111,N
1508,0.280,1.855,0.425,141.667,111.111,402.778,586.111,102.778,N
1509,0.990,-1.890,1.015,36.111,5.556,202.778,400.000,186.111,V
1510,0.380,1.965,0.795,136.111,113.889,405.556,744.444,344.444,N
1511,0.870,-1.995,1.095,38.889,8.333,222.222,391.667,352.778,V
1512,0.360,1.990,0.025,144.444,97.222,377.778,786.111,394.444,N
1513,0.335,1.895,0.020,144.444,116.667,372.222,622.222,163.889,N
1514,0.325,1.920,-0.015,136.111,97.222,350.000,577.778,44.444,N
1515,0.295,1.870,-0.005,116.667,111.111,344.444,588.889,11.111,N
1516,0.295,1.895,0.335,136.111,105.556,397.222,583.333,5.556,N
1517,0.020,1.025,0.955,72.222,105.556,319.444,369.444,213.889,V
1518,0.245,1.785,-0.065,138.889,97.222,372.222,791.667,422.222,N
1519,0.230,1.780,-0.085,144.444,100.000,383.333,600.000,191.667,N
1520,0.195,1.740,0.315,141.667,91.667,386.111,600.000,0.000,N
1521,0.935,-2.100,0.860,36.111,2.778,208.333,402.778,197.222,V
1522,0.185,1.775,-0.115,136.111,111.111,380.556,744.444,341.667,N
1523,0.160,1.700,-0.110,141.667,105.556,383.333,591.667,152.778,N
1524,0.180,1.710,-0.110,152.778,113.889,388.889,605.556,13.889,N
1525,0.010,1.675,-0.030,58.333,94.444,316.667,466.667,138.889,V
1526,0.155,1.640,-0.205,136.111,105.556,386.111,691.667,225.000,N
1527,0.105,1.590,-0.230,141.667,105.556,341.667,580.556,111.111,N
1528,0.070,1.635,-0.230,144.444,102.778,391.667,580.556,0.000,N
1529,-0.075,1.605,-0.115,58.333,91.667,322.222,472.222,108.333,V
1530,0.770,-2.325,0.805,38.889,2.778,219.444,497.222,25.000,V
1531,0.105,1.635,-0.285,144.444,100.000,388.889,791.667,294.444,N
1532,-0.090,1.670,-0.220,58.333,94.444,325.000,480.556,311.111,V
1533,0.060,1.605,-0.170,136.111,97.222,352.778,700.000,219.444,N
1534,0.090,1.580,-0.175,133.333,108.333,386.111,577.778,122.222,N
1535,0.105,1.655,-0.145,144.444,97.222,383.333,580.556,2.778,N
1536,0.050,1.515,-0.050,58.333,94.444,313.889,486.111,94.444,V
1537,-0.040,1.505,-0.245,119.444,113.889,358.333,680.556,194.444,N
1538,0.025,1.585,-0.285,119.444,105.556,380.556,575.000,105.556,N
1539,0.015,1.530,-0.255,122.222,111.111,333.333,566.667,8.333,N
1540,0.015,1.370,-0.270,55.556,83.333,352.778,463.889,102.778,V
1541,-0.100,1.565,-0.190,136.111,86.111,347.222,672.222,208.333,N
1542,0.125,1.650,0.220,138.889,100.000,391.667,572.222,100.000,N
1543,0.890,-1.845,0.885,36.111,8.333,219.444,405.556,166.667,V
1544,0.245,1.700,-0.045,133.333,94.444,369.444,733.333,327.778,N
1545,1.530,-1.335,0.050,36.111,2.778,225.000,527.778,205.556,V
1546,0.140,1.595,-0.260,141.667,102.778,358.333,619.444,91.667,N
1547,0.055,1.400,-0.215,141.667,116.667,405.556,583.333,36.111,N
1548,0.420,-2.380,0.820,38.889,2.778,205.556,408.333,175.000,V
1549,0.895,2.510,1.410,111.111,100.000,377.778,750.000,341.667,N
1550,-0.095,2.885,2.955,909725.000,0.000,909716.667,447.222,302.778,V
1551,-0.095,2.425,2.955,910405.556,0.000,909716.667,680.556,233.333,N
1552,-0.095,2.075,0.945,911002.778,911061.111,911280.556,597.222,83.333,N
1553,0.935,1.645,0.430,141.667,113.889,136.111,575.000,22.222,N
1554,0.535,1.350,0.145,119.444,111.111,361.111,591.667,16.667,N
1555,0.340,1.260,-0.120,138.889,94.444,372.222,583.333,8.333,N
1556,0.105,1.005,-0.145,141.667,88.889,100.000,566.667,16.667,N
1557,-0.265,0.820,-0.420,169.444,100.000,397.222,572.222,5.556,N
1558,-0.165,0.755,-0.585,136.111,94.444,102.778,563.889,8.333,N
1559,-0.545,0.610,-0.775,136.111,113.889,377.778,591.667,27.778,N
1560,-0.545,0.690,-0.235,108.333,102.778,380.556,575.000,16.667,N
1561,-0.150,0.485,-0.095,136.111,94.444,-916161.111,575.000,0.000,N
1562,-0.875,0.335,-0.095,136.111,111.111,-916697.222,558.333,16.667,N
1563,-0.850,0.470,-0.095,113.889,105.556,-917263.889,558.333,0.000,N
1564,-0.840,0.515,-0.095,111.111,88.889,-917844.444,569.444,11.111,N
1565,-0.790,0.645,-0.910,133.333,102.778,344.444,563.889,5.556,N
1566,-0.595,0.795,-0.620,122.222,108.333,400.000,575.000,11.111,N
1567,0.020,-2.640,0.360,36.111,2.778,205.556,411.111,163.889,V
1568,-0.320,1.050,-0.585,127.778,111.111,397.222,713.889,302.778,N
1569,-0.255,1.080,-0.680,127.778,111.111,391.667,563.889,150.000,N
1570,-0.365,1.150,-0.450,136.111,102.778,388.889,566.667,2.778,N
1571,-0.600,0.260,0.570,52.778,100.000,330.556,377.778,188.889,V
1572,-0.070,1.315,0.095,125.000,88.889,383.333,761.111,383.333,N
1573,0.330,-2.330,0.685,38.889,2.778,222.222,402.778,358.333,V
1574,0.005,1.400,-0.300,133.333,83.333,358.333,736.111,333.333,N
1575,0.020,1.400,-0.305,136.111,100.000,372.222,572.222,163.889,N
1576,-0.085,1.400,-0.045,122.222,88.889,386.111,563.889,8.333,N
1577,-0.265,0.670,0.795,69.444,97.222,308.333,377.778,186.111,V
1578,0.055,1.600,-0.055,136.111,97.222,386.111,769.444,391.667,N
1579,0.485,-1.945,0.800,38.889,5.556,222.222,413.889,355.556,V
1580,0.105,1.655,-0.120,122.222,105.556,400.000,719.444,305.556,N
1581,0.115,1.615,-0.135,138.889,102.778,377.778,558.333,161.111,N
1582,0.200,1.550,-0.050,147.222,102.778,388.889,569.444,11.111,N
1583,0.205,1.660,-0.065,127.778,113.889,358.333,583.333,13.889,N
1584,0.195,1.635,0.500,133.333,108.333,397.222,561.111,22.222,N
1585,-0.190,0.575,0.815,58.333,105.556,308.333,352.778,208.333,V
1586,0.150,1.680,0.315,102.778,102.778,402.778,755.556,402.778,N
1587,-0.210,0.550,0.810,58.333,108.333,308.333,358.333,397.222,V
1588,0.195,1.710,-0.050,127.778,83.333,372.222,766.667,408.333,N
1589,0.235,1.805,-0.110,130.556,94.444,141.667,572.222,194.444,N
1590,0.205,1.645,-0.130,125.000,100.000,380.556,580.556,8.333,N
1591,0.215,1.685,-0.065,130.556,91.667,386.111,569.444,11.111,N
1592,0.180,1.635,0.070,136.111,108.333,400.000,566.667,2.778,N
1593,0.355,1.755,0.105,127.778,102.778,380.556,547.222,19.444,N
1594,0.355,1.795,0.050,116.667,113.889,375.000,580.556,33.333,N
1595,0.305,1.670,0.020,141.667,116.667,388.889,594.444,13.889,N
1596,0.210,1.635,-0.110,111.111,113.889,350.000,569.444,25.000,N
1597,0.120,1.525,-0.185,111.111,94.444,327.778,569.444,0.000,N
1598,0.095,1.505,-0.250,138.889,111.111,369.444,561.111,8.333,N
1599,0.075,1.485,-0.125,141.667,111.111,405.556,569.444,8.333,N
1600,0.725,-1.965,0.750,36.111,2.778,205.556,416.667,152.778,V
1601,0.090,1.560,-0.250,136.111,116.667,380.556,716.667,300.000,N
1602,-0.045,1.400,-0.385,119.444,116.667,352.778,572.222,144.444,N
1603,-0.220,1.185,-0.520,130.556,116.667,405.556,566.667,5.556,N
1604,-0.585,0.200,0.295,47.222,80.556,280.556,375.000,191.667,V
1605,-0.425,1.070,-0.650,105.556,111.111,402.778,744.444,369.444,N
1606,-0.355,1.200,-0.410,138.889,111.111,388.889,572.222,172.222,N
1607,-0.145,1.365,0.315,136.111,113.889,402.778,583.333,11.111,N
1608,0.550,-2.125,0.735,38.889,5.556,219.444,394.444,188.889,V
1609,0.280,1.655,0.960,111.111,108.333,341.667,736.111,341.667,N
1610,1.100,2.150,0.640,138.889,100.000,347.222,563.889,172.222,N
1611,0.795,1.960,0.445,147.222,100.000,327.778,569.444,5.556,N
1612,0.600,1.780,0.220,127.778,105.556,341.667,561.111,8.333,N
1613,0.440,1.670,0.085,136.111,94.444,352.778,577.778,16.667,N
1614,0.265,1.660,0.120,116.667,102.778,375.000,566.667,11.111,N
1615,0.315,1.110,-0.490,136.111,91.667,383.333,575.000,8.333,N
1616,0.430,-2.055,0.280,41.667,5.556,219.444,566.667,8.333,F
1617,0.050,1.600,-0.020,138.889,108.333,386.111,566.667,0.000,N
1618,0.345,1.775,0.370,138.889,116.667,405.556,575.000,8.333,N
1619,0.010,0.955,1.130,75.000,105.556,319.444,363.889,211.111,V
1620,0.400,1.805,0.015,122.222,94.444,391.667,783.333,419.444,N
1621,0.295,1.745,0.070,105.556,111.111,333.333,563.889,219.444,N
1622,0.330,1.785,0.325,133.333,97.222,366.667,555.556,8.333,N
1623,0.315,1.765,0.025,130.556,94.444,386.111,561.111,5.556,N
1624,0.375,1.915,0.445,133.333,102.778,325.000,563.889,2.778,N
1625,0.435,1.960,0.320,113.889,97.222,330.556,575.000,11.111,N
1626,0.625,1.855,0.320,136.111,116.667,344.444,555.556,19.444,N
1627,0.530,1.835,0.150,108.333,111.111,336.111,569.444,13.889,N
1628,0.265,1.575,-0.040,138.889,108.333,369.444,563.889,5.556,N
1629,0.235,1.670,0.120,141.667,108.333,341.667,550.000,13.889,N
1630,0.440,1.825,0.265,136.111,97.222,352.778,563.889,13.889,N
1631,0.525,1.815,0.250,138.889,97.222,355.556,569.444,5.556,N
1632,0.525,1.825,0.145,136.111,116.667,388.889,561.111,8.333,N
1633,0.415,1.740,0.090,130.556,111.111,355.556,563.889,2.778,N
1634,0.330,1.730,0.110,138.889,97.222,347.222,552.778,11.111,N
1635,0.435,1.545,0.100,113.889,97.222,383.333,555.556,2.778,N
1636,0.385,1.585,0.410,130.556,108.333,402.778,558.333,2.778,N
1637,0.715,-2.090,0.880,38.889,5.556,225.000,400.000,158.333,V
1638,0.215,1.470,-0.195,141.667,116.667,377.778,738.889,338.889,N
1639,0.100,1.430,-0.130,127.778,97.222,361.111,575.000,163.889,N
1640,0.150,1.470,-0.200,141.667,113.889,369.444,566.667,8.333,N
1641,0.080,1.360,-0.285,136.111,111.111,380.556,555.556,11.111,N
1642,-0.020,1.310,-0.285,136.111,113.889,388.889,561.111,5.556,N
1643,-0.010,1.265,-0.300,138.889,113.889,375.000,577.778,16.667,N
1644,-0.025,1.325,-0.315,136.111,113.889,383.333,561.111,16.667,N
1645,-0.005,1.385,-0.300,136.111,111.111,380.556,566.667,5.556,N
1646,-0.040,1.335,-0.355,138.889,100.000,344.444,558.333,8.333,N
1647,-0.085,1.220,-0.230,144.444,97.222,386.111,558.333,0.000,N
1648,0.405,-2.390,0.515,33.333,2.778,200.000,408.333,150.000,V
1649,-0.215,1.160,-0.115,113.889,111.111,405.556,713.889,305.556,N
1650,0.155,-2.495,0.455,41.667,5.556,216.667,402.778,311.111,V
1651,-0.115,1.320,-0.140,133.333,100.000,391.667,744.444,341.667,N
1652,0.245,-2.345,0.550,41.667,2.778,202.778,408.333,336.111,V
1653,0.550,-1.985,0.255,102.778,2.778,191.667,308.333,100.000,V
1654,-0.155,1.330,-0.465,133.333,116.667,405.556,936.111,627.778,N
1655,-0.100,1.350,-0.380,144.444,111.111,350.000,602.778,333.333,N
1656,-0.060,1.345,-0.305,138.889,113.889,369.444,569.444,33.333,N
1657,-0.020,1.435,-0.320,136.111,113.889,372.222,575.000,5.556,N
1658,-0.005,1.390,-0.355,150.000,100.000,375.000,569.444,5.556,N
1659,-0.040,1.370,-0.360,138.889,100.000,386.111,572.222,2.778,N
1660,-0.080,1.335,-0.385,136.111,91.667,366.667,575.000,2.778,N
1661,-0.090,1.335,-0.380,144.444,108.333,391.667,583.333,8.333,N
1662,-0.105,1.320,-0.455,141.667,111.111,380.556,583.333,0.000,N
1663,-0.195,1.225,-0.545,136.111,111.111,377.778,575.000,8.333,N
1664,-0.260,1.180,-0.540,138.889,97.222,347.222,572.222,2.778,N
1665,-0.230,1.195,-0.450,141.667,94.444,386.111,563.889,8.333,N
1666,-0.140,1.355,-0.315,144.444,100.000,386.111,580.556,16.667,N
1667,-0.005,1.475,-0.205,141.667,105.556,383.333,600.000,19.444,N
1668,0.130,1.535,0.635,138.889,105.556,397.222,566.667,33.333,N
1669,0.635,-1.980,0.940,36.111,5.556,205.556,386.111,180.556,V
1670,0.280,1.675,-0.025,133.333,91.667,380.556,741.667,355.556,N
1671,0.325,2.220,-0.105,58.333,116.667,116.667,466.667,275.000,V
1672,0.275,1.655,-0.070,141.667,116.667,369.444,691.667,225.000,N
1673,0.165,1.590,-0.080,116.667,111.111,380.556,591.667,100.000,N
1674,0.260,1.680,-0.040,147.222,116.667,405.556,600.000,8.333,N
1675,0.260,1.665,0.290,141.667,113.889,405.556,569.444,30.556,N
1676,0.755,-1.850,0.915,36.111,5.556,202.778,402.778,166.667,V
1677,0.250,1.650,-0.075,136.111,111.111,405.556,727.778,325.000,N
1678,1.130,-1.370,0.175,36.111,0.000,230.556,558.333,169.444,V
1679,0.225,1.580,-0.115,141.667,113.889,388.889,636.111,77.778,N
1680,0.170,1.465,0.615,144.444,97.222,386.111,583.333,52.778,N
1681,0.615,-2.170,0.805,36.111,5.556,200.000,383.333,200.000,V
1682,0.035,1.355,-0.385,133.333,94.444,383.333,747.222,363.889,N
1683,-0.130,2.005,0.235,58.333,91.667,358.333,486.111,261.111,V
1684,0.235,-1.865,0.345,47.222,2.778,191.667,347.222,138.889,V
1685,-0.140,1.295,-0.485,133.333,116.667,405.556,894.444,547.222,N
1686,-0.145,1.270,-0.465,133.333,111.111,383.333,600.000,294.444,N
1687,-0.155,1.245,0.255,144.444,97.222,386.111,577.778,22.222,N
1688,0.270,-2.515,0.555,38.889,5.556,205.556,388.889,188.889,V
1689,-0.090,1.360,-0.410,138.889,105.556,386.111,758.333,369.444,N
1690,-0.180,1.265,-0.205,58.333,94.444,313.889,491.667,266.667,V
1691,-0.005,1.445,-0.295,141.667,97.222,380.556,694.444,202.778,N
1692,-0.005,1.415,0.560,138.889,108.333,405.556,591.667,102.778,N
1693,0.560,-2.280,0.755,36.111,2.778,208.333,383.333,208.333,V
1694,0.025,1.460,-0.325,144.444,88.889,375.000,761.111,377.778,N
1695,1.315,-1.620,-0.140,36.111,2.778,227.778,516.667,244.444,V
1696,0.090,1.535,-0.205,138.889,108.333,377.778,666.667,150.000,N
1697,0.125,1.555,0.670,141.667,113.889,405.556,600.000,66.667,N
1698,0.725,-2.130,0.875,38.889,2.778,208.333,388.889,211.111,V
1699,0.190,1.615,0.460,130.556,97.222,388.889,763.889,375.000,N
1700,0.540,-2.215,0.955,41.667,5.556,211.111,394.444,369.444,V
1701,0.340,1.775,0.000,141.667,102.778,383.333,783.333,388.889,N
1702,0.305,1.705,-0.020,138.889,111.111,369.444,608.333,175.000,N
1703,0.280,1.745,0.020,144.444,113.889,391.667,586.111,22.222,N
1704,0.325,1.755,-0.045,138.889,111.111,386.111,577.778,8.333,N
1705,0.260,1.705,0.255,136.111,111.111,402.778,577.778,0.000,N
1706,-0.070,1.055,0.730,63.889,94.444,302.778,375.000,202.778,V
1707,0.235,1.640,0.210,144.444,111.111,402.778,786.111,411.111,N
1708,0.525,-2.290,0.850,38.889,5.556,213.889,402.778,383.333,V
1709,0.135,1.630,-0.100,138.889,86.111,383.333,797.222,394.444,N
1710,-0.060,1.565,-0.080,63.889,86.111,322.222,419.444,377.778,V
1711,0.110,1.630,-0.240,113.889,108.333,405.556,744.444,325.000,N
1712,0.110,1.620,-0.160,138.889,111.111,352.778,597.222,147.222,N
1713,0.155,1.725,-0.105,147.222,116.667,405.556,605.556,8.333,N
1714,-0.025,1.720,0.000,58.333,91.667,333.333,438.889,166.667,V
1715,0.220,1.735,-0.030,136.111,116.667,405.556,725.000,286.111,N
1716,0.295,1.760,-0.015,141.667,105.556,355.556,586.111,138.889,N
1717,0.315,1.830,0.000,144.444,111.111,344.444,577.778,8.333,N
1718,0.095,1.790,0.115,58.333,91.667,311.111,441.667,136.111,V
1719,0.325,1.795,-0.035,136.111,102.778,383.333,719.444,277.778,N
1720,0.290,1.730,0.660,141.667,113.889,402.778,605.556,113.889,N
1721,0.815,-2.200,0.920,36.111,0.000,200.000,391.667,213.889,V
1722,0.155,1.640,0.475,130.556,97.222,386.111,761.111,369.444,N
1723,0.475,-2.520,0.835,41.667,5.556,216.667,388.889,372.222,V
1724,0.015,1.560,-0.370,141.667,111.111,405.556,791.667,402.778,N
1725,-0.055,1.470,-0.315,138.889,116.667,375.000,605.556,186.111,N
1726,0.000,1.500,0.345,138.889,97.222,386.111,575.000,30.556,N
1727,0.515,-2.295,0.590,36.111,2.778,208.333,391.667,183.333,V
1728,-0.065,1.455,-0.465,133.333,111.111,380.556,755.556,363.889,N
1729,-0.120,1.435,-0.415,141.667,111.111,330.556,602.778,152.778,N
1730,-0.095,1.475,-0.035,141.667,111.111,405.556,569.444,33.333,N
1731,0.580,-2.400,0.655,38.889,2.778,213.889,408.333,161.111,V
1732,-0.110,1.515,-0.330,127.778,113.889,402.778,769.444,361.111,N
1733,-0.020,1.550,-0.250,136.111,116.667,391.667,580.556,188.889,N
1734,0.100,1.690,0.200,133.333,111.111,405.556,569.444,11.111,N
1735,-0.235,0.785,0.810,66.667,97.222,316.667,363.889,205.556,V
1736,0.085,1.725,-0.190,144.444,100.000,388.889,811.111,447.222,N
1737,0.150,1.785,-0.085,141.667,100.000,386.111,586.111,225.000,N
1738,0.235,1.805,0.715,138.889,113.889,402.778,580.556,5.556,N
1739,-0.065,0.925,0.995,58.333,100.000,311.111,352.778,227.778,V
1740,0.270,1.840,-0.040,138.889,97.222,380.556,791.667,438.889,N
1741,0.265,1.840,-0.065,133.333,105.556,344.444,591.667,200.000,N
1742,0.265,1.830,-0.055,141.667,108.333,394.444,588.889,2.778,N
1743,0.260,1.775,-0.045,141.667,100.000,388.889,588.889,0.000,N
1744,0.270,1.870,0.285,136.111,108.333,402.778,583.333,5.556,N
1745,0.960,-2.100,1.120,38.889,0.000,211.111,408.333,175.000,V
1746,0.415,1.980,0.075,130.556,116.667,402.778,736.111,327.778,N
1747,0.405,1.945,0.090,141.667,113.889,372.222,591.667,144.444,N
1748,0.420,1.920,-0.005,144.444,111.111,352.778,600.000,8.333,N
1749,0.285,1.800,-0.065,141.667,111.111,391.667,583.333,16.667,N
1750,0.250,1.830,0.385,130.556,111.111,405.556,572.222,11.111,N
1751,0.860,-2.190,0.985,36.111,5.556,208.333,400.000,172.222,V
1752,0.030,1.570,-0.320,138.889,113.889,402.778,741.667,341.667,N
1753,-0.220,1.670,-0.245,58.333,91.667,322.222,427.778,313.889,V
1754,0.025,1.620,-0.175,136.111,97.222,352.778,722.222,294.444,N
1755,0.140,1.660,-0.160,136.111,116.667,380.556,586.111,136.111,N
1756,0.120,1.615,-0.155,138.889,113.889,372.222,575.000,11.111,N
1757,0.190,1.560,-0.110,130.556,97.222,336.111,572.222,2.778,N
1758,0.125,1.590,0.085,141.667,102.778,397.222,577.778,5.556,N
1759,0.680,-2.275,0.830,38.889,5.556,205.556,408.333,169.444,V
1760,0.110,1.590,-0.190,138.889,111.111,383.333,766.667,358.333,N
1761,0.135,1.670,-0.220,138.889,102.778,344.444,588.889,177.778,N
1762,0.075,1.585,0.100,130.556,91.667,336.111,558.333,30.556,N
1763,0.100,1.805,-0.100,144.444,105.556,391.667,422.222,136.111,A
1764,0.235,1.760,0.045,136.111,116.667,405.556,663.889,241.667,N
1765,0.365,1.800,0.405,147.222,94.444,388.889,583.333,80.556,N
1766,0.845,-2.065,1.125,38.889,0.000,211.111,405.556,177.778,V
1767,0.335,1.780,0.120,138.889,116.667,405.556,755.556,350.000,N
1768,0.120,1.590,-0.005,75.000,91.667,302.778,422.222,333.333,V
1769,-0.015,1.460,-0.180,133.333,97.222,375.000,733.333,311.111,N
1770,0.030,1.360,-0.345,141.667,100.000,338.889,591.667,141.667,N
1771,-0.110,1.310,-0.350,144.444,116.667,375.000,583.333,8.333,N
1772,-0.330,1.060,-0.245,61.111,91.667,311.111,430.556,152.778,V
1773,-0.135,1.275,-0.380,127.778,111.111,391.667,719.444,288.889,N
1774,-0.040,1.445,-0.260,136.111,102.778,372.222,569.444,150.000,N
1775,0.080,1.565,-0.070,138.889,113.889,352.778,569.444,0.000,N
1776,-0.030,1.550,0.240,69.444,94.444,311.111,444.444,125.000,V
1777,0.770,2.105,0.400,141.667,102.778,375.000,700.000,255.556,N
1778,0.705,2.070,0.410,141.667,102.778,380.556,586.111,113.889,N
1779,0.735,2.025,0.390,138.889,105.556,402.778,577.778,8.333,N
1780,1.770,-1.140,0.580,36.111,0.000,211.111,472.222,105.556,V
1781,0.675,1.950,0.350,133.333,94.444,377.778,650.000,177.778,N
1782,0.615,1.880,0.700,138.889,91.667,383.333,580.556,69.444,N
1783,1.080,-1.980,1.280,38.889,2.778,216.667,402.778,177.778,V
1784,0.520,1.805,0.155,133.333,113.889,388.889,755.556,352.778,N
1785,0.430,1.675,0.125,141.667,113.889,361.111,588.889,166.667,N
1786,0.400,1.690,0.100,141.667,102.778,386.111,563.889,25.000,N
1787,0.360,1.645,0.060,136.111,100.000,352.778,569.444,5.556,N
1788,0.330,1.595,0.585,130.556,113.889,405.556,569.444,0.000,N
1789,0.585,-2.300,0.760,47.222,2.778,211.111,394.444,175.000,V
1790,0.085,1.445,-0.270,138.889,97.222,380.556,766.667,372.222,N
1791,-0.200,1.365,-0.170,58.333,91.667,308.333,458.333,308.333,V
1792,-0.055,1.405,-0.315,141.667,94.444,388.889,700.000,241.667,N
1793,-0.020,1.415,0.400,138.889,111.111,405.556,561.111,138.889,N
1794,0.560,-2.450,0.830,36.111,2.778,208.333,391.667,169.444,V
1795,0.170,1.465,-0.330,141.667,94.444,352.778,758.333,366.667,N
1796,1.150,-1.935,-0.320,36.111,2.778,219.444,511.111,247.222,V
1797,-0.270,1.145,-0.680,133.333,100.000,388.889,630.556,119.444,N
1798,-0.500,1.040,-0.215,113.889,102.778,397.222,566.667,63.889,N
1799,0.020,-2.975,-0.010,38.889,2.778,213.889,394.444,172.222,V
1800,-0.685,0.975,-0.960,133.333,97.222,352.778,738.889,344.444,N
1801,-0.675,0.835,-0.745,58.333,94.444,313.889,477.778,261.111,V
1802,-0.510,1.270,-0.690,141.667,116.667,375.000,666.667,188.889,N
1803,-0.370,1.330,0.100,133.333,113.889,405.556,575.000,91.667,N
1804,-0.495,0.500,0.690,66.667,102.778,308.333,358.333,216.667,V
1805,0.190,1.845,0.425,116.667,108.333,405.556,769.444,411.111,N
1806,0.770,-2.130,1.130,38.889,5.556,219.444,402.778,366.667,V
1807,0.315,1.875,-0.060,136.111,105.556,383.333,780.556,377.778,N
1808,0.275,1.860,-0.020,136.111,111.111,366.667,577.778,202.778,N
1809,0.310,1.910,-0.050,133.333,113.889,352.778,569.444,8.333,N
1810,0.255,1.835,-0.065,147.222,100.000,350.000,580.556,11.111,N
1811,0.225,1.860,0.290,144.444,108.333,400.000,577.778,2.778,N
1812,0.830,-2.145,1.015,36.111,5.556,202.778,400.000,177.778,V
1813,0.245,1.805,-0.055,133.333,108.333,380.556,744.444,344.444,N
1814,0.310,1.840,-0.040,144.444,111.111,380.556,597.222,147.222,N
1815,0.285,1.840,-0.015,138.889,113.889,402.778,569.444,27.778,N
1816,0.045,1.585,0.080,61.111,91.667,294.444,422.222,147.222,V
1817,0.215,1.760,-0.145,138.889,111.111,400.000,711.111,288.889,N
1818,0.175,1.725,-0.160,144.444,105.556,344.444,591.667,119.444,N
1819,0.120,1.670,-0.190,136.111,97.222,375.000,591.667,0.000,N
1820,0.155,1.660,-0.180,138.889,108.333,347.222,577.778,13.889,N
1821,0.150,1.685,0.200,136.111,100.000,394.444,563.889,13.889,N
1822,-0.160,0.845,0.005,122.222,86.111,291.667,363.889,200.000,V
1823,0.200,1.790,-0.080,138.889,102.778,355.556,697.222,333.333,N
1824,0.250,1.760,-0.050,144.444,116.667,397.222,591.667,105.556,N
1825,0.265,1.750,-0.085,144.444,100.000,369.444,588.889,2.778,N
1826,0.270,1.715,-0.090,144.444,108.333,336.111,600.000,11.111,N
1827,0.235,1.735,0.140,144.444,97.222,388.889,575.000,25.000,N
1828,0.775,-2.235,0.945,38.889,2.778,202.778,411.111,163.889,V
1829,0.125,1.600,-0.335,136.111,94.444,369.444,736.111,325.000,N
1830,-0.240,1.250,-0.190,58.333,91.667,316.667,438.889,297.222,V
1831,-0.065,1.440,-0.355,133.333,113.889,402.778,752.778,313.889,N
1832,0.005,1.520,-0.210,141.667,102.778,330.556,597.222,155.556,N
1833,0.125,1.625,-0.150,144.444,102.778,350.000,572.222,25.000,N
1834,0.170,1.620,-0.170,136.111,100.000,355.556,569.444,2.778,N
1835,0.115,1.550,-0.280,136.111,91.667,319.444,586.111,16.667,N
1836,0.015,1.420,-0.335,141.667,102.778,352.778,580.556,5.556,N
1837,0.000,1.445,-0.355,147.222,111.111,369.444,586.111,5.556,N
1838,-0.030,1.485,0.200,125.000,88.889,383.333,575.000,11.111,N
1839,0.510,-2.280,0.430,41.667,5.556,202.778,400.000,175.000,V
1840,0.050,1.605,-0.270,136.111,113.889,380.556,683.333,283.333,N
1841,1.370,-1.755,-0.040,38.889,2.778,216.667,516.667,166.667,V
1842,0.175,1.685,-0.100,147.222,102.778,386.111,677.778,161.111,N
1843,0.235,1.750,-0.045,138.889,113.889,372.222,586.111,91.667,N
1844,0.310,1.800,0.010,138.889,111.111,402.778,586.111,0.000,N
1845,0.100,1.655,0.685,58.333,91.667,383.333,430.556,155.556,V
1846,0.685,-2.235,1.140,41.667,2.778,202.778,369.444,61.111,V
1847,0.310,1.880,-0.015,133.333,97.222,388.889,916.667,547.222,N
1848,0.155,1.655,0.230,58.333,91.667,302.778,472.222,444.444,V
1849,0.365,1.915,0.055,147.222,97.222,358.333,733.333,261.111,N
1850,0.420,1.965,0.145,138.889,108.333,344.444,583.333,150.000,N
1851,0.420,1.920,0.195,141.667,94.444,350.000,586.111,2.778,N
1852,0.525,2.035,0.235,141.667,91.667,358.333,586.111,0.000,N
1853,0.540,2.125,0.400,141.667,113.889,402.778,597.222,11.111,N
1854,1.040,-1.855,1.240,38.889,2.778,202.778,413.889,183.333,V
1855,0.480,2.040,0.070,141.667,111.111,386.111,750.000,336.111,N
1856,0.390,1.920,-0.015,141.667,116.667,372.222,575.000,175.000,N
1857,0.285,1.835,-0.020,133.333,94.444,288.889,577.778,2.778,N
1858,-0.020,2.010,-0.100,161.111,108.333,363.889,411.111,166.667,A
1859,0.195,1.735,-0.130,136.111,100.000,380.556,655.556,244.444,N
1860,0.170,1.720,-0.150,138.889,97.222,375.000,605.556,50.000,N
1861,0.170,1.735,-0.110,138.889,100.000,394.444,600.000,5.556,N
1862,-0.075,1.480,-0.015,58.333,91.667,311.111,419.444,180.556,V
1863,0.125,1.640,-0.165,138.889,97.222,361.111,730.556,311.111,N
1864,0.155,1.640,-0.200,141.667,111.111,391.667,588.889,141.667,N
1865,0.150,1.655,-0.180,150.000,97.222,358.333,611.111,22.222,N
1866,-0.050,1.585,-0.035,58.333,91.667,308.333,455.556,155.556,V
1867,0.140,1.690,-0.155,136.111,97.222,383.333,719.444,263.889,N
1868,0.180,1.680,-0.145,144.444,116.667,380.556,591.667,127.778,N
1869,0.140,1.700,-0.130,144.444,105.556,383.333,580.556,11.111,N
1870,-0.015,1.530,0.060,58.333,94.444,305.556,452.778,127.778,V
1871,0.205,1.695,-0.110,144.444,111.111,397.222,708.333,255.556,N
1872,0.195,1.690,-0.120,150.000,102.778,283.333,605.556,102.778,N
1873,-0.120,1.410,-0.150,150.000,111.111,402.778,386.111,219.444,A
1874,0.145,1.685,-0.175,136.111,97.222,386.111,675.000,288.889,N
1875,0.125,1.610,-0.160,130.556,102.778,391.667,577.778,97.222,N
