id,Pamp,Ramp,Tamp,PR,QRS,QT,RRI,dRRI,label
1,-0.735,-0.115,-0.765,136.111,83.333,383.333,688.889,38.889,N
2,-0.765,-0.185,-0.870,147.222,61.111,352.778,713.889,25.000,N
3,-0.810,-0.095,-0.780,147.222,77.778,388.889,677.778,36.111,N
4,-0.740,-0.060,-0.795,144.444,77.778,377.778,708.333,30.556,N
5,-0.765,-0.120,-0.900,144.444,88.889,405.556,675.000,33.333,N
6,-0.875,-0.240,-0.895,141.667,69.444,383.333,711.111,36.111,N
7,-0.825,-0.195,-0.770,138.889,86.111,386.111,680.556,30.556,N
8,-0.735,-0.135,-0.725,138.889,75.000,386.111,661.111,19.444,N
9,-0.745,-0.045,-0.695,150.000,72.222,380.556,694.444,33.333,N
10,-0.595,0.095,-0.565,147.222,83.333,405.556,688.889,5.556,N
11,-0.495,0.170,-0.550,136.111,83.333,380.556,691.667,2.778,N
12,-0.510,0.120,-0.580,147.222,63.889,380.556,680.556,11.111,N
13,-0.540,0.060,-0.625,141.667,83.333,386.111,691.667,11.111,N
14,-0.600,0.015,-0.625,136.111,83.333,388.889,688.889,2.778,N
15,-0.625,-0.060,-0.645,144.444,61.111,380.556,691.667,2.778,N
16,-0.665,-0.080,-0.675,141.667,80.556,383.333,711.111,19.444,N
17,-0.680,-0.095,-0.715,150.000,86.111,380.556,686.111,25.000,N
18,-0.705,-0.090,-0.725,138.889,80.556,377.778,688.889,2.778,N
19,-0.670,-0.030,-0.710,144.444,86.111,402.778,672.222,16.667,N
20,-0.635,0.020,-0.685,141.667,61.111,380.556,711.111,38.889,N
21,-0.640,-0.010,-0.720,144.444,86.111,383.333,688.889,22.222,N
22,-0.675,-0.040,-0.705,144.444,63.889,377.778,677.778,11.111,N
23,-0.650,-0.075,-0.700,150.000,72.222,391.667,700.000,22.222,N
24,-0.650,-0.055,-0.695,144.444,86.111,380.556,691.667,8.333,N
25,-0.660,-0.125,-0.720,144.444,61.111,358.333,700.000,8.333,N
26,-0.690,-0.135,-0.705,147.222,58.333,377.778,708.333,8.333,N
27,-0.695,-0.125,-0.725,144.444,86.111,383.333,722.222,13.889,N
28,-0.705,-0.140,-0.760,144.444,61.111,355.556,711.111,11.111,N
29,-0.745,-0.160,-0.755,150.000,66.667,386.111,705.556,5.556,N
30,-0.725,-0.095,-0.735,152.778,61.111,377.778,730.556,25.000,N
31,-0.690,-0.005,-0.715,150.000,69.444,380.556,708.333,22.222,N
32,-0.685,-0.015,-0.705,141.667,72.222,380.556,702.778,5.556,N
33,-0.665,-0.050,-0.685,150.000,63.889,380.556,694.444,8.333,N
34,-0.630,-0.040,-0.705,147.222,88.889,383.333,722.222,27.778,N
35,-0.690,-0.090,-0.740,155.556,66.667,386.111,711.111,11.111,N
36,-0.735,-0.055,-0.735,150.000,72.222,386.111,702.778,8.333,N
37,-0.665,0.025,-0.655,150.000,63.889,383.333,730.556,27.778,N
38,-0.605,0.150,-0.650,144.444,77.778,383.333,708.333,22.222,N
39,-0.605,0.065,-0.655,150.000,63.889,375.000,694.444,13.889,N
40,-0.625,0.050,-0.680,150.000,80.556,386.111,713.889,19.444,N
41,-0.660,-0.050,-0.725,150.000,69.444,375.000,722.222,8.333,N
42,-0.705,-0.085,-0.765,147.222,77.778,372.222,716.667,5.556,N
43,-0.735,-0.095,-0.675,147.222,66.667,388.889,680.556,36.111,N
44,-0.610,0.070,-0.580,147.222,72.222,380.556,741.667,61.111,N
45,-0.530,0.080,-0.595,147.222,86.111,386.111,680.556,61.111,N
46,-0.540,0.060,-0.590,144.444,63.889,383.333,708.333,27.778,N
47,-0.590,0.030,-0.665,155.556,80.556,391.667,716.667,8.333,N
48,-0.625,-0.030,-0.695,141.667,86.111,386.111,708.333,8.333,N
49,-0.665,-0.075,-0.655,147.222,86.111,383.333,702.778,5.556,N
50,-0.645,-0.040,-0.695,141.667,83.333,388.889,697.222,5.556,N
51,-0.695,-0.100,-0.800,144.444,80.556,383.333,730.556,33.333,N
52,-0.825,-0.215,-0.835,144.444,77.778,388.889,694.444,36.111,N
53,-0.815,-0.220,-0.795,141.667,69.444,347.222,697.222,2.778,N
54,-0.705,-0.150,-0.725,144.444,102.778,400.000,680.556,16.667,N
55,-0.765,-0.075,-0.755,136.111,72.222,377.778,688.889,8.333,N
56,-0.745,-0.035,-0.715,141.667,75.000,388.889,697.222,8.333,N
57,-0.695,0.050,-0.715,141.667,75.000,383.333,675.000,22.222,N
58,-0.640,0.060,-0.645,150.000,66.667,377.778,722.222,47.222,N
59,-0.625,0.015,-0.690,144.444,55.556,350.000,691.667,30.556,N
60,-0.645,-0.030,-0.695,144.444,88.889,383.333,694.444,2.778,N
61,-0.690,-0.070,-0.765,150.000,58.333,375.000,708.333,13.889,N
62,-0.790,-0.090,-0.800,144.444,66.667,377.778,708.333,0.000,N
63,-0.770,0.030,-0.615,147.222,83.333,386.111,719.444,11.111,N
64,-0.585,0.135,-0.670,141.667,83.333,386.111,697.222,22.222,N
65,-0.630,0.040,-0.715,150.000,58.333,355.556,708.333,11.111,N
66,-0.675,-0.005,-0.700,138.889,83.333,386.111,688.889,19.444,N
67,-0.675,-0.045,-0.695,144.444,83.333,386.111,702.778,13.889,N
68,-0.645,-0.040,-0.680,147.222,61.111,375.000,708.333,5.556,N
69,-0.655,-0.040,-0.675,138.889,77.778,358.333,719.444,11.111,N
70,-0.685,-0.065,-0.685,133.333,86.111,388.889,683.333,36.111,N
71,-0.640,0.065,-0.600,136.111,86.111,380.556,697.222,13.889,N
72,-0.530,0.195,-0.550,152.778,61.111,377.778,708.333,11.111,N
73,-0.535,0.180,-0.610,141.667,61.111,358.333,691.667,16.667,N
74,-0.570,0.105,-0.605,150.000,61.111,347.222,708.333,16.667,N
75,-0.535,0.100,-0.590,138.889,77.778,377.778,686.111,22.222,N
76,-0.545,0.080,-0.565,144.444,86.111,383.333,708.333,22.222,N
77,-0.570,0.080,-0.585,136.111,75.000,372.222,694.444,13.889,N
78,-0.550,0.070,-0.570,147.222,72.222,388.889,713.889,19.444,N
79,-0.545,0.055,-0.580,141.667,88.889,391.667,725.000,11.111,N
80,-0.585,0.035,-0.670,147.222,75.000,383.333,716.667,8.333,N
81,-0.580,0.135,-0.555,136.111,77.778,380.556,708.333,8.333,N
82,-0.565,0.085,-0.660,147.222,55.556,375.000,713.889,5.556,N
83,-0.650,0.005,-0.700,127.778,72.222,380.556,711.111,2.778,N
84,-0.685,-0.025,-0.680,147.222,86.111,386.111,713.889,2.778,N
85,-0.660,-0.025,-0.675,133.333,77.778,377.778,697.222,16.667,N
86,-0.710,-0.130,-0.730,138.889,63.889,352.778,716.667,19.444,N
87,-0.760,-0.055,-0.730,130.556,80.556,386.111,677.778,38.889,N
88,-0.865,-0.190,-0.750,138.889,69.444,-63472.222,705.556,27.778,N
89,-0.750,-0.240,-0.750,64211.111,72.222,-64166.667,697.222,8.333,N
90,-0.750,-0.190,-0.975,64925.000,88.889,405.556,713.889,16.667,N
91,-0.880,-0.045,-0.760,133.333,80.556,388.889,686.111,27.778,N
92,-0.690,0.015,-0.675,119.444,61.111,380.556,688.889,2.778,N
93,-0.610,0.080,-0.535,138.889,77.778,377.778,711.111,22.222,N
94,-0.550,0.135,-0.490,155.556,66.667,369.444,683.333,27.778,N
95,-0.435,0.230,-0.460,155.556,77.778,369.444,711.111,27.778,N
96,-0.440,0.320,-0.445,136.111,83.333,400.000,683.333,27.778,N
97,-0.435,0.290,-0.440,147.222,75.000,391.667,700.000,16.667,N
98,-0.390,0.255,-0.410,130.556,69.444,375.000,688.889,11.111,N
99,-0.405,0.240,-0.430,136.111,80.556,386.111,705.556,16.667,N
100,-0.415,0.205,-0.495,136.111,66.667,372.222,700.000,5.556,N
101,-0.485,0.095,-0.570,147.222,69.444,386.111,686.111,13.889,N
102,-0.520,0.105,-0.610,136.111,72.222,377.778,680.556,5.556,N
103,-0.575,0.075,-0.590,155.556,66.667,383.333,688.889,8.333,N
104,-0.530,0.095,-0.600,141.667,88.889,400.000,694.444,5.556,N
105,-0.550,0.105,-0.615,136.111,72.222,377.778,686.111,8.333,N
106,-0.575,0.010,-0.705,122.222,69.444,352.778,683.333,2.778,N
107,-0.705,-0.010,-0.780,138.889,80.556,383.333,688.889,5.556,N
108,-0.680,0.045,-0.560,138.889,69.444,383.333,688.889,0.000,N
109,-0.420,0.370,-0.455,119.444,88.889,405.556,694.444,5.556,N
110,-0.430,0.280,-0.585,141.667,91.667,388.889,686.111,8.333,N
111,-0.560,0.185,-0.690,136.111,83.333,383.333,708.333,22.222,N
112,-0.655,0.035,-0.730,138.889,88.889,386.111,691.667,16.667,N
113,-0.680,0.005,-0.750,133.333,80.556,386.111,694.444,2.778,N
114,-0.760,-0.050,-0.845,133.333,83.333,397.222,700.000,5.556,N
115,-0.840,-0.100,-0.855,141.667,75.000,383.333,694.444,5.556,N
116,-0.770,0.020,-0.710,133.333,80.556,383.333,711.111,16.667,N
117,-0.660,0.105,-0.710,138.889,88.889,386.111,677.778,33.333,N
118,-0.640,0.060,-0.745,141.667,80.556,383.333,697.222,19.444,N
119,-0.720,-0.015,-0.725,136.111,72.222,380.556,683.333,13.889,N
120,-0.700,-0.075,-0.740,144.444,72.222,372.222,691.667,8.333,N
121,-0.755,-0.155,-0.860,138.889,88.889,388.889,691.667,0.000,N
122,-0.875,-0.200,-0.950,136.111,75.000,369.444,694.444,2.778,N
123,-0.930,-0.185,-0.920,138.889,83.333,386.111,677.778,16.667,N
124,-0.855,-0.115,-0.890,136.111,83.333,383.333,688.889,11.111,N
125,-0.865,-0.120,-0.885,150.000,72.222,380.556,691.667,2.778,N
126,-0.845,-0.165,-0.860,133.333,86.111,402.778,688.889,2.778,N
127,-0.810,-0.100,-0.820,136.111,80.556,375.000,694.444,5.556,N
128,-0.785,-0.115,-0.780,144.444,86.111,405.556,675.000,19.444,N
129,-0.745,-0.100,-0.745,130.556,77.778,383.333,683.333,8.333,N
130,-0.735,-0.070,-0.695,138.889,75.000,380.556,694.444,11.111,N
131,-0.730,-0.080,-0.765,138.889,88.889,405.556,688.889,5.556,N
132,-0.745,-0.005,-0.720,141.667,86.111,388.889,691.667,2.778,N
133,-0.675,0.145,-0.495,169.444,80.556,386.111,694.444,2.778,N
134,-0.405,0.315,-0.530,141.667,80.556,380.556,675.000,19.444,N
135,-0.510,0.185,-0.635,144.444,66.667,383.333,675.000,0.000,N
136,-0.615,0.035,-0.760,147.222,58.333,352.778,697.222,22.222,N
137,-0.760,-0.075,-0.835,152.778,66.667,383.333,675.000,22.222,N
138,-0.830,-0.190,-0.915,130.556,69.444,350.000,675.000,0.000,N
139,-0.885,-0.215,-0.875,138.889,80.556,380.556,675.000,0.000,N
140,-0.910,-0.230,-0.900,133.333,83.333,377.778,675.000,0.000,N
141,-0.890,-0.255,-0.935,130.556,77.778,386.111,683.333,8.333,N
142,-0.930,-0.315,-0.940,136.111,55.556,347.222,686.111,2.778,N
143,-0.910,-0.300,-0.965,144.444,83.333,377.778,702.778,16.667,N
144,-0.955,-0.350,-0.980,136.111,86.111,380.556,691.667,11.111,N
145,-0.750,-0.290,-0.975,102863.889,80.556,391.667,686.111,5.556,N
146,-0.890,-0.165,-0.855,144.444,88.889,402.778,691.667,5.556,N
147,-0.820,-0.120,-0.780,138.889,61.111,377.778,702.778,11.111,N
148,-0.735,-0.070,-0.740,147.222,69.444,358.333,700.000,2.778,N
149,-0.670,-0.050,-0.675,136.111,75.000,380.556,680.556,19.444,N
150,-0.640,-0.030,-0.650,136.111,83.333,380.556,705.556,25.000,N
151,-0.610,-0.050,-0.690,141.667,80.556,375.000,702.778,2.778,N
152,-0.660,-0.065,-0.730,130.556,66.667,377.778,688.889,13.889,N
153,-0.735,-0.080,-0.790,144.444,86.111,380.556,713.889,25.000,N
154,-0.755,-0.005,-0.730,141.667,88.889,402.778,702.778,11.111,N
155,-0.670,0.105,-0.710,138.889,88.889,380.556,700.000,2.778,N
156,-0.680,0.055,-0.785,133.333,69.444,380.556,683.333,16.667,N
157,-0.720,-0.025,-0.790,136.111,66.667,358.333,713.889,30.556,N
158,-0.740,-0.025,-0.785,141.667,83.333,383.333,697.222,16.667,N
159,-0.765,-0.020,-0.735,130.556,75.000,377.778,697.222,0.000,N
160,-0.735,-0.110,-0.770,141.667,83.333,388.889,697.222,0.000,N
161,-0.735,-0.075,-0.725,136.111,80.556,386.111,705.556,8.333,N
162,-0.700,-0.065,-0.720,141.667,77.778,369.444,702.778,2.778,N
163,-0.695,-0.030,-0.680,138.889,69.444,383.333,683.333,19.444,N
164,-0.635,0.095,-0.535,138.889,86.111,383.333,725.000,41.667,N
165,-0.460,0.270,-0.475,141.667,72.222,380.556,686.111,38.889,N
166,-0.430,0.245,-0.480,133.333,72.222,383.333,691.667,5.556,N
167,-0.480,0.190,-0.550,152.778,88.889,394.444,711.111,19.444,N
168,-0.500,0.140,-0.560,138.889,80.556,383.333,702.778,8.333,N
169,-0.535,0.090,-0.545,138.889,83.333,380.556,700.000,2.778,N
170,-0.530,0.020,-0.680,147.222,86.111,377.778,680.556,19.444,N
171,-0.710,-0.060,-0.785,136.111,63.889,355.556,705.556,25.000,N
172,-0.760,0.035,-0.620,141.667,66.667,377.778,677.778,27.778,N
173,-0.570,0.155,-0.645,133.333,69.444,380.556,700.000,22.222,N
174,-0.625,0.060,-0.700,144.444,63.889,380.556,688.889,11.111,N
175,-0.655,-0.010,-0.720,133.333,86.111,386.111,686.111,2.778,N
176,-0.690,-0.040,-0.735,133.333,72.222,380.556,691.667,5.556,N
177,-0.700,-0.110,-0.775,141.667,77.778,383.333,680.556,11.111,N
178,-0.730,-0.110,-0.745,144.444,88.889,394.444,719.444,38.889,N
179,-0.725,-0.130,-0.750,141.667,72.222,383.333,694.444,25.000,N
180,-0.740,-0.120,-0.745,130.556,66.667,355.556,694.444,0.000,N
181,-0.690,-0.045,-0.690,147.222,86.111,402.778,694.444,0.000,N
182,-0.635,0.000,-0.660,141.667,86.111,397.222,705.556,11.111,N
183,-0.610,-0.015,-0.665,136.111,88.889,391.667,691.667,13.889,N
184,-0.630,-0.095,-0.670,141.667,86.111,386.111,702.778,11.111,N
185,-0.660,-0.110,-0.650,166.667,77.778,380.556,725.000,22.222,N
186,-0.660,-0.125,-0.655,144.444,80.556,377.778,705.556,19.444,N
187,-0.600,-0.045,-0.650,144.444,86.111,386.111,700.000,5.556,N
188,-0.610,-0.050,-0.645,150.000,58.333,377.778,716.667,16.667,N
189,-0.615,0.000,-0.670,147.222,66.667,355.556,725.000,8.333,N
190,-0.630,-0.040,-0.705,150.000,58.333,377.778,705.556,19.444,N
191,-0.675,-0.055,-0.740,138.889,80.556,383.333,686.111,19.444,N
192,-0.715,-0.135,-0.735,158.333,66.667,380.556,722.222,36.111,N
193,-0.730,-0.175,-0.790,144.444,69.444,372.222,700.000,22.222,N
194,-0.765,-0.175,-0.755,152.778,72.222,375.000,708.333,8.333,N
195,-0.720,-0.110,-0.735,150.000,72.222,380.556,727.778,19.444,N
196,-0.690,-0.030,-0.720,144.444,75.000,377.778,711.111,16.667,N
197,-0.695,-0.045,-0.765,141.667,83.333,383.333,697.222,13.889,N
198,-0.745,-0.115,-0.765,152.778,80.556,391.667,702.778,5.556,N
199,-0.735,-0.105,-0.730,155.556,86.111,383.333,738.889,36.111,N
200,-0.680,-0.085,-0.710,155.556,63.889,383.333,708.333,30.556,N
201,-0.670,-0.055,-0.735,138.889,75.000,380.556,716.667,8.333,N
202,-0.710,-0.060,-0.760,155.556,61.111,383.333,719.444,2.778,N
203,-0.715,0.000,-0.720,138.889,75.000,380.556,713.889,5.556,N
204,-0.690,0.030,-0.750,147.222,88.889,391.667,708.333,5.556,N
205,-0.685,-0.025,-0.750,152.778,63.889,377.778,716.667,8.333,N
206,-0.700,-0.055,-0.775,147.222,86.111,383.333,725.000,8.333,N
207,-0.740,-0.115,-0.825,147.222,69.444,383.333,705.556,19.444,N
208,-0.825,-0.140,-0.905,144.444,75.000,386.111,711.111,5.556,N
209,-0.940,-0.210,-0.960,147.222,88.889,405.556,719.444,8.333,N
210,-0.930,-0.150,-0.870,141.667,66.667,377.778,713.889,5.556,N
211,-0.765,0.060,-0.730,141.667,75.000,380.556,702.778,11.111,N
212,-0.680,0.045,-0.825,141.667,77.778,377.778,675.000,27.778,N
213,-0.580,0.160,-0.680,138.889,83.333,380.556,700.000,25.000,N
214,-0.615,0.100,-0.670,147.222,66.667,380.556,686.111,13.889,N
215,-0.610,0.045,-0.695,144.444,63.889,380.556,688.889,2.778,N
216,-0.655,-0.015,-0.685,147.222,69.444,383.333,708.333,19.444,N
217,-0.655,-0.075,-0.650,141.667,58.333,372.222,694.444,13.889,N
218,-0.580,0.140,-0.645,136.111,83.333,383.333,691.667,2.778,N
219,-0.605,0.095,-0.660,141.667,77.778,386.111,694.444,2.778,N
220,-0.615,0.055,-0.690,141.667,86.111,383.333,705.556,11.111,N
221,-0.640,0.055,-0.635,141.667,75.000,383.333,691.667,13.889,N
222,-0.600,0.025,-0.635,136.111,72.222,380.556,700.000,8.333,N
223,-0.630,0.000,-0.650,147.222,63.889,372.222,697.222,2.778,N
224,-0.680,-0.060,-0.705,141.667,72.222,383.333,702.778,5.556,N
225,-0.725,-0.040,-0.725,136.111,72.222,383.333,700.000,2.778,N
226,-0.725,-0.005,-0.665,147.222,69.444,386.111,697.222,2.778,N
227,-0.630,0.050,-0.690,141.667,86.111,383.333,716.667,19.444,N
228,-0.670,0.000,-0.690,141.667,72.222,377.778,691.667,25.000,N
229,-0.685,-0.010,-0.690,141.667,80.556,383.333,702.778,11.111,N
230,-0.675,-0.010,-0.675,147.222,80.556,388.889,705.556,2.778,N
231,-0.665,-0.055,-0.680,136.111,75.000,377.778,697.222,8.333,N
232,-0.670,-0.080,-0.670,141.667,61.111,355.556,708.333,11.111,N
233,-0.700,-0.070,-0.695,138.889,77.778,383.333,691.667,16.667,N
234,-0.715,-0.095,-0.675,138.889,86.111,380.556,711.111,19.444,N
235,-0.680,-0.105,-0.700,144.444,83.333,377.778,697.222,13.889,N
236,-0.710,-0.115,-0.685,144.444,83.333,380.556,700.000,2.778,N
237,-0.685,-0.075,-0.720,147.222,83.333,380.556,700.000,0.000,N
238,-0.700,-0.025,-0.675,144.444,86.111,377.778,705.556,5.556,N
239,-0.650,0.010,-0.685,138.889,86.111,383.333,691.667,13.889,N
240,-0.685,-0.005,-0.675,163.889,72.222,380.556,688.889,2.778,N
241,-0.655,-0.015,-0.635,138.889,80.556,380.556,711.111,22.222,N
242,-0.640,-0.050,-0.620,141.667,66.667,380.556,686.111,25.000,N
243,-0.630,-0.015,-0.605,136.111,80.556,361.111,700.000,13.889,N
244,-0.615,-0.015,-0.625,147.222,83.333,386.111,683.333,16.667,N
245,-0.630,-0.025,-0.650,141.667,80.556,380.556,697.222,13.889,N
246,-0.665,-0.060,-0.700,150.000,80.556,375.000,705.556,8.333,N
247,-0.695,-0.060,-0.720,141.667,83.333,383.333,697.222,8.333,N
248,-0.690,-0.050,-0.695,150.000,63.889,355.556,713.889,16.667,N
249,-0.645,0.040,-0.665,144.444,86.111,383.333,691.667,22.222,N
250,-0.635,0.015,-0.660,144.444,61.111,377.778,705.556,13.889,N
251,-0.620,0.010,-0.615,152.778,69.444,383.333,711.111,5.556,N
252,-0.595,0.020,-0.640,150.000,72.222,383.333,730.556,19.444,N
253,-0.630,0.005,-0.675,152.778,86.111,383.333,719.444,11.111,N
254,-0.700,-0.015,-0.765,144.444,88.889,383.333,705.556,13.889,N
255,-0.730,0.035,-0.720,150.000,86.111,391.667,716.667,11.111,N
256,-0.665,0.075,-0.735,150.000,86.111,397.222,719.444,2.778,N
257,-0.665,0.050,-0.700,150.000,66.667,380.556,705.556,13.889,N
258,-0.695,0.030,-0.765,161.111,83.333,377.778,716.667,11.111,N
259,-0.705,-0.075,-0.790,150.000,66.667,377.778,716.667,0.000,N
260,-0.765,-0.050,-0.840,163.889,77.778,380.556,711.111,5.556,N
261,-0.755,0.025,-0.770,150.000,77.778,386.111,705.556,5.556,N
262,-0.715,0.070,-0.765,150.000,83.333,388.889,736.111,30.556,N
263,-0.715,-0.010,-0.760,150.000,86.111,402.778,713.889,22.222,N
264,-0.730,-0.055,-0.810,163.889,77.778,383.333,716.667,2.778,N
265,-0.775,-0.060,-0.815,152.778,69.444,380.556,725.000,8.333,N
266,-0.815,-0.055,-0.775,150.000,80.556,383.333,713.889,11.111,N
267,-0.675,0.115,-0.680,144.444,80.556,391.667,733.333,19.444,N
268,-0.630,0.115,-0.700,152.778,66.667,377.778,719.444,13.889,N
269,-0.635,0.060,-0.690,150.000,69.444,375.000,733.333,13.889,N
270,-0.635,0.015,-0.700,147.222,77.778,377.778,716.667,16.667,N
271,-0.630,-0.015,-0.670,150.000,66.667,383.333,716.667,0.000,N
272,-0.660,-0.015,-0.680,152.778,72.222,377.778,741.667,25.000,N
273,-0.680,-0.100,-0.700,155.556,72.222,388.889,727.778,13.889,N
274,-0.680,-0.080,-0.700,141.667,61.111,352.778,725.000,2.778,N
275,-0.680,-0.080,-0.680,155.556,63.889,377.778,708.333,16.667,N
276,-0.665,-0.025,-0.690,144.444,86.111,383.333,716.667,8.333,N
277,-0.675,-0.060,-0.680,147.222,86.111,383.333,705.556,11.111,N
278,-0.640,-0.030,-0.630,147.222,63.889,375.000,713.889,8.333,N
279,-0.635,-0.060,-0.675,150.000,52.778,352.778,719.444,5.556,N
280,-0.680,-0.080,-0.710,141.667,69.444,361.111,708.333,11.111,N
281,-0.730,-0.055,-0.710,141.667,75.000,380.556,683.333,25.000,N
282,-0.670,0.045,-0.660,150.000,75.000,380.556,730.556,47.222,N
283,-0.635,0.060,-0.685,152.778,72.222,380.556,697.222,33.333,N
284,-0.645,-0.005,-0.675,144.444,86.111,377.778,713.889,16.667,N
285,-0.665,-0.070,-0.730,155.556,80.556,388.889,691.667,22.222,N
286,-0.715,-0.170,-0.775,147.222,72.222,361.111,719.444,27.778,N
287,-0.790,-0.145,-0.780,152.778,63.889,375.000,711.111,8.333,N
288,-0.765,-0.005,-0.680,150.000,77.778,386.111,700.000,11.111,N
289,-0.645,0.080,-0.665,158.333,72.222,386.111,727.778,27.778,N
290,-0.630,0.050,-0.650,141.667,69.444,386.111,691.667,36.111,N
291,-0.610,0.035,-0.650,147.222,63.889,358.333,700.000,8.333,N
292,-0.625,-0.020,-0.710,147.222,83.333,386.111,691.667,8.333,N
293,-0.670,-0.060,-0.730,144.444,86.111,383.333,708.333,16.667,N
294,-0.730,-0.075,-0.750,138.889,77.778,383.333,688.889,19.444,N
295,-0.745,-0.065,-0.730,138.889,75.000,375.000,669.444,19.444,N
296,-0.670,0.060,-0.695,144.444,88.889,388.889,705.556,36.111,N
297,-0.660,0.055,-0.715,141.667,80.556,386.111,688.889,16.667,N
298,-0.670,-0.045,-0.715,138.889,61.111,375.000,688.889,0.000,N
299,-0.680,-0.070,-0.700,144.444,69.444,380.556,702.778,13.889,N
300,-0.665,-0.070,-0.710,138.889,86.111,388.889,716.667,13.889,N
301,-0.670,-0.115,-0.720,144.444,58.333,352.778,711.111,5.556,N
302,-0.730,-0.155,-0.750,141.667,66.667,380.556,705.556,5.556,N
303,-0.740,-0.090,-0.780,150.000,69.444,383.333,738.889,33.333,N
304,-0.745,-0.060,-0.760,141.667,86.111,391.667,713.889,25.000,N
305,-0.720,0.035,-0.745,141.667,86.111,377.778,708.333,5.556,N
306,-0.695,0.000,-0.735,147.222,88.889,405.556,697.222,11.111,N
307,-0.675,-0.055,-0.705,150.000,69.444,386.111,711.111,13.889,N
308,-0.700,-0.060,-0.700,141.667,69.444,375.000,711.111,0.000,N
309,-0.720,-0.120,-0.785,138.889,75.000,377.778,700.000,11.111,N
310,-0.800,-0.220,-0.880,150.000,77.778,358.333,730.556,30.556,N
311,-0.885,-0.240,-0.880,141.667,72.222,391.667,691.667,38.889,N
312,-0.835,-0.150,-0.805,138.889,83.333,383.333,686.111,5.556,N
313,-0.745,-0.020,-0.750,155.556,69.444,380.556,722.222,36.111,N
314,-0.690,-0.005,-0.710,133.333,77.778,386.111,705.556,16.667,N
315,-0.670,0.025,-0.645,144.444,80.556,383.333,702.778,2.778,N
316,-0.625,-0.030,-0.610,141.667,72.222,386.111,686.111,16.667,N
317,-0.560,0.045,-0.555,141.667,86.111,383.333,719.444,33.333,N
318,-0.510,0.060,-0.565,144.444,83.333,377.778,702.778,16.667,N
319,-0.560,0.035,-0.605,147.222,72.222,386.111,716.667,13.889,N
320,-0.615,-0.045,-0.695,144.444,88.889,400.000,727.778,11.111,N
321,-0.695,-0.060,-0.720,141.667,86.111,388.889,722.222,5.556,N
322,-0.665,-0.015,-0.655,138.889,77.778,386.111,691.667,30.556,N
323,-0.615,0.000,-0.665,147.222,86.111,402.778,713.889,22.222,N
324,-0.590,-0.015,-0.635,133.333,80.556,380.556,722.222,8.333,N
325,-0.590,-0.055,-0.645,144.444,86.111,380.556,711.111,11.111,N
326,-0.620,-0.050,-0.625,133.333,80.556,380.556,694.444,16.667,N
327,-0.610,-0.065,-0.645,150.000,66.667,380.556,713.889,19.444,N
328,-0.640,-0.060,-0.630,141.667,77.778,394.444,702.778,11.111,N
329,-0.635,-0.045,-0.640,138.889,75.000,377.778,708.333,5.556,N
330,-0.595,0.005,-0.640,138.889,80.556,397.222,708.333,0.000,N
331,-0.585,0.010,-0.600,144.444,72.222,377.778,730.556,22.222,N
332,-0.595,-0.060,-0.645,138.889,72.222,386.111,694.444,36.111,N
333,-0.625,-0.125,-0.685,138.889,86.111,383.333,711.111,16.667,N
334,-0.680,-0.170,-0.740,150.000,86.111,383.333,741.667,30.556,N
335,-0.725,-0.160,-0.800,147.222,80.556,383.333,727.778,13.889,N
336,-0.805,-0.185,-0.845,144.444,94.444,375.000,730.556,2.778,N
337,-0.785,-0.110,-0.735,152.778,80.556,400.000,711.111,19.444,N
338,-0.655,0.050,-0.700,138.889,83.333,383.333,730.556,19.444,N
339,-0.650,0.010,-0.695,141.667,86.111,405.556,702.778,27.778,N
340,-0.625,0.010,-0.700,144.444,88.889,405.556,730.556,27.778,N
341,-0.655,-0.070,-0.720,150.000,69.444,377.778,741.667,11.111,N
342,-0.700,-0.115,-0.775,150.000,86.111,380.556,730.556,11.111,N
343,-0.785,-0.025,-0.800,141.667,77.778,383.333,719.444,11.111,N
344,-0.725,0.030,-0.695,144.444,83.333,397.222,741.667,22.222,N
345,-0.625,0.105,-0.670,133.333,77.778,386.111,719.444,22.222,N
346,-0.640,0.060,-0.700,147.222,66.667,386.111,725.000,5.556,N
347,-0.675,-0.005,-0.720,144.444,66.667,377.778,705.556,19.444,N
348,-0.680,-0.070,-0.730,144.444,88.889,380.556,722.222,16.667,N
349,-0.720,-0.010,-0.710,152.778,66.667,375.000,713.889,8.333,N
350,-0.635,0.070,-0.670,133.333,72.222,383.333,708.333,5.556,N
351,-0.615,0.120,-0.625,169.444,80.556,380.556,736.111,27.778,N
352,-0.535,0.175,-0.300,130.556,88.889,400.000,700.000,36.111,N
353,-0.115,0.530,0.005,150.000,77.778,388.889,719.444,19.444,N
354,0.025,0.575,-0.090,150.000,72.222,388.889,705.556,13.889,N
355,-0.175,0.295,-0.410,150.000,63.889,352.778,727.778,22.222,N
356,-0.500,-0.035,-0.765,144.444,66.667,380.556,700.000,27.778,N
357,-0.820,-0.320,-0.750,130.556,63.889,-252780.556,702.778,2.778,N
358,-0.750,-0.485,-0.750,253516.667,63.889,-253480.556,700.000,2.778,N
359,-0.750,-0.590,-0.750,254211.111,86.111,-254152.778,694.444,5.556,N
360,-0.750,-0.600,-0.750,254902.778,80.556,-254850.000,691.667,2.778,N
361,-0.750,-0.640,-0.750,255600.000,80.556,-255547.222,697.222,5.556,N
362,-0.750,-0.400,-0.750,256291.667,66.667,-256252.778,691.667,5.556,N
363,-0.905,-0.105,-0.750,125.000,86.111,405.556,683.333,8.333,N
364,-0.600,0.250,-0.440,133.333,77.778,383.333,686.111,2.778,N
365,-0.375,0.310,-0.475,130.556,72.222,380.556,700.000,13.889,N
366,-0.490,0.155,-0.560,133.333,63.889,380.556,686.111,13.889,N
367,-0.555,0.075,-0.630,144.444,86.111,377.778,700.000,13.889,N
368,-0.640,-0.025,-0.700,144.444,63.889,380.556,672.222,27.778,N
369,-0.735,-0.115,-0.765,130.556,88.889,386.111,691.667,19.444,N
370,-0.790,-0.120,-0.770,147.222,80.556,380.556,669.444,22.222,N
371,-0.690,-0.095,-0.840,166.667,63.889,369.444,688.889,19.444,N
372,-0.810,-0.070,-0.810,138.889,86.111,388.889,675.000,13.889,N
373,-0.715,-0.035,-0.715,119.444,83.333,369.444,680.556,5.556,N
374,-0.760,-0.025,-0.700,127.778,86.111,391.667,675.000,5.556,N
375,-0.685,-0.080,-0.775,130.556,86.111,402.778,672.222,2.778,N
376,-0.715,-0.075,-0.760,172.222,72.222,383.333,694.444,22.222,N
377,-0.725,-0.030,-0.670,133.333,80.556,372.222,672.222,22.222,N
378,-0.630,-0.045,-0.620,127.778,63.889,344.444,688.889,16.667,N
379,-0.620,0.050,-0.605,163.889,63.889,355.556,663.889,25.000,N
380,-0.550,0.055,-0.605,125.000,88.889,386.111,683.333,19.444,N
381,-0.635,-0.085,-0.620,130.556,63.889,380.556,680.556,2.778,N
382,-0.565,-0.015,-0.645,133.333,75.000,383.333,683.333,2.778,N
383,-0.630,0.025,-0.620,138.889,86.111,397.222,677.778,5.556,N
384,-0.545,0.160,-0.510,133.333,77.778,380.556,688.889,11.111,N
385,-0.490,0.160,-0.490,155.556,72.222,380.556,663.889,25.000,N
386,-0.420,0.200,-0.510,141.667,66.667,377.778,683.333,19.444,N
387,-0.455,0.175,-0.550,136.111,83.333,383.333,688.889,5.556,N
388,-0.545,0.115,-0.625,147.222,86.111,386.111,683.333,5.556,N
389,-0.600,0.060,-0.655,138.889,77.778,375.000,688.889,5.556,N
390,-0.615,-0.015,-0.630,147.222,86.111,383.333,675.000,13.889,N
391,-0.500,0.105,-0.570,130.556,75.000,383.333,686.111,11.111,N
392,-0.535,0.060,-0.605,136.111,80.556,380.556,708.333,22.222,N
393,-0.555,0.045,-0.600,141.667,80.556,380.556,702.778,5.556,N
394,-0.585,0.040,-0.665,141.667,63.889,355.556,708.333,5.556,N
395,-0.615,0.025,-0.695,138.889,52.778,355.556,688.889,19.444,N
396,-0.660,0.045,-0.685,130.556,86.111,383.333,700.000,11.111,N
397,-0.665,0.000,-0.795,150.000,75.000,388.889,688.889,11.111,N
398,-0.755,-0.085,-0.810,136.111,83.333,386.111,711.111,22.222,N
399,-0.725,-0.080,-0.605,150.000,86.111,402.778,713.889,2.778,N
400,-0.415,0.310,-0.020,133.333,86.111,388.889,691.667,22.222,N
401,0.130,0.740,0.155,150.000,66.667,383.333,713.889,22.222,N
402,0.125,0.720,-0.035,144.444,66.667,383.333,691.667,22.222,N
403,-0.090,0.505,-0.255,138.889,72.222,380.556,716.667,25.000,N
404,-0.335,0.260,-0.525,147.222,63.889,383.333,691.667,25.000,N
405,-0.590,0.000,-0.730,138.889,58.333,350.000,725.000,33.333,N
406,-0.760,-0.180,-0.850,141.667,83.333,383.333,697.222,27.778,N
407,-0.875,-0.305,-0.925,130.556,77.778,383.333,691.667,5.556,N
408,-0.940,-0.430,-0.750,155.556,66.667,-287991.667,713.889,22.222,N
409,-0.750,-0.420,-0.750,288733.333,63.889,-288700.000,702.778,11.111,N
410,-0.750,-0.410,-0.940,289433.333,88.889,375.000,700.000,2.778,N
411,-0.955,-0.350,-0.940,147.222,83.333,397.222,669.444,30.556,N
412,-0.930,-0.255,-0.840,133.333,86.111,380.556,694.444,25.000,N
413,-0.790,-0.155,-0.770,147.222,63.889,377.778,675.000,19.444,N
414,-0.740,-0.075,-0.780,136.111,77.778,380.556,683.333,8.333,N
415,-0.765,-0.100,-0.745,138.889,77.778,380.556,697.222,13.889,N
416,-0.710,-0.125,-0.775,141.667,80.556,388.889,677.778,19.444,N
417,-0.770,-0.160,-0.790,130.556,69.444,355.556,683.333,5.556,N
418,-0.780,-0.165,-0.765,136.111,86.111,388.889,672.222,11.111,N
419,-0.765,-0.210,-0.840,127.778,69.444,358.333,694.444,22.222,N
420,-0.875,-0.330,-0.855,141.667,58.333,355.556,686.111,8.333,N
421,-0.850,-0.255,-0.800,133.333,55.556,341.667,672.222,13.889,N
422,-0.780,-0.145,-0.720,133.333,72.222,383.333,677.778,5.556,N
423,-0.635,0.060,-0.245,130.556,86.111,388.889,680.556,2.778,N
424,-0.075,0.540,0.160,138.889,58.333,375.000,680.556,0.000,N
425,0.180,0.765,0.105,130.556,88.889,405.556,663.889,16.667,N
426,0.060,0.640,-0.075,136.111,69.444,383.333,705.556,41.667,N
427,-0.155,0.345,-0.460,147.222,72.222,375.000,672.222,33.333,N
428,-0.520,0.055,-0.770,136.111,75.000,380.556,672.222,0.000,N
429,-0.830,-0.280,-0.990,147.222,75.000,391.667,686.111,13.889,N
430,-0.750,-0.435,-0.750,303077.778,66.667,-303038.889,700.000,13.889,N
431,-0.750,-0.475,-0.750,303755.556,83.333,-303700.000,677.778,22.222,N
432,-0.750,-0.305,-0.945,304419.444,80.556,391.667,663.889,13.889,N
433,-0.885,-0.200,-0.930,150.000,63.889,380.556,697.222,33.333,N
434,-0.905,-0.225,-0.750,136.111,75.000,-305744.444,675.000,22.222,N
435,-0.750,-0.330,-0.750,306469.444,77.778,-306422.222,677.778,2.778,N
436,-0.750,-0.230,-0.910,307155.556,75.000,391.667,686.111,8.333,N
437,-0.715,0.045,-0.725,133.333,83.333,388.889,702.778,16.667,N
438,-0.715,-0.010,-0.775,150.000,66.667,383.333,691.667,11.111,N
439,-0.720,-0.030,-0.775,127.778,77.778,386.111,677.778,13.889,N
440,-0.735,-0.065,-0.735,150.000,80.556,391.667,727.778,50.000,N
441,-0.725,-0.055,-0.725,141.667,72.222,383.333,697.222,30.556,N
442,-0.740,-0.195,-0.895,161.111,72.222,372.222,708.333,11.111,N
443,-0.850,-0.215,-0.870,141.667,61.111,377.778,686.111,22.222,N
444,-0.870,-0.240,-0.905,133.333,83.333,386.111,719.444,33.333,N
445,-0.880,-0.280,-0.895,136.111,69.444,375.000,700.000,19.444,N
446,-0.845,-0.235,-0.775,141.667,88.889,383.333,713.889,13.889,N
447,-0.725,-0.040,-0.655,136.111,80.556,383.333,722.222,8.333,N
448,-0.620,0.025,-0.540,136.111,86.111,377.778,705.556,16.667,N
449,-0.505,0.155,-0.415,138.889,86.111,380.556,702.778,2.778,N
450,-0.400,0.245,-0.310,133.333,75.000,388.889,716.667,13.889,N
451,-0.300,0.325,-0.285,141.667,66.667,363.889,719.444,2.778,N
452,-0.280,0.380,-0.265,130.556,80.556,361.111,719.444,0.000,N
453,-0.285,0.270,-0.375,144.444,66.667,386.111,688.889,30.556,N
454,-0.405,0.280,-0.420,136.111,77.778,377.778,719.444,30.556,N
455,-0.360,0.345,-0.310,141.667,69.444,377.778,694.444,25.000,N
456,-0.305,0.365,-0.410,136.111,86.111,386.111,705.556,11.111,N
457,-0.390,0.240,-0.445,150.000,69.444,386.111,725.000,19.444,N
458,-0.400,0.255,-0.465,130.556,77.778,377.778,708.333,16.667,N
459,-0.465,0.160,-0.515,138.889,77.778,377.778,702.778,5.556,N
460,-0.560,0.150,-0.625,138.889,80.556,394.444,700.000,2.778,N
461,-0.560,0.165,-0.540,141.667,80.556,391.667,733.333,33.333,N
462,-0.475,0.260,-0.465,147.222,75.000,386.111,711.111,22.222,N
463,-0.410,0.225,-0.465,141.667,77.778,400.000,700.000,11.111,N
464,-0.400,0.190,-0.480,155.556,69.444,380.556,711.111,11.111,N
465,-0.455,0.100,-0.545,166.667,72.222,377.778,705.556,5.556,N
466,-0.525,0.015,-0.645,136.111,80.556,383.333,705.556,0.000,N
467,-0.675,-0.125,-0.850,163.889,72.222,377.778,730.556,25.000,N
468,-0.825,-0.240,-0.885,133.333,80.556,386.111,736.111,5.556,N
469,-0.845,-0.260,-0.880,138.889,88.889,386.111,708.333,27.778,N
470,-0.830,-0.200,-0.815,136.111,77.778,383.333,719.444,11.111,N
471,-0.770,-0.110,-0.765,141.667,77.778,383.333,741.667,22.222,N
472,-0.710,-0.065,-0.745,166.667,80.556,386.111,730.556,11.111,N
473,-0.700,0.005,-0.580,136.111,77.778,383.333,702.778,27.778,N
474,-0.490,0.215,-0.500,155.556,77.778,386.111,727.778,25.000,N
475,-0.470,0.190,-0.550,138.889,69.444,383.333,694.444,33.333,N
476,-0.505,0.150,-0.490,136.111,80.556,386.111,713.889,19.444,N
477,-0.455,0.225,-0.475,141.667,61.111,377.778,711.111,2.778,N
478,-0.425,0.230,-0.465,141.667,83.333,388.889,730.556,19.444,N
479,-0.495,0.105,-0.565,138.889,72.222,380.556,708.333,22.222,N
480,-0.600,0.050,-0.575,161.111,69.444,386.111,708.333,0.000,N
481,-0.575,0.070,-0.595,141.667,80.556,394.444,713.889,5.556,N
482,-0.585,-0.020,-0.685,138.889,61.111,350.000,708.333,5.556,N
483,-0.720,-0.050,-0.755,144.444,86.111,383.333,700.000,8.333,N
484,-0.710,0.010,-0.590,136.111,88.889,400.000,669.444,30.556,N
485,-0.510,0.255,-0.515,130.556,86.111,394.444,716.667,47.222,N
486,-0.465,0.210,-0.520,136.111,86.111,386.111,677.778,38.889,N
487,-0.495,0.135,-0.535,138.889,72.222,377.778,691.667,13.889,N
488,-0.505,0.150,-0.570,138.889,72.222,383.333,700.000,8.333,N
489,-0.535,0.050,-0.645,136.111,88.889,388.889,705.556,5.556,N
490,-0.645,-0.005,-0.715,161.111,80.556,391.667,688.889,16.667,N
491,-0.730,-0.080,-0.720,163.889,72.222,380.556,702.778,13.889,N
492,-0.680,-0.070,-0.680,141.667,80.556,377.778,713.889,11.111,N
493,-0.635,-0.045,-0.630,138.889,72.222,372.222,694.444,19.444,N
494,-0.630,-0.090,-0.705,141.667,75.000,375.000,700.000,5.556,N
495,-0.660,-0.060,-0.590,141.667,72.222,383.333,683.333,16.667,N
496,-0.570,0.080,-0.570,136.111,77.778,386.111,686.111,2.778,N
497,-0.545,0.135,-0.535,130.556,69.444,380.556,691.667,5.556,N
498,-0.505,0.100,-0.570,150.000,88.889,402.778,683.333,8.333,N
499,-0.525,0.130,-0.620,150.000,61.111,363.889,708.333,25.000,N
500,-0.655,0.025,-0.740,166.667,86.111,400.000,669.444,38.889,N
501,-0.680,-0.060,-0.750,144.444,61.111,377.778,688.889,19.444,N
502,-0.725,0.000,-0.615,141.667,80.556,394.444,686.111,2.778,N
503,-0.640,0.025,-0.580,166.667,75.000,363.889,705.556,19.444,N
504,-0.590,0.065,-0.580,180.556,69.444,372.222,694.444,11.111,N
505,-0.665,-0.100,-0.640,122.222,83.333,380.556,691.667,2.778,N
506,-0.665,-0.030,-0.640,152.778,77.778,386.111,711.111,19.444,N
507,-0.690,0.005,-0.780,136.111,77.778,380.556,672.222,38.889,N
508,-0.755,-0.030,-0.715,158.333,88.889,402.778,711.111,38.889,N
509,-0.630,0.120,-0.680,138.889,69.444,380.556,688.889,22.222,N
510,-0.590,0.175,-0.625,150.000,69.444,386.111,716.667,27.778,N
511,-0.610,0.075,-0.730,144.444,75.000,377.778,683.333,33.333,N
512,-0.755,-0.155,-0.935,119.444,61.111,361.111,688.889,5.556,N
513,-0.935,-0.170,-0.955,163.889,83.333,388.889,708.333,19.444,N
514,-0.955,-0.130,-0.810,130.556,72.222,380.556,697.222,11.111,N
515,-0.795,-0.110,-0.695,127.778,72.222,358.333,700.000,2.778,N
516,-0.640,0.005,-0.610,161.111,61.111,361.111,686.111,13.889,N
517,-0.500,0.165,-0.440,122.222,86.111,380.556,700.000,13.889,N
518,-0.475,0.190,-0.425,136.111,86.111,383.333,694.444,5.556,N
519,-0.425,0.270,-0.430,133.333,77.778,386.111,700.000,5.556,N
520,-0.485,0.150,-0.470,122.222,83.333,383.333,711.111,11.111,N
521,-0.535,0.135,-0.525,150.000,63.889,347.222,700.000,11.111,N
522,-0.585,0.060,-0.540,136.111,72.222,355.556,711.111,11.111,N
523,-0.580,0.005,-0.580,133.333,69.444,383.333,691.667,19.444,N
524,-0.635,0.030,-0.655,130.556,83.333,391.667,713.889,22.222,N
525,-0.695,0.025,-0.735,127.778,69.444,380.556,694.444,19.444,N
526,-0.690,0.085,-0.645,125.000,66.667,355.556,694.444,0.000,N
527,-0.520,0.210,-0.500,152.778,63.889,380.556,700.000,5.556,N
528,-0.495,0.150,-0.595,136.111,80.556,394.444,672.222,27.778,N
529,-0.590,0.080,-0.685,147.222,69.444,383.333,700.000,27.778,N
530,-0.695,-0.030,-0.800,136.111,86.111,388.889,683.333,16.667,N
531,-0.750,-0.065,-0.820,141.667,86.111,383.333,700.000,16.667,N
532,-0.760,0.015,-0.715,138.889,66.667,386.111,686.111,13.889,N
533,-0.660,0.090,-0.665,133.333,80.556,383.333,677.778,8.333,N
534,-0.645,0.130,-0.680,133.333,77.778,394.444,697.222,19.444,N
535,-0.635,0.145,-0.675,136.111,72.222,383.333,697.222,0.000,N
536,-0.630,0.050,-0.680,138.889,63.889,375.000,691.667,5.556,N
537,-0.655,-0.020,-0.725,138.889,83.333,386.111,683.333,8.333,N
538,-0.720,-0.055,-0.775,133.333,72.222,383.333,691.667,8.333,N
539,-0.770,-0.155,-0.800,147.222,63.889,377.778,691.667,0.000,N
540,-0.770,-0.160,-0.835,138.889,58.333,358.333,694.444,2.778,N
541,-0.845,-0.220,-0.920,147.222,69.444,372.222,705.556,11.111,N
542,-0.875,-0.190,-0.865,141.667,86.111,383.333,694.444,11.111,N
543,-0.780,-0.010,-0.685,125.000,86.111,405.556,705.556,11.111,N
544,-0.605,0.100,-0.660,144.444,83.333,380.556,691.667,13.889,N
545,-0.595,0.085,-0.645,144.444,58.333,372.222,702.778,11.111,N
546,-0.595,0.055,-0.670,138.889,83.333,383.333,694.444,8.333,N
547,-0.665,-0.010,-0.685,133.333,83.333,380.556,697.222,2.778,N
548,-0.645,-0.070,-0.680,144.444,86.111,394.444,677.778,19.444,N
549,-0.655,-0.045,-0.650,138.889,83.333,377.778,697.222,19.444,N
550,-0.635,-0.055,-0.675,136.111,72.222,380.556,686.111,11.111,N
551,-0.665,-0.060,-0.700,141.667,86.111,377.778,686.111,0.000,N
552,-0.720,-0.005,-0.720,147.222,80.556,388.889,691.667,5.556,N
553,-0.645,0.090,-0.615,136.111,75.000,377.778,697.222,5.556,N
554,-0.575,0.080,-0.620,150.000,61.111,377.778,683.333,13.889,N
555,-0.585,0.110,-0.620,141.667,72.222,388.889,683.333,0.000,N
556,-0.540,0.110,-0.420,138.889,83.333,375.000,708.333,25.000,N
557,-0.365,0.305,-0.315,133.333,80.556,388.889,691.667,16.667,N
558,-0.325,0.230,-0.395,133.333,72.222,358.333,686.111,5.556,N
559,-0.425,0.110,-0.520,152.778,75.000,388.889,702.778,16.667,N
560,-0.575,-0.055,-0.720,138.889,61.111,355.556,688.889,13.889,N
561,-0.790,-0.185,-0.910,144.444,72.222,375.000,683.333,5.556,N
562,-0.925,-0.215,-0.855,133.333,66.667,383.333,694.444,11.111,N
563,-0.840,-0.140,-0.850,133.333,72.222,380.556,705.556,11.111,N
564,-0.815,-0.160,-0.825,141.667,86.111,380.556,683.333,22.222,N
565,-0.785,-0.180,-0.835,141.667,86.111,377.778,669.444,13.889,N
566,-0.785,-0.200,-0.810,141.667,86.111,380.556,697.222,27.778,N
567,-0.795,-0.180,-0.780,150.000,72.222,383.333,688.889,8.333,N
568,-0.755,-0.160,-0.760,136.111,69.444,372.222,697.222,8.333,N
569,-0.740,-0.120,-0.710,136.111,77.778,383.333,672.222,25.000,N
570,-0.700,-0.115,-0.740,136.111,83.333,380.556,708.333,36.111,N
571,-0.705,-0.085,-0.675,141.667,75.000,377.778,697.222,11.111,N
572,-0.675,-0.010,-0.655,136.111,75.000,383.333,694.444,2.778,N
573,-0.590,0.075,-0.635,144.444,88.889,386.111,713.889,19.444,N
574,-0.570,0.080,-0.620,144.444,58.333,372.222,705.556,8.333,N
575,-0.580,0.030,-0.645,147.222,72.222,388.889,708.333,2.778,N
576,-0.605,-0.005,-0.645,147.222,66.667,380.556,700.000,8.333,N
577,-0.635,-0.015,-0.630,136.111,75.000,380.556,738.889,38.889,N
578,-0.595,-0.010,-0.655,144.444,86.111,380.556,719.444,19.444,N
579,-0.620,-0.020,-0.665,130.556,66.667,347.222,711.111,8.333,N
580,-0.640,-0.030,-0.690,144.444,86.111,383.333,719.444,8.333,N
581,-0.690,-0.030,-0.720,144.444,75.000,380.556,719.444,0.000,N
582,-0.700,0.030,-0.625,138.889,72.222,383.333,702.778,16.667,N
583,-0.570,0.145,-0.580,147.222,72.222,386.111,722.222,19.444,N
584,-0.550,0.150,-0.555,133.333,69.444,383.333,708.333,13.889,N
585,-0.550,0.125,-0.575,161.111,75.000,383.333,705.556,2.778,N
586,-0.540,0.055,-0.580,141.667,72.222,388.889,688.889,16.667,N
587,-0.585,0.035,-0.605,147.222,75.000,380.556,736.111,47.222,N
588,-0.625,0.035,-0.620,144.444,72.222,388.889,705.556,30.556,N
589,-0.575,0.120,-0.520,136.111,83.333,380.556,713.889,8.333,N
590,-0.425,0.270,-0.450,147.222,88.889,405.556,700.000,13.889,N
591,-0.400,0.230,-0.460,144.444,72.222,380.556,716.667,16.667,N
592,-0.460,0.140,-0.540,141.667,77.778,380.556,708.333,8.333,N
593,-0.515,0.025,-0.595,150.000,69.444,383.333,719.444,11.111,N
594,-0.575,0.030,-0.615,150.000,75.000,388.889,741.667,22.222,N
595,-0.620,-0.005,-0.645,152.778,86.111,383.333,719.444,22.222,N
596,-0.630,-0.070,-0.725,147.222,72.222,386.111,708.333,11.111,N
597,-0.710,-0.090,-0.755,155.556,66.667,383.333,736.111,27.778,N
598,-0.720,-0.040,-0.715,147.222,80.556,397.222,725.000,11.111,N
599,-0.655,0.045,-0.660,161.111,69.444,377.778,719.444,5.556,N
600,-0.650,0.030,-0.700,144.444,77.778,388.889,697.222,22.222,N
601,-0.650,-0.030,-0.695,150.000,86.111,402.778,719.444,22.222,N
602,-0.660,-0.035,-0.625,147.222,77.778,377.778,711.111,8.333,N
603,-0.600,-0.015,-0.620,152.778,86.111,402.778,716.667,5.556,N
604,-0.615,-0.040,-0.650,155.556,80.556,377.778,738.889,22.222,N
605,-0.655,-0.065,-0.660,152.778,69.444,383.333,711.111,27.778,N
606,-0.610,0.080,-0.570,147.222,80.556,386.111,713.889,2.778,N
607,-0.520,0.140,-0.605,152.778,69.444,383.333,719.444,5.556,N
608,-0.575,0.100,-0.605,147.222,88.889,388.889,719.444,0.000,N
609,-0.580,0.040,-0.660,155.556,72.222,388.889,713.889,5.556,N
610,-0.635,0.005,-0.655,147.222,86.111,405.556,694.444,19.444,N
611,-0.645,0.100,-0.615,141.667,83.333,388.889,725.000,30.556,N
612,-0.525,0.145,-0.565,144.444,86.111,402.778,705.556,19.444,N
613,-0.515,0.110,-0.580,147.222,66.667,383.333,705.556,0.000,N
614,-0.555,0.095,-0.600,180.556,88.889,386.111,727.778,22.222,N
615,-0.590,-0.005,-0.660,141.667,66.667,383.333,711.111,16.667,N
616,-0.660,0.005,-0.705,152.778,80.556,383.333,713.889,2.778,N
617,-0.690,0.005,-0.640,147.222,83.333,402.778,705.556,8.333,N
618,-0.585,0.170,-0.590,144.444,80.556,380.556,727.778,22.222,N
619,-0.595,0.105,-0.615,141.667,69.444,380.556,694.444,33.333,N
620,-0.600,0.095,-0.605,138.889,69.444,383.333,691.667,2.778,N
621,-0.580,0.045,-0.635,152.778,66.667,383.333,700.000,8.333,N
622,-0.635,-0.025,-0.680,138.889,61.111,347.222,697.222,2.778,N
623,-0.655,0.000,-0.635,147.222,61.111,372.222,675.000,22.222,N
624,-0.630,0.070,-0.580,138.889,80.556,394.444,702.778,27.778,N
625,-0.560,0.085,-0.625,147.222,66.667,380.556,694.444,8.333,N
626,-0.595,0.025,-0.650,141.667,58.333,372.222,691.667,2.778,N
627,-0.645,0.015,-0.665,133.333,69.444,377.778,683.333,8.333,N
628,-0.645,-0.020,-0.660,150.000,77.778,400.000,716.667,33.333,N
629,-0.635,-0.025,-0.665,136.111,77.778,386.111,691.667,25.000,N
630,-0.710,-0.140,-0.740,152.778,86.111,388.889,697.222,5.556,N
631,-0.755,-0.080,-0.790,136.111,69.444,383.333,663.889,33.333,N
632,-0.715,0.010,-0.680,144.444,83.333,380.556,716.667,52.778,N
633,-0.640,0.070,-0.685,150.000,66.667,380.556,680.556,36.111,N
634,-0.640,0.035,-0.700,138.889,88.889,388.889,686.111,5.556,N
635,-0.670,-0.040,-0.710,147.222,88.889,402.778,702.778,16.667,N
636,-0.665,-0.035,-0.695,138.889,63.889,377.778,700.000,2.778,N
637,-0.660,-0.065,-0.730,141.667,80.556,383.333,694.444,5.556,N
638,-0.700,-0.025,-0.715,138.889,80.556,391.667,694.444,0.000,N
639,-0.655,0.000,-0.600,147.222,86.111,405.556,716.667,22.222,N
640,-0.515,0.185,-0.530,147.222,61.111,380.556,702.778,13.889,N
641,-0.505,0.180,-0.540,144.444,69.444,361.111,705.556,2.778,N
642,-0.500,0.140,-0.565,152.778,55.556,377.778,697.222,8.333,N
643,-0.575,0.075,-0.620,127.778,69.444,386.111,702.778,5.556,N
644,-0.610,0.045,-0.620,138.889,75.000,386.111,708.333,5.556,N
645,-0.640,0.020,-0.675,141.667,80.556,400.000,716.667,8.333,N
646,-0.625,0.055,-0.575,158.333,75.000,380.556,716.667,0.000,N
647,-0.530,0.195,-0.525,136.111,77.778,383.333,702.778,13.889,N
648,-0.520,0.150,-0.565,138.889,75.000,377.778,705.556,2.778,N
649,-0.575,0.095,-0.635,158.333,72.222,380.556,725.000,19.444,N
650,-0.635,-0.050,-0.720,138.889,86.111,383.333,716.667,8.333,N
651,-0.735,-0.060,-0.775,136.111,77.778,383.333,713.889,2.778,N
652,-0.765,-0.025,-0.695,147.222,83.333,405.556,691.667,22.222,N
653,-0.625,0.125,-0.635,136.111,80.556,383.333,719.444,27.778,N
654,-0.590,0.080,-0.680,150.000,63.889,380.556,686.111,33.333,N
655,-0.655,0.035,-0.690,133.333,69.444,375.000,708.333,22.222,N
656,-0.645,-0.025,-0.715,144.444,88.889,405.556,713.889,5.556,N
657,-0.675,-0.055,-0.705,136.111,86.111,383.333,702.778,11.111,N
658,-0.690,-0.095,-0.735,147.222,72.222,386.111,708.333,5.556,N
659,-0.730,-0.120,-0.760,141.667,80.556,400.000,694.444,13.889,N
660,-0.755,-0.095,-0.770,136.111,86.111,383.333,727.778,33.333,N
661,-0.750,-0.055,-0.765,138.889,83.333,388.889,694.444,33.333,N
662,-0.735,-0.065,-0.745,138.889,83.333,372.222,711.111,16.667,N
663,-0.730,-0.075,-0.740,141.667,77.778,386.111,691.667,19.444,N
664,-0.700,-0.085,-0.735,133.333,80.556,383.333,697.222,5.556,N
665,-0.720,-0.095,-0.720,138.889,75.000,383.333,700.000,2.778,N
666,-0.695,-0.105,-0.730,138.889,80.556,383.333,708.333,8.333,N
667,-0.710,-0.130,-0.720,147.222,72.222,383.333,713.889,5.556,N
668,-0.740,-0.120,-0.735,147.222,72.222,380.556,702.778,11.111,N
669,-0.740,-0.160,-0.765,150.000,77.778,386.111,700.000,2.778,N
670,-0.750,-0.100,-0.750,138.889,80.556,386.111,708.333,8.333,N
671,-0.705,-0.110,-0.750,141.667,61.111,358.333,711.111,2.778,N
672,-0.740,-0.120,-0.765,141.667,66.667,375.000,713.889,2.778,N
673,-0.770,-0.155,-0.820,150.000,80.556,397.222,705.556,8.333,N
674,-0.825,-0.150,-0.860,136.111,77.778,377.778,713.889,8.333,N
675,-0.865,-0.110,-0.805,150.000,58.333,380.556,711.111,2.778,N
676,-0.725,0.060,-0.700,138.889,75.000,386.111,711.111,0.000,N
677,-0.650,0.090,-0.750,150.000,88.889,405.556,722.222,11.111,N
678,-0.705,-0.010,-0.795,138.889,88.889,402.778,705.556,16.667,N
679,-0.790,-0.110,-0.845,147.222,86.111,388.889,727.778,22.222,N
680,-0.875,-0.110,-0.885,141.667,77.778,391.667,713.889,13.889,N
681,-0.720,0.070,-0.680,144.444,83.333,388.889,744.444,30.556,N
682,-0.635,0.160,-0.730,144.444,75.000,383.333,725.000,19.444,N
683,-0.690,0.045,-0.815,136.111,55.556,358.333,711.111,13.889,N
684,-0.780,-0.040,-0.865,141.667,77.778,386.111,725.000,13.889,N
685,-0.815,-0.060,-0.790,141.667,80.556,397.222,708.333,16.667,N
686,-0.690,0.130,-0.730,144.444,77.778,394.444,725.000,16.667,N
687,-0.645,0.085,-0.740,138.889,88.889,397.222,705.556,19.444,N
688,-0.695,0.035,-0.755,147.222,69.444,375.000,722.222,16.667,N
689,-0.730,-0.025,-0.775,138.889,69.444,383.333,702.778,19.444,N
690,-0.725,-0.040,-0.755,138.889,77.778,383.333,705.556,2.778,N
691,-0.715,-0.075,-0.725,147.222,86.111,405.556,719.444,13.889,N
692,-0.690,-0.055,-0.705,138.889,83.333,388.889,716.667,2.778,N
693,-0.680,-0.065,-0.725,141.667,83.333,383.333,705.556,11.111,N
694,-0.720,-0.060,-0.760,141.667,86.111,391.667,700.000,5.556,N
695,-0.700,0.005,-0.665,141.667,66.667,383.333,713.889,13.889,N
696,-0.645,0.080,-0.690,147.222,75.000,380.556,711.111,2.778,N
697,-0.665,0.025,-0.705,138.889,86.111,405.556,711.111,0.000,N
698,-0.640,0.045,-0.665,138.889,80.556,377.778,727.778,16.667,N
699,-0.645,-0.010,-0.695,144.444,83.333,400.000,708.333,19.444,N
700,-0.685,-0.085,-0.700,144.444,86.111,400.000,708.333,0.000,N
701,-0.690,-0.085,-0.665,150.000,88.889,402.778,730.556,22.222,N
702,-0.670,-0.050,-0.645,147.222,77.778,383.333,716.667,13.889,N
703,-0.640,-0.030,-0.635,141.667,86.111,377.778,713.889,2.778,N
704,-0.625,-0.050,-0.650,138.889,80.556,380.556,697.222,16.667,N
705,-0.655,-0.045,-0.655,138.889,83.333,394.444,708.333,11.111,N
706,-0.655,-0.080,-0.690,144.444,69.444,358.333,708.333,0.000,N
707,-0.690,-0.100,-0.685,133.333,75.000,377.778,705.556,2.778,N
708,-0.705,-0.115,-0.730,147.222,91.667,383.333,719.444,13.889,N
709,-0.720,-0.155,-0.730,138.889,69.444,383.333,708.333,11.111,N
710,-0.735,-0.130,-0.730,136.111,77.778,391.667,705.556,2.778,N
711,-0.725,-0.130,-0.760,147.222,86.111,402.778,719.444,13.889,N
712,-0.750,-0.075,-0.780,141.667,83.333,394.444,727.778,8.333,N
713,-0.765,-0.035,-0.745,133.333,72.222,380.556,719.444,8.333,N
714,-0.715,0.045,-0.655,144.444,72.222,394.444,702.778,16.667,N
715,-0.625,0.090,-0.680,141.667,86.111,388.889,716.667,13.889,N
716,-0.625,0.010,-0.705,147.222,63.889,377.778,708.333,8.333,N
717,-0.680,-0.005,-0.725,136.111,75.000,380.556,716.667,8.333,N
718,-0.740,-0.030,-0.810,152.778,72.222,388.889,730.556,13.889,N
719,-0.765,-0.020,-0.685,155.556,66.667,377.778,725.000,5.556,N
720,-0.570,0.155,-0.630,141.667,83.333,380.556,719.444,5.556,N
721,-0.560,0.145,-0.650,147.222,91.667,405.556,708.333,11.111,N
722,-0.590,0.065,-0.705,147.222,61.111,377.778,738.889,30.556,N
723,-0.670,0.015,-0.730,147.222,69.444,366.667,725.000,13.889,N
724,-0.705,0.000,-0.690,150.000,63.889,380.556,708.333,16.667,N
725,-0.610,0.130,-0.635,150.000,72.222,383.333,736.111,27.778,N
726,-0.570,0.155,-0.655,144.444,86.111,388.889,719.444,16.667,N
727,-0.615,0.090,-0.685,150.000,80.556,391.667,725.000,5.556,N
728,-0.655,0.015,-0.710,152.778,88.889,394.444,744.444,19.444,N
729,-0.645,-0.050,-0.700,147.222,69.444,383.333,744.444,0.000,N
730,-0.680,-0.020,-0.725,158.333,69.444,386.111,741.667,2.778,N
731,-0.675,0.015,-0.695,155.556,77.778,388.889,738.889,2.778,N
732,-0.625,0.020,-0.675,150.000,86.111,405.556,752.778,13.889,N
733,-0.620,0.010,-0.675,161.111,75.000,380.556,747.222,5.556,N
734,-0.640,-0.045,-0.685,141.667,83.333,397.222,711.111,36.111,N
735,-0.645,-0.055,-0.675,152.778,66.667,377.778,750.000,38.889,N
736,-0.670,-0.115,-0.740,152.778,58.333,369.444,733.333,16.667,N
737,-0.730,-0.130,-0.815,144.444,55.556,355.556,722.222,11.111,N
738,-0.790,-0.105,-0.745,152.778,69.444,388.889,741.667,19.444,N
739,-0.690,0.020,-0.710,138.889,86.111,388.889,722.222,19.444,N
740,-0.680,0.025,-0.720,150.000,75.000,388.889,716.667,5.556,N
741,-0.670,-0.045,-0.725,141.667,86.111,402.778,716.667,0.000,N
742,-0.680,-0.100,-0.685,141.667,61.111,377.778,741.667,25.000,N
743,-0.670,-0.140,-0.745,141.667,80.556,375.000,730.556,11.111,N
744,-0.760,-0.190,-0.790,136.111,75.000,388.889,711.111,19.444,N
745,-0.810,-0.125,-0.780,147.222,75.000,377.778,744.444,33.333,N
746,-0.700,0.015,-0.680,130.556,72.222,386.111,725.000,19.444,N
747,-0.635,0.020,-0.725,141.667,86.111,386.111,716.667,8.333,N
748,-0.675,-0.045,-0.730,141.667,88.889,405.556,736.111,19.444,N
749,-0.695,-0.075,-0.760,136.111,83.333,386.111,727.778,8.333,N
750,-0.725,-0.110,-0.730,158.333,69.444,377.778,725.000,2.778,N
751,-0.705,-0.145,-0.750,144.444,88.889,405.556,722.222,2.778,N
752,-0.755,-0.165,-0.740,161.111,77.778,391.667,747.222,25.000,N
753,-0.715,-0.145,-0.715,141.667,86.111,377.778,719.444,27.778,N
754,-0.665,-0.055,-0.710,144.444,55.556,372.222,702.778,16.667,N
755,-0.675,-0.040,-0.735,144.444,88.889,380.556,727.778,25.000,N
756,-0.710,-0.095,-0.720,138.889,83.333,397.222,705.556,22.222,N
757,-0.665,-0.035,-0.720,133.333,80.556,383.333,719.444,13.889,N
758,-0.695,-0.075,-0.790,144.444,80.556,391.667,725.000,5.556,N
759,-0.780,-0.125,-0.800,138.889,83.333,380.556,713.889,11.111,N
760,-0.715,0.035,-0.685,144.444,83.333,386.111,700.000,13.889,N
761,-0.645,0.070,-0.715,147.222,66.667,377.778,719.444,19.444,N
762,-0.705,-0.025,-0.820,152.778,86.111,400.000,716.667,2.778,N
763,-0.775,-0.070,-0.750,138.889,66.667,380.556,711.111,5.556,N
764,-0.715,0.045,-0.735,141.667,83.333,402.778,697.222,13.889,N
765,-0.685,-0.055,-0.740,136.111,80.556,383.333,688.889,8.333,N
766,-0.695,-0.095,-0.740,138.889,83.333,388.889,705.556,16.667,N
767,-0.720,-0.115,-0.775,130.556,72.222,380.556,683.333,22.222,N
768,-0.765,-0.090,-0.775,144.444,88.889,380.556,686.111,2.778,N
769,-0.635,0.090,-0.605,141.667,83.333,391.667,697.222,11.111,N
770,-0.580,0.160,-0.630,136.111,66.667,369.444,686.111,11.111,N
771,-0.585,0.090,-0.655,144.444,61.111,375.000,658.333,27.778,N
772,-0.585,0.095,-0.670,141.667,86.111,400.000,691.667,33.333,N
773,-0.585,0.020,-0.650,138.889,80.556,375.000,700.000,8.333,N
774,-0.675,-0.060,-0.685,138.889,72.222,377.778,691.667,8.333,N
775,-0.690,-0.020,-0.635,133.333,72.222,377.778,666.667,25.000,N
776,-0.615,0.100,-0.615,141.667,88.889,383.333,711.111,44.444,N
777,-0.580,0.045,-0.650,144.444,86.111,383.333,669.444,41.667,N
778,-0.600,0.025,-0.670,138.889,80.556,380.556,694.444,25.000,N
779,-0.645,-0.045,-0.730,147.222,86.111,388.889,700.000,5.556,N
780,-0.690,-0.095,-0.740,141.667,63.889,369.444,711.111,11.111,N
781,-0.725,-0.115,-0.760,133.333,80.556,391.667,686.111,25.000,N
782,-0.735,-0.100,-0.720,125.000,72.222,388.889,686.111,0.000,N
783,-0.695,-0.105,-0.710,144.444,80.556,383.333,713.889,27.778,N
784,-0.660,-0.075,-0.650,127.778,72.222,386.111,694.444,19.444,N
785,-0.635,-0.030,-0.645,138.889,69.444,372.222,700.000,5.556,N
786,-0.620,-0.030,-0.605,136.111,83.333,386.111,675.000,25.000,N
787,-0.590,0.150,-0.570,138.889,88.889,397.222,688.889,13.889,N
788,-0.545,0.170,-0.560,133.333,61.111,377.778,691.667,2.778,N
789,-0.530,0.165,-0.635,141.667,83.333,394.444,691.667,0.000,N
790,-0.595,0.110,-0.645,141.667,83.333,400.000,700.000,8.333,N
791,-0.585,0.060,-0.655,141.667,88.889,388.889,702.778,2.778,N
792,-0.630,0.015,-0.645,130.556,69.444,377.778,686.111,16.667,N
793,-0.650,0.020,-0.670,136.111,72.222,383.333,705.556,19.444,N
794,-0.650,-0.030,-0.650,150.000,69.444,386.111,722.222,16.667,N
795,-0.605,0.020,-0.675,136.111,72.222,383.333,702.778,19.444,N
796,-0.675,-0.005,-0.725,133.333,69.444,383.333,705.556,2.778,N
797,-0.670,0.095,-0.630,138.889,77.778,386.111,702.778,2.778,N
798,-0.600,0.155,-0.635,130.556,72.222,383.333,697.222,5.556,N
799,-0.605,0.105,-0.640,155.556,75.000,383.333,694.444,2.778,N
800,-0.600,0.020,-0.690,144.444,86.111,386.111,694.444,0.000,N
801,-0.625,0.075,-0.615,144.444,66.667,386.111,702.778,8.333,N
802,-0.555,0.130,-0.595,138.889,86.111,386.111,688.889,13.889,N
803,-0.600,0.165,-0.695,138.889,66.667,366.667,683.333,5.556,N
804,-0.620,0.025,-0.685,141.667,88.889,405.556,688.889,5.556,N
805,-0.635,0.030,-0.680,141.667,83.333,380.556,700.000,11.111,N
806,-0.640,0.045,-0.605,136.111,77.778,383.333,686.111,13.889,N
807,-0.575,0.055,-0.575,133.333,63.889,380.556,688.889,2.778,N
808,-0.550,0.040,-0.570,144.444,72.222,388.889,700.000,11.111,N
809,-0.560,0.040,-0.655,136.111,58.333,358.333,688.889,11.111,N
810,-0.690,0.030,-0.660,144.444,77.778,380.556,697.222,8.333,N
811,-0.590,0.150,-0.575,138.889,80.556,388.889,700.000,2.778,N
812,-0.545,0.145,-0.625,141.667,86.111,388.889,702.778,2.778,N
813,-0.610,0.055,-0.690,147.222,66.667,375.000,686.111,16.667,N
814,-0.675,-0.025,-0.695,147.222,72.222,361.111,694.444,8.333,N
815,-0.655,-0.035,-0.700,144.444,58.333,355.556,694.444,0.000,N
816,-0.680,-0.080,-0.735,130.556,80.556,383.333,686.111,8.333,N
817,-0.730,-0.060,-0.690,152.778,69.444,350.000,697.222,11.111,N
818,-0.670,0.055,-0.590,141.667,72.222,388.889,658.333,38.889,N
819,-0.585,0.130,-0.595,141.667,66.667,386.111,700.000,41.667,N
820,-0.620,0.035,-0.660,136.111,77.778,383.333,683.333,16.667,N
821,-0.645,0.030,-0.590,175.000,75.000,369.444,680.556,2.778,N
822,-0.595,0.035,-0.565,147.222,88.889,380.556,700.000,19.444,N
823,-0.575,0.065,-0.545,130.556,83.333,391.667,680.556,19.444,N
824,-0.545,0.120,-0.495,130.556,69.444,377.778,694.444,13.889,N
825,-0.490,0.140,-0.470,141.667,58.333,352.778,686.111,8.333,N
826,-0.490,0.120,-0.505,150.000,61.111,352.778,708.333,22.222,N
827,-0.475,0.150,-0.500,144.444,86.111,375.000,694.444,13.889,N
828,-0.550,0.130,-0.460,136.111,72.222,366.667,700.000,5.556,N
829,-0.535,0.085,-0.555,138.889,77.778,383.333,688.889,11.111,N
830,-0.645,0.020,-0.630,133.333,61.111,352.778,691.667,2.778,N
831,-0.640,0.055,-0.605,138.889,63.889,361.111,686.111,5.556,N
832,-0.565,0.085,-0.595,138.889,83.333,383.333,705.556,19.444,N
833,-0.575,0.155,-0.580,138.889,88.889,386.111,691.667,13.889,N
834,-0.540,0.115,-0.545,147.222,72.222,361.111,680.556,11.111,N
835,-0.545,0.090,-0.575,141.667,66.667,386.111,677.778,2.778,N
836,-0.480,0.200,-0.505,138.889,88.889,388.889,683.333,5.556,N
837,-0.480,0.225,-0.605,136.111,83.333,380.556,691.667,8.333,N
838,-0.615,0.040,-0.640,144.444,80.556,402.778,683.333,8.333,N
839,-0.650,0.015,-0.665,150.000,58.333,355.556,663.889,19.444,N
840,-0.660,-0.010,-0.660,138.889,77.778,383.333,683.333,19.444,N
841,-0.645,-0.070,-0.655,136.111,80.556,386.111,672.222,11.111,N
842,-0.665,-0.095,-0.685,144.444,72.222,361.111,680.556,8.333,N
843,-0.670,-0.055,-0.665,136.111,83.333,397.222,686.111,5.556,N
844,-0.665,-0.065,-0.700,133.333,69.444,366.667,688.889,2.778,N
845,-0.705,-0.095,-0.680,136.111,80.556,380.556,683.333,5.556,N
846,-0.665,-0.085,-0.635,138.889,72.222,361.111,680.556,2.778,N
847,-0.625,-0.085,-0.635,144.444,86.111,402.778,694.444,13.889,N
848,-0.645,-0.070,-0.710,141.667,86.111,386.111,697.222,2.778,N
849,-0.745,-0.065,-0.720,138.889,80.556,372.222,700.000,2.778,N
850,-0.690,-0.005,-0.640,130.556,80.556,397.222,672.222,27.778,N
851,-0.605,0.050,-0.625,141.667,86.111,375.000,697.222,25.000,N
852,-0.590,0.070,-0.615,133.333,66.667,377.778,680.556,16.667,N
853,-0.655,-0.050,-0.725,138.889,69.444,372.222,688.889,8.333,N
854,-0.705,-0.095,-0.715,144.444,61.111,361.111,697.222,8.333,N
855,-0.700,-0.070,-0.675,133.333,80.556,377.778,694.444,2.778,N
856,-0.705,-0.130,-0.725,130.556,72.222,380.556,688.889,5.556,N
857,-0.765,-0.145,-0.755,144.444,80.556,375.000,683.333,5.556,N
858,-0.750,-0.045,-0.720,144.444,86.111,405.556,708.333,25.000,N
859,-0.640,0.105,-0.525,141.667,80.556,388.889,691.667,16.667,N
860,-0.480,0.215,-0.515,136.111,77.778,383.333,691.667,0.000,N
861,-0.505,0.135,-0.550,152.778,69.444,386.111,688.889,2.778,N
862,-0.535,0.090,-0.610,133.333,80.556,386.111,677.778,11.111,N
863,-0.590,-0.005,-0.605,133.333,77.778,380.556,697.222,19.444,N
864,-0.620,-0.035,-0.670,158.333,69.444,380.556,694.444,2.778,N
865,-0.660,-0.055,-0.645,138.889,86.111,377.778,719.444,25.000,N
866,-0.660,-0.135,-0.680,141.667,86.111,388.889,700.000,19.444,N
867,-0.645,-0.070,-0.600,138.889,83.333,380.556,697.222,2.778,N
868,-0.595,-0.015,-0.685,155.556,69.444,383.333,722.222,25.000,N
869,-0.700,0.000,-0.655,138.889,80.556,386.111,705.556,16.667,N
870,-0.675,0.005,-0.650,147.222,83.333,377.778,711.111,5.556,N
871,-0.650,0.010,-0.680,108.333,86.111,405.556,669.444,41.667,N
872,-0.675,-0.035,-0.655,133.333,80.556,391.667,713.889,44.444,N
873,-0.620,-0.005,-0.605,138.889,86.111,383.333,683.333,30.556,N
874,-0.595,-0.005,-0.570,136.111,83.333,380.556,694.444,11.111,N
875,-0.550,0.030,-0.575,141.667,61.111,363.889,702.778,8.333,N
876,-0.580,-0.020,-0.615,133.333,86.111,377.778,705.556,2.778,N
877,-0.605,-0.040,-0.625,144.444,86.111,380.556,700.000,5.556,N
878,-0.630,-0.015,-0.645,138.889,91.667,405.556,697.222,2.778,N
879,-0.660,-0.020,-0.685,138.889,77.778,380.556,725.000,27.778,N
880,-0.650,-0.070,-0.670,138.889,80.556,377.778,705.556,19.444,N
881,-0.665,-0.115,-0.710,133.333,77.778,383.333,694.444,11.111,N
882,-0.695,-0.145,-0.715,141.667,80.556,375.000,708.333,13.889,N
883,-0.725,-0.110,-0.705,138.889,86.111,386.111,705.556,2.778,N
884,-0.615,-0.020,-0.625,136.111,88.889,394.444,697.222,8.333,N
885,-0.605,0.005,-0.640,147.222,69.444,383.333,711.111,13.889,N
886,-0.600,0.025,-0.555,130.556,66.667,377.778,708.333,2.778,N
887,-0.515,0.120,-0.530,136.111,80.556,383.333,705.556,2.778,N
888,-0.520,0.060,-0.555,127.778,61.111,380.556,688.889,16.667,N
889,-0.500,0.085,-0.590,138.889,63.889,355.556,730.556,41.667,N
890,-0.600,0.045,-0.645,136.111,77.778,380.556,694.444,36.111,N
891,-0.585,0.125,-0.510,130.556,88.889,377.778,700.000,5.556,N
892,-0.495,0.190,-0.520,133.333,75.000,388.889,686.111,13.889,N
893,-0.515,0.085,-0.610,130.556,75.000,377.778,702.778,16.667,N
894,-0.625,-0.045,-0.755,138.889,69.444,383.333,694.444,8.333,N
895,-0.760,-0.095,-0.740,144.444,88.889,405.556,686.111,8.333,N
896,-0.605,0.100,-0.505,133.333,77.778,383.333,719.444,33.333,N
897,-0.485,0.165,-0.495,136.111,66.667,383.333,694.444,25.000,N
898,-0.455,0.175,-0.530,138.889,86.111,388.889,686.111,8.333,N
899,-0.500,0.070,-0.565,144.444,61.111,377.778,705.556,19.444,N
900,-0.500,0.070,-0.540,130.556,77.778,383.333,716.667,11.111,N
901,-0.530,0.030,-0.565,141.667,88.889,380.556,713.889,2.778,N
902,-0.560,0.010,-0.585,127.778,72.222,388.889,683.333,30.556,N
903,-0.590,-0.045,-0.640,144.444,66.667,355.556,725.000,41.667,N
904,-0.650,-0.095,-0.725,138.889,63.889,372.222,697.222,27.778,N
905,-0.740,-0.075,-0.670,155.556,75.000,391.667,705.556,8.333,N
906,-0.595,0.085,-0.555,147.222,83.333,400.000,722.222,16.667,N
907,-0.500,0.180,-0.540,141.667,69.444,380.556,713.889,8.333,N
908,-0.535,0.115,-0.595,136.111,88.889,386.111,691.667,22.222,N
909,-0.550,0.065,-0.575,138.889,91.667,405.556,694.444,2.778,N
910,-0.545,0.035,-0.575,133.333,80.556,386.111,727.778,33.333,N
911,-0.560,0.005,-0.575,138.889,83.333,377.778,705.556,22.222,N
912,-0.575,-0.025,-0.590,136.111,77.778,377.778,702.778,2.778,N
913,-0.580,-0.035,-0.615,138.889,83.333,383.333,694.444,8.333,N
914,-0.630,-0.065,-0.670,138.889,77.778,375.000,708.333,13.889,N
915,-0.650,-0.020,-0.630,138.889,77.778,380.556,688.889,19.444,N
916,-0.600,0.060,-0.595,138.889,86.111,405.556,708.333,19.444,N
917,-0.545,0.105,-0.575,147.222,63.889,377.778,711.111,2.778,N
918,-0.540,0.060,-0.585,141.667,83.333,380.556,691.667,19.444,N
919,-0.575,0.020,-0.600,133.333,75.000,380.556,683.333,8.333,N
920,-0.580,0.015,-0.605,138.889,77.778,383.333,705.556,22.222,N
921,-0.585,-0.055,-0.685,136.111,75.000,383.333,705.556,0.000,N
922,-0.690,-0.140,-0.750,133.333,75.000,383.333,694.444,11.111,N
923,-0.760,-0.125,-0.750,144.444,86.111,405.556,686.111,8.333,N
924,-0.705,-0.010,-0.680,127.778,75.000,388.889,705.556,19.444,N
925,-0.645,0.020,-0.680,144.444,86.111,377.778,688.889,16.667,N
926,-0.675,-0.005,-0.715,144.444,69.444,383.333,677.778,11.111,N
927,-0.685,-0.085,-0.735,144.444,63.889,377.778,697.222,19.444,N
928,-0.700,-0.140,-0.755,141.667,86.111,383.333,697.222,0.000,N
929,-0.755,-0.140,-0.755,125.000,69.444,383.333,677.778,19.444,N
930,-0.735,-0.150,-0.735,138.889,86.111,405.556,688.889,11.111,N
931,-0.715,-0.115,-0.660,133.333,69.444,380.556,713.889,25.000,N
932,-0.665,-0.095,-0.635,133.333,88.889,386.111,683.333,30.556,N
933,-0.630,-0.120,-0.635,144.444,86.111,380.556,702.778,19.444,N
934,-0.680,-0.080,-0.600,141.667,66.667,377.778,683.333,19.444,N
935,-0.605,0.075,-0.575,144.444,77.778,369.444,711.111,27.778,N
936,-0.565,0.130,-0.515,136.111,69.444,388.889,680.556,30.556,N
937,-0.535,0.145,-0.610,147.222,72.222,383.333,705.556,25.000,N
938,-0.600,0.000,-0.685,144.444,58.333,375.000,694.444,11.111,N
939,-0.685,-0.095,-0.735,141.667,86.111,386.111,691.667,2.778,N
940,-0.735,-0.160,-0.720,133.333,77.778,386.111,688.889,2.778,N
941,-0.720,-0.135,-0.675,144.444,72.222,386.111,691.667,2.778,N
942,-0.635,-0.035,-0.620,136.111,75.000,375.000,713.889,22.222,N
943,-0.640,-0.105,-0.730,136.111,61.111,352.778,683.333,30.556,N
944,-0.745,-0.080,-0.770,127.778,72.222,369.444,683.333,0.000,N
945,-0.795,-0.175,-0.920,141.667,58.333,355.556,697.222,13.889,N
946,-0.870,-0.180,-0.875,119.444,66.667,380.556,688.889,8.333,N
947,-0.855,-0.140,-0.890,136.111,91.667,394.444,688.889,0.000,N
948,-0.820,-0.120,-0.890,144.444,83.333,400.000,700.000,11.111,N
949,-0.870,-0.190,-0.845,136.111,86.111,375.000,711.111,11.111,N
950,-0.810,-0.100,-0.795,138.889,80.556,391.667,686.111,25.000,N
951,-0.770,-0.105,-0.705,127.778,75.000,369.444,694.444,8.333,N
952,-0.670,-0.085,-0.660,144.444,66.667,383.333,713.889,19.444,N
953,-0.630,-0.005,-0.690,116.667,69.444,366.667,702.778,11.111,N
954,-0.670,-0.015,-0.600,155.556,72.222,350.000,711.111,8.333,N
955,-0.585,0.085,-0.415,125.000,83.333,394.444,677.778,33.333,N
956,-0.360,0.255,-0.400,138.889,86.111,383.333,711.111,33.333,N
957,-0.550,0.020,-0.715,150.000,63.889,361.111,677.778,33.333,N
958,-0.730,0.000,-0.670,138.889,61.111,377.778,691.667,13.889,N
959,-0.600,0.120,-0.655,144.444,86.111,397.222,697.222,5.556,N
960,-0.630,0.035,-0.670,125.000,66.667,377.778,680.556,16.667,N
961,-0.645,0.040,-0.700,136.111,72.222,377.778,677.778,2.778,N
962,-0.680,-0.025,-0.745,144.444,55.556,358.333,677.778,0.000,N
963,-0.680,-0.050,-0.745,141.667,86.111,386.111,702.778,25.000,N
964,-0.705,-0.065,-0.670,136.111,88.889,391.667,686.111,16.667,N
965,-0.670,0.020,-0.615,133.333,72.222,377.778,697.222,11.111,N
966,-0.615,0.165,-0.585,180.556,77.778,383.333,680.556,16.667,N
967,-0.510,0.245,-0.540,133.333,80.556,394.444,694.444,13.889,N
968,-0.485,0.285,-0.325,180.556,83.333,386.111,705.556,11.111,N
969,-0.380,0.270,-0.595,133.333,66.667,386.111,711.111,5.556,N
970,-0.535,0.165,-0.565,144.444,80.556,397.222,713.889,2.778,N
971,-0.610,0.135,-0.660,138.889,75.000,366.667,697.222,16.667,N
972,-0.595,0.100,-0.665,125.000,69.444,383.333,694.444,2.778,N
973,-0.615,0.050,-0.635,158.333,83.333,394.444,700.000,5.556,N
974,-0.620,0.010,-0.550,125.000,75.000,366.667,702.778,2.778,N
975,-0.675,-0.010,-0.835,133.333,72.222,388.889,705.556,2.778,N
976,-0.830,-0.300,-0.905,116.667,83.333,380.556,686.111,19.444,N
977,-0.970,-0.240,-0.760,130.556,69.444,347.222,691.667,5.556,N
978,-0.800,-0.360,-0.750,138.889,50.000,-688111.111,686.111,5.556,N
979,-0.750,-1.160,-0.750,688822.222,72.222,-688780.556,688.889,2.778,N
980,-0.750,-1.140,-0.750,689516.667,75.000,-689475.000,694.444,5.556,N
981,-0.750,-0.425,-0.695,690219.444,83.333,383.333,702.778,8.333,N
982,-0.530,0.315,-0.215,127.778,69.444,380.556,686.111,16.667,N
983,-0.120,0.670,0.250,116.667,72.222,380.556,694.444,8.333,N
984,0.145,0.810,0.060,133.333,91.667,391.667,711.111,16.667,N
985,-0.030,0.590,-0.410,150.000,63.889,86.111,716.667,5.556,N
986,-0.930,-0.450,-0.750,161.111,63.889,-693708.333,713.889,2.778,N
987,-0.750,-0.110,-0.485,694447.222,83.333,386.111,705.556,8.333,N
988,-0.340,0.365,-0.085,127.778,66.667,380.556,713.889,8.333,N
989,0.030,0.670,0.070,136.111,86.111,388.889,719.444,5.556,N
990,0.050,0.655,0.040,136.111,83.333,380.556,708.333,11.111,N
991,0.010,0.645,-0.010,144.444,83.333,391.667,713.889,5.556,N
992,-0.030,0.625,0.035,116.667,63.889,380.556,694.444,19.444,N
993,0.030,0.685,-0.065,130.556,72.222,377.778,708.333,13.889,N
994,-0.095,0.565,-0.195,127.778,72.222,380.556,702.778,5.556,N
995,-0.215,0.410,-0.390,138.889,86.111,380.556,713.889,11.111,N
996,-0.420,0.200,-0.540,130.556,75.000,383.333,722.222,8.333,N
997,-0.510,0.160,-0.530,136.111,63.889,361.111,713.889,8.333,N
998,-0.475,0.200,-0.540,130.556,69.444,377.778,750.000,36.111,N
999,-0.535,0.160,-0.630,133.333,80.556,388.889,741.667,8.333,N
1000,-0.580,0.100,-0.660,133.333,66.667,377.778,761.111,19.444,N
1001,-0.700,-0.135,-0.645,119.444,86.111,405.556,627.778,133.333,A
1002,-0.685,0.110,-0.610,152.778,63.889,377.778,963.889,336.111,N
1003,-0.720,-0.015,-0.710,161.111,75.000,386.111,811.111,152.778,N
1004,-0.705,0.055,-0.710,166.667,83.333,386.111,838.889,27.778,N
1005,-0.700,0.065,-0.595,155.556,80.556,391.667,791.667,47.222,N
1006,-0.540,0.220,-0.580,127.778,83.333,394.444,747.222,44.444,N
1007,-0.545,0.180,-0.610,147.222,63.889,380.556,750.000,2.778,N
1008,-0.615,0.060,-0.695,141.667,69.444,383.333,730.556,19.444,N
1009,-0.685,-0.050,-0.815,138.889,66.667,383.333,722.222,8.333,N
1010,-0.765,-0.070,-0.800,133.333,69.444,383.333,722.222,0.000,N
1011,-0.750,0.010,-0.760,133.333,72.222,377.778,705.556,16.667,N
1012,-0.660,0.085,-0.635,147.222,61.111,375.000,719.444,13.889,N
1013,-0.550,0.205,-0.685,136.111,80.556,397.222,686.111,33.333,N
1014,-0.675,0.100,-0.830,136.111,83.333,366.667,733.333,47.222,N
1015,-0.780,-0.055,-0.850,138.889,72.222,386.111,697.222,36.111,N
1016,-0.790,-0.110,-0.710,133.333,88.889,377.778,708.333,11.111,N
1017,-0.685,0.035,-0.565,127.778,88.889,405.556,686.111,22.222,N
1018,-0.460,0.205,-0.365,130.556,77.778,386.111,705.556,19.444,N
1019,-0.390,0.340,-0.255,136.111,69.444,380.556,700.000,5.556,N
1020,-0.165,0.575,-0.025,138.889,69.444,377.778,694.444,5.556,N
1021,0.065,0.785,0.045,147.222,86.111,386.111,716.667,22.222,N
1022,0.035,0.695,-0.205,130.556,75.000,386.111,686.111,30.556,N
1023,-0.260,0.320,-0.510,144.444,86.111,377.778,688.889,2.778,N
1024,-0.550,-0.005,-0.740,147.222,83.333,388.889,691.667,2.778,N
1025,-0.730,-0.170,-0.865,136.111,80.556,380.556,694.444,2.778,N
1026,-0.860,-0.270,-0.890,158.333,75.000,377.778,697.222,2.778,N
1027,-0.830,-0.250,-0.780,127.778,80.556,394.444,663.889,33.333,N
1028,-0.710,-0.090,-0.665,138.889,69.444,380.556,694.444,30.556,N
1029,-0.645,-0.085,-0.725,138.889,86.111,386.111,683.333,11.111,N
1030,-0.795,-0.230,-0.915,136.111,66.667,380.556,688.889,5.556,N
1031,-0.910,-0.265,-0.970,150.000,63.889,383.333,697.222,8.333,N
1032,-0.915,-0.235,-0.915,119.444,69.444,386.111,700.000,2.778,N
1033,-0.920,-0.265,-0.980,136.111,86.111,402.778,694.444,5.556,N
1034,-0.915,-0.360,-0.960,130.556,58.333,375.000,675.000,19.444,N
1035,-0.860,-0.275,-0.985,122.222,88.889,402.778,722.222,47.222,N
1036,-0.990,-0.345,-0.970,141.667,86.111,386.111,697.222,25.000,N
1037,-0.880,-0.340,-0.855,122.222,86.111,380.556,697.222,0.000,N
1038,-0.875,-0.225,-0.915,130.556,83.333,400.000,686.111,11.111,N
1039,-0.900,-0.220,-0.915,133.333,66.667,352.778,700.000,13.889,N
1040,-0.910,-0.315,-0.790,144.444,88.889,380.556,688.889,11.111,N
1041,-0.760,-0.150,-0.645,130.556,66.667,363.889,688.889,0.000,N
1042,-0.630,0.060,-0.550,175.000,86.111,386.111,708.333,19.444,N
1043,-0.565,-0.060,-0.640,141.667,86.111,383.333,700.000,8.333,N
1044,-0.645,-0.105,-0.685,138.889,83.333,375.000,672.222,27.778,N
1045,-0.700,-0.100,-0.750,161.111,80.556,394.444,680.556,8.333,N
1046,-0.705,-0.065,-0.695,147.222,75.000,386.111,700.000,19.444,N
1047,-0.635,0.035,-0.605,133.333,77.778,383.333,675.000,25.000,N
1048,-0.560,0.030,-0.580,125.000,83.333,391.667,661.111,13.889,N
1049,-0.565,-0.015,-0.630,144.444,58.333,347.222,688.889,27.778,N
1050,-0.590,0.000,-0.570,141.667,63.889,383.333,666.667,22.222,N
1051,-0.560,-0.005,-0.605,127.778,72.222,386.111,677.778,11.111,N
1052,-0.585,-0.015,-0.560,147.222,55.556,372.222,686.111,8.333,N
1053,-0.535,0.020,-0.580,144.444,75.000,366.667,705.556,19.444,N
1054,-0.570,0.055,-0.625,130.556,75.000,383.333,680.556,25.000,N
1055,-0.590,0.110,-0.590,133.333,86.111,400.000,677.778,2.778,N
1056,-0.535,0.115,-0.615,150.000,72.222,386.111,711.111,33.333,N
1057,-0.560,0.070,-0.610,141.667,86.111,391.667,688.889,22.222,N
1058,-0.570,0.110,-0.605,127.778,77.778,380.556,688.889,0.000,N
1059,-0.565,0.070,-0.610,136.111,80.556,397.222,675.000,13.889,N
1060,-0.555,0.040,-0.615,141.667,86.111,405.556,708.333,33.333,N
1061,-0.580,0.025,-0.655,138.889,86.111,380.556,700.000,8.333,N
1062,-0.655,-0.035,-0.740,136.111,66.667,377.778,691.667,8.333,N
1063,-0.720,-0.010,-0.750,138.889,88.889,405.556,711.111,19.444,N
1064,-0.710,0.010,-0.790,138.889,69.444,383.333,716.667,5.556,N
1065,-0.765,-0.080,-0.835,133.333,72.222,383.333,691.667,25.000,N
1066,-0.790,-0.105,-0.805,147.222,63.889,383.333,700.000,8.333,N
1067,-0.750,-0.080,-0.760,138.889,86.111,391.667,719.444,19.444,N
1068,-0.690,-0.085,-0.700,141.667,86.111,386.111,702.778,16.667,N
1069,-0.635,0.010,-0.630,133.333,69.444,377.778,686.111,16.667,N
1070,-0.615,0.035,-0.630,136.111,72.222,383.333,702.778,16.667,N
1071,-0.605,0.095,-0.570,141.667,86.111,405.556,686.111,16.667,N
1072,-0.550,0.200,-0.635,130.556,83.333,377.778,694.444,8.333,N
1073,-0.620,0.100,-0.695,144.444,66.667,386.111,686.111,8.333,N
1074,-0.685,-0.010,-0.720,122.222,61.111,375.000,694.444,8.333,N
1075,-0.705,-0.035,-0.720,130.556,72.222,377.778,680.556,13.889,N
1076,-0.715,-0.135,-0.735,138.889,63.889,358.333,677.778,2.778,N
1077,-0.720,-0.095,-0.745,141.667,86.111,397.222,697.222,19.444,N
1078,-0.715,-0.120,-0.935,141.667,86.111,383.333,700.000,2.778,N
1079,-0.910,-0.170,-0.875,130.556,72.222,369.444,677.778,22.222,N
1080,-0.830,-0.030,-0.750,125.000,88.889,375.000,669.444,8.333,N
1081,-0.655,0.120,-0.675,175.000,55.556,347.222,702.778,33.333,N
1082,-0.635,0.030,-0.765,133.333,72.222,388.889,663.889,38.889,N
1083,-0.720,0.000,-0.745,136.111,83.333,391.667,680.556,16.667,N
1084,-0.495,0.100,-0.505,136.111,66.667,352.778,694.444,13.889,N
1085,-0.455,-0.070,-0.650,130.556,63.889,375.000,691.667,2.778,N
1086,-0.605,0.095,-0.600,133.333,80.556,400.000,680.556,11.111,N
1087,-0.540,0.075,-0.550,141.667,69.444,372.222,686.111,5.556,N
1088,-0.480,0.075,-0.340,169.444,86.111,400.000,702.778,16.667,N
1089,-0.255,0.260,-0.265,125.000,58.333,355.556,694.444,8.333,N
1090,-0.305,0.275,-0.465,113.889,75.000,375.000,683.333,11.111,N
1091,-0.405,0.145,-0.550,125.000,75.000,388.889,672.222,11.111,N
1092,-0.510,-0.020,-0.535,125.000,63.889,355.556,688.889,16.667,N
1093,-0.525,0.070,-0.580,136.111,77.778,369.444,675.000,13.889,N
1094,-0.555,0.090,-0.560,130.556,58.333,352.778,677.778,2.778,N
1095,-0.585,0.125,-0.420,155.556,66.667,383.333,688.889,11.111,N
1096,-0.495,0.040,-0.580,169.444,77.778,369.444,688.889,0.000,N
1097,-0.655,0.000,-0.665,163.889,66.667,366.667,669.444,19.444,N
1098,-0.620,-0.010,-0.460,125.000,86.111,405.556,669.444,0.000,N
1099,-0.515,-0.085,-0.550,133.333,86.111,391.667,705.556,36.111,N
1100,-0.550,0.010,-0.725,194.444,63.889,377.778,530.556,175.000,A
1101,-0.565,0.055,-0.565,144.444,86.111,391.667,819.444,288.889,N
1102,-0.685,0.010,-0.650,144.444,63.889,380.556,672.222,147.222,N
1103,-0.685,0.030,-0.610,116.667,80.556,369.444,697.222,25.000,N
1104,-0.575,0.170,-0.630,122.222,86.111,400.000,680.556,16.667,N
1105,-0.555,0.165,-0.505,141.667,58.333,369.444,708.333,27.778,N
1106,-0.560,0.135,-0.610,136.111,88.889,402.778,705.556,2.778,N
1107,-0.550,0.185,-0.565,169.444,86.111,386.111,705.556,0.000,N
1108,-0.480,0.235,-0.485,144.444,55.556,344.444,708.333,2.778,N
1109,-0.445,0.275,-0.545,186.111,75.000,388.889,708.333,0.000,N
1110,-0.405,0.025,-0.495,113.889,88.889,402.778,725.000,16.667,N
1111,-0.460,0.115,-0.625,141.667,75.000,386.111,713.889,11.111,N
1112,-0.655,0.015,-0.685,136.111,77.778,386.111,700.000,13.889,N
1113,-0.690,0.065,-0.700,141.667,86.111,383.333,711.111,11.111,N
1114,-0.650,0.125,-0.655,133.333,72.222,380.556,688.889,22.222,N
1115,-0.635,0.025,-0.745,119.444,72.222,375.000,697.222,8.333,N
1116,-0.745,0.025,-0.735,177.778,80.556,388.889,702.778,5.556,N
1117,-0.685,0.095,-0.635,116.667,66.667,363.889,691.667,11.111,N
1118,-0.565,0.195,-0.580,138.889,77.778,363.889,694.444,2.778,N
1119,-0.560,0.210,-0.580,141.667,63.889,377.778,694.444,0.000,N
1120,-0.515,0.245,-0.555,136.111,80.556,380.556,722.222,27.778,N
1121,-0.530,0.190,-0.565,144.444,63.889,355.556,691.667,30.556,N
1122,-0.535,0.180,-0.570,127.778,61.111,363.889,716.667,25.000,N
1123,-0.500,0.205,-0.560,177.778,63.889,383.333,688.889,27.778,N
1124,-0.540,0.000,-0.565,155.556,86.111,369.444,705.556,16.667,N
1125,-0.540,0.030,-0.560,141.667,86.111,397.222,700.000,5.556,N
1126,-0.580,0.120,-0.520,144.444,75.000,377.778,702.778,2.778,N
1127,-0.480,0.070,-0.550,136.111,88.889,386.111,711.111,8.333,N
1128,-0.635,0.000,-0.735,130.556,61.111,361.111,680.556,30.556,N
1129,-0.665,0.020,-0.685,177.778,72.222,358.333,694.444,13.889,N
1130,-0.595,0.100,-0.600,141.667,86.111,400.000,688.889,5.556,N
1131,-0.565,0.155,-0.630,130.556,75.000,383.333,694.444,5.556,N
1132,-0.625,0.020,-0.730,150.000,69.444,383.333,688.889,5.556,N
1133,-0.710,-0.090,-0.780,136.111,75.000,377.778,680.556,8.333,N
1134,-0.810,-0.190,-0.865,141.667,77.778,366.667,686.111,5.556,N
1135,-0.815,-0.030,-0.760,144.444,61.111,369.444,683.333,2.778,N
1136,-0.730,0.000,-0.760,130.556,66.667,363.889,688.889,5.556,N
1137,-0.635,0.045,-0.755,102.778,91.667,405.556,691.667,2.778,N
1138,-0.650,-0.110,-0.775,141.667,77.778,377.778,691.667,0.000,N
1139,-0.710,-0.085,-0.710,122.222,88.889,380.556,683.333,8.333,N
1140,-0.675,-0.095,-0.675,136.111,86.111,388.889,683.333,0.000,N
1141,-0.690,-0.065,-0.680,138.889,63.889,377.778,700.000,16.667,N
1142,-0.635,-0.015,-0.625,130.556,80.556,388.889,688.889,11.111,N
1143,-0.615,-0.035,-0.630,150.000,58.333,341.667,691.667,2.778,N
1144,-0.575,0.000,-0.585,141.667,66.667,366.667,658.333,33.333,N
1145,-0.545,0.030,-0.550,130.556,77.778,369.444,686.111,27.778,N
1146,-0.580,-0.020,-0.635,144.444,72.222,372.222,669.444,16.667,N
1147,-0.590,0.055,-0.515,147.222,63.889,327.778,675.000,5.556,N
1148,-0.460,0.085,-0.600,152.778,80.556,380.556,677.778,2.778,N
1149,-0.540,0.065,-0.505,180.556,86.111,397.222,675.000,2.778,N
1150,-0.540,0.090,-0.555,127.778,69.444,380.556,661.111,13.889,N
1151,-0.490,0.120,-0.660,116.667,83.333,394.444,661.111,0.000,N
1152,-0.615,0.095,-0.620,163.889,77.778,391.667,677.778,16.667,N
1153,-0.590,0.075,-0.565,144.444,86.111,397.222,669.444,8.333,N
1154,-0.500,0.030,-0.470,169.444,88.889,394.444,675.000,5.556,N
1155,-0.400,0.165,-0.385,125.000,72.222,383.333,655.556,19.444,N
1156,-0.410,0.120,-0.485,136.111,86.111,397.222,672.222,16.667,N
1157,-0.455,0.075,-0.460,138.889,83.333,383.333,677.778,5.556,N
1158,-0.405,0.185,-0.540,136.111,75.000,355.556,675.000,2.778,N
1159,-0.530,0.005,-0.660,180.556,69.444,386.111,694.444,19.444,N
1160,-0.635,-0.020,-0.570,119.444,55.556,363.889,677.778,16.667,N
1161,-0.475,0.190,-0.435,169.444,75.000,363.889,683.333,5.556,N
1162,-0.455,0.120,-0.410,108.333,86.111,394.444,666.667,16.667,N
1163,-0.450,0.130,-0.535,141.667,80.556,350.000,705.556,38.889,N
1164,-0.560,0.025,-0.640,175.000,66.667,383.333,680.556,25.000,N
1165,-0.680,-0.080,-0.710,130.556,58.333,322.222,680.556,0.000,N
1166,-0.720,-0.105,-0.765,136.111,75.000,377.778,666.667,13.889,N
1167,-0.745,-0.195,-0.770,136.111,86.111,380.556,675.000,8.333,N
1168,-0.810,-0.245,-0.805,133.333,80.556,386.111,658.333,16.667,N
1169,-0.680,-0.015,-0.615,172.222,66.667,377.778,663.889,5.556,N
1170,-0.550,-0.025,-0.720,172.222,66.667,383.333,680.556,16.667,N
1171,-0.690,-0.030,-0.730,133.333,88.889,388.889,661.111,19.444,N
1172,-0.730,-0.085,-0.765,180.556,66.667,347.222,655.556,5.556,N
1173,-0.835,-0.120,-0.830,150.000,69.444,388.889,658.333,2.778,N
1174,-0.780,0.040,-0.720,191.667,75.000,380.556,675.000,16.667,N
1175,-0.705,0.035,-0.720,161.111,77.778,386.111,672.222,2.778,N
1176,-0.685,-0.015,-0.765,144.444,75.000,391.667,658.333,13.889,N
1177,-0.610,0.035,-0.675,138.889,86.111,386.111,652.778,5.556,N
1178,-0.670,0.055,-0.655,133.333,83.333,391.667,661.111,8.333,N
1179,-0.530,0.150,-0.455,136.111,55.556,347.222,669.444,8.333,N
1180,-0.410,0.355,-0.485,130.556,86.111,391.667,663.889,5.556,N
1181,-0.365,0.250,-0.570,144.444,83.333,358.333,675.000,11.111,N
1182,-0.310,0.155,-0.470,36.111,55.556,369.444,666.667,8.333,N
1183,-0.405,0.365,-0.425,50.000,69.444,116.667,666.667,0.000,N
1184,-0.495,0.195,-0.655,83.333,86.111,125.000,658.333,8.333,N
1185,-0.555,-0.055,-0.700,155.556,86.111,402.778,686.111,27.778,N
1186,-0.655,-0.075,-0.705,116.667,66.667,352.778,669.444,16.667,N
1187,-0.665,-0.070,-0.730,161.111,58.333,350.000,663.889,5.556,N
1188,-0.635,-0.135,-0.705,138.889,80.556,397.222,663.889,0.000,N
1189,-0.670,-0.155,-0.800,150.000,66.667,386.111,675.000,11.111,N
1190,-0.845,-0.170,-0.870,141.667,58.333,369.444,669.444,5.556,N
1191,-0.825,-0.145,-0.745,133.333,75.000,386.111,666.667,2.778,N
1192,-0.705,0.075,-0.690,147.222,69.444,377.778,700.000,33.333,N
1193,-0.650,0.015,-0.710,150.000,66.667,386.111,663.889,36.111,N
1194,-0.665,0.090,-0.670,136.111,66.667,383.333,672.222,8.333,N
1195,-0.690,0.045,-0.675,141.667,91.667,400.000,672.222,0.000,N
1196,-0.610,0.010,-0.675,155.556,72.222,386.111,697.222,25.000,N
1197,-0.695,-0.020,-0.770,138.889,88.889,366.667,666.667,30.556,N
1198,-0.735,-0.070,-0.765,127.778,66.667,352.778,661.111,5.556,N
1199,-0.670,0.085,-0.585,144.444,72.222,380.556,672.222,11.111,N
1200,-0.595,0.215,-0.635,138.889,77.778,391.667,672.222,0.000,N
1201,-0.605,0.175,-0.665,136.111,75.000,366.667,666.667,5.556,N
1202,-0.660,0.110,-0.655,133.333,83.333,391.667,663.889,2.778,N
1203,-0.620,0.115,-0.615,133.333,77.778,383.333,675.000,11.111,N
1204,-0.540,0.215,-0.590,147.222,72.222,377.778,661.111,13.889,N
1205,-0.555,0.210,-0.590,122.222,75.000,391.667,661.111,0.000,N
1206,-0.580,0.215,-0.615,144.444,69.444,377.778,669.444,8.333,N
1207,-0.625,0.230,-0.605,136.111,83.333,383.333,677.778,8.333,N
1208,-0.595,0.035,-0.540,136.111,86.111,383.333,672.222,5.556,N
1209,-0.605,0.120,-0.595,150.000,55.556,352.778,663.889,8.333,N
1210,-0.585,0.135,-0.595,138.889,86.111,394.444,672.222,8.333,N
1211,-0.545,0.065,-0.615,122.222,72.222,386.111,680.556,8.333,N
1212,-0.565,0.100,-0.525,144.444,86.111,383.333,686.111,5.556,N
1213,-0.510,0.200,-0.510,141.667,86.111,397.222,669.444,16.667,N
1214,-0.490,0.235,-0.470,136.111,86.111,386.111,691.667,22.222,N
1215,-0.360,0.370,-0.325,147.222,72.222,388.889,680.556,11.111,N
1216,-0.285,0.395,-0.310,138.889,86.111,400.000,661.111,19.444,N
1217,-0.280,0.425,-0.295,147.222,69.444,377.778,683.333,22.222,N
1218,-0.280,0.300,-0.350,150.000,66.667,380.556,694.444,11.111,N
1219,-0.370,0.270,-0.415,130.556,69.444,377.778,675.000,19.444,N
1220,-0.435,0.170,-0.535,138.889,63.889,383.333,658.333,16.667,N
1221,-0.485,0.020,-0.540,150.000,86.111,380.556,688.889,30.556,N
1222,-0.585,0.005,-0.635,141.667,63.889,355.556,672.222,16.667,N
1223,-0.690,-0.170,-0.970,127.778,63.889,122.222,669.444,2.778,N
1224,-0.750,-0.680,-0.750,858122.222,80.556,-858072.222,688.889,19.444,N
1225,-0.750,-0.840,-0.750,858811.111,75.000,-858763.889,688.889,0.000,N
1226,-0.750,-0.700,-0.750,859483.333,77.778,-859433.333,672.222,16.667,N
1227,-0.750,-0.500,-0.750,860152.778,80.556,-860102.778,669.444,2.778,N
1228,-0.945,-0.285,-0.785,144.444,61.111,361.111,691.667,22.222,N
1229,-0.665,-0.020,-0.500,144.444,72.222,388.889,686.111,5.556,N
1230,-0.495,0.065,-0.465,141.667,75.000,350.000,691.667,5.556,N
1231,-0.400,0.360,-0.465,122.222,69.444,388.889,661.111,30.556,N
1232,-0.425,0.335,-0.400,125.000,72.222,375.000,700.000,38.889,N
1233,-0.300,0.470,-0.195,172.222,83.333,391.667,675.000,25.000,N
1234,-0.165,0.570,-0.240,138.889,88.889,402.778,677.778,2.778,N
1235,-0.220,0.450,-0.430,144.444,88.889,386.111,691.667,13.889,N
1236,-0.430,0.275,-0.645,136.111,75.000,383.333,697.222,5.556,N
1237,-0.330,0.225,-0.410,166.667,88.889,386.111,672.222,25.000,N
1238,-0.360,0.350,-0.405,138.889,75.000,380.556,691.667,19.444,N
1239,-0.415,0.350,-0.525,138.889,80.556,388.889,702.778,11.111,N
1240,-0.565,0.200,-0.470,144.444,72.222,383.333,691.667,11.111,N
1241,-0.390,0.335,-0.520,138.889,86.111,383.333,683.333,8.333,N
1242,-0.490,0.220,-0.585,144.444,91.667,405.556,672.222,11.111,N
1243,-0.500,0.210,-0.570,138.889,88.889,388.889,694.444,22.222,N
1244,-0.560,0.145,-0.590,141.667,63.889,380.556,680.556,13.889,N
1245,-0.570,0.095,-0.690,138.889,80.556,380.556,686.111,5.556,N
1246,-0.670,-0.055,-0.755,144.444,80.556,391.667,705.556,19.444,N
1247,-0.750,0.050,-0.745,138.889,61.111,380.556,686.111,19.444,N
1248,-0.690,0.095,-0.625,169.444,66.667,383.333,691.667,5.556,N
1249,-0.565,0.245,-0.675,136.111,61.111,369.444,680.556,11.111,N
1250,-0.590,0.200,-0.605,136.111,86.111,380.556,708.333,27.778,N
1251,-0.565,0.110,-0.690,144.444,63.889,383.333,680.556,27.778,N
1252,-0.680,0.040,-0.810,133.333,80.556,380.556,677.778,2.778,N
1253,-0.745,0.075,-0.690,144.444,72.222,388.889,691.667,13.889,N
1254,-0.575,0.235,-0.505,138.889,83.333,391.667,686.111,5.556,N
1255,-0.505,0.270,-0.505,125.000,63.889,377.778,680.556,5.556,N
1256,-0.460,0.225,-0.535,141.667,86.111,383.333,688.889,8.333,N
1257,-0.525,0.125,-0.610,144.444,61.111,352.778,702.778,13.889,N
1258,-0.590,0.085,-0.635,133.333,80.556,386.111,686.111,16.667,N
1259,-0.640,0.035,-0.700,136.111,72.222,380.556,697.222,11.111,N
1260,-0.730,-0.090,-0.820,141.667,88.889,383.333,711.111,13.889,N
1261,-0.850,-0.190,-0.855,122.222,55.556,377.778,708.333,2.778,N
1262,-0.735,0.025,-0.660,144.444,63.889,380.556,700.000,8.333,N
1263,-0.600,0.150,-0.625,141.667,83.333,380.556,700.000,0.000,N
1264,-0.580,0.160,-0.585,133.333,75.000,377.778,713.889,13.889,N
1265,-0.530,0.160,-0.530,138.889,80.556,383.333,708.333,5.556,N
1266,-0.545,0.100,-0.615,144.444,88.889,391.667,708.333,0.000,N
1267,-0.590,0.160,-0.545,147.222,77.778,394.444,727.778,19.444,N
1268,-0.435,0.360,-0.305,127.778,72.222,388.889,713.889,13.889,N
1269,-0.240,0.525,-0.200,130.556,66.667,383.333,711.111,2.778,N
1270,-0.160,0.595,-0.275,141.667,86.111,388.889,711.111,0.000,N
1271,-0.245,0.450,-0.345,138.889,80.556,386.111,730.556,19.444,N
1272,-0.345,0.370,-0.445,138.889,83.333,383.333,702.778,27.778,N
1273,-0.450,0.200,-0.555,138.889,55.556,350.000,708.333,5.556,N
1274,-0.565,0.125,-0.605,155.556,69.444,383.333,711.111,2.778,N
1275,-0.645,-0.040,-0.690,130.556,75.000,377.778,702.778,8.333,N
1276,-0.690,-0.105,-0.785,141.667,88.889,386.111,713.889,11.111,N
1277,-0.785,-0.120,-0.840,141.667,83.333,402.778,705.556,8.333,N
1278,-0.750,-0.015,-0.665,136.111,77.778,383.333,719.444,13.889,N
1279,-0.615,0.145,-0.590,130.556,80.556,394.444,697.222,22.222,N
1280,-0.560,0.125,-0.575,130.556,75.000,386.111,697.222,0.000,N
1281,-0.560,0.080,-0.625,152.778,58.333,377.778,727.778,30.556,N
1282,-0.650,-0.025,-0.750,141.667,83.333,400.000,702.778,25.000,N
1283,-0.715,-0.130,-0.815,141.667,80.556,377.778,719.444,16.667,N
1284,-0.805,-0.115,-0.800,136.111,77.778,391.667,697.222,22.222,N
1285,-0.670,0.035,-0.645,144.444,86.111,400.000,713.889,16.667,N
1286,-0.580,0.075,-0.630,141.667,88.889,402.778,700.000,13.889,N
1287,-0.615,0.030,-0.640,141.667,72.222,386.111,711.111,11.111,N
1288,-0.625,0.025,-0.655,136.111,88.889,386.111,713.889,2.778,N
1289,-0.610,0.035,-0.610,138.889,83.333,383.333,697.222,16.667,N
1290,-0.615,-0.035,-0.695,133.333,77.778,388.889,694.444,2.778,N
1291,-0.700,-0.100,-0.775,150.000,86.111,383.333,713.889,19.444,N
1292,-0.750,-0.105,-0.755,144.444,58.333,372.222,700.000,13.889,N
1293,-0.640,0.060,-0.610,136.111,72.222,380.556,719.444,19.444,N
1294,-0.555,0.130,-0.590,141.667,61.111,380.556,686.111,33.333,N
1295,-0.535,0.120,-0.570,127.778,77.778,386.111,713.889,27.778,N
1296,-0.540,0.085,-0.580,147.222,66.667,380.556,697.222,16.667,N
1297,-0.575,0.035,-0.625,147.222,86.111,391.667,722.222,25.000,N
1298,-0.620,-0.035,-0.690,152.778,55.556,369.444,725.000,2.778,N
1299,-0.665,-0.085,-0.670,144.444,69.444,377.778,722.222,2.778,N
1300,-0.660,-0.095,-0.700,138.889,77.778,375.000,713.889,8.333,N
1301,-0.720,-0.130,-0.755,147.222,88.889,405.556,713.889,0.000,N
1302,-0.690,0.025,-0.590,136.111,80.556,380.556,716.667,2.778,N
1303,-0.530,0.160,-0.540,147.222,72.222,377.778,725.000,8.333,N
1304,-0.515,0.130,-0.565,155.556,63.889,380.556,694.444,30.556,N
1305,-0.570,0.060,-0.635,144.444,72.222,355.556,705.556,11.111,N
1306,-0.620,-0.020,-0.665,144.444,88.889,402.778,688.889,16.667,N
1307,-0.640,-0.050,-0.670,147.222,69.444,388.889,705.556,16.667,N
1308,-0.675,-0.060,-0.685,133.333,80.556,391.667,716.667,11.111,N
1309,-0.685,-0.135,-0.750,136.111,88.889,402.778,713.889,2.778,N
1310,-0.725,-0.200,-0.720,130.556,75.000,386.111,711.111,2.778,N
1311,-0.720,-0.220,-0.720,133.333,75.000,383.333,702.778,8.333,N
1312,-0.705,-0.180,-0.745,150.000,66.667,383.333,730.556,27.778,N
1313,-0.750,-0.185,-0.780,141.667,77.778,388.889,705.556,25.000,N
1314,-0.765,-0.115,-0.740,147.222,80.556,383.333,708.333,2.778,N
1315,-0.635,0.045,-0.610,141.667,80.556,391.667,700.000,8.333,N
1316,-0.530,0.110,-0.575,144.444,80.556,383.333,705.556,5.556,N
1317,-0.530,0.105,-0.580,144.444,88.889,380.556,702.778,2.778,N
1318,-0.590,-0.005,-0.675,133.333,75.000,383.333,711.111,8.333,N
1319,-0.690,-0.075,-0.780,138.889,83.333,383.333,713.889,2.778,N
1320,-0.735,-0.125,-0.725,147.222,86.111,386.111,705.556,8.333,N
1321,-0.670,-0.075,-0.665,147.222,63.889,380.556,711.111,5.556,N
1322,-0.630,0.040,-0.650,144.444,83.333,380.556,719.444,8.333,N
1323,-0.615,-0.015,-0.695,138.889,86.111,386.111,702.778,16.667,N
1324,-0.660,0.015,-0.695,152.778,72.222,358.333,719.444,16.667,N
1325,-0.655,-0.075,-0.705,147.222,72.222,386.111,697.222,22.222,N
1326,-0.670,-0.085,-0.675,138.889,83.333,388.889,716.667,19.444,N
1327,-0.640,-0.055,-0.680,147.222,63.889,377.778,713.889,2.778,N
1328,-0.680,-0.100,-0.720,158.333,75.000,380.556,711.111,2.778,N
1329,-0.730,-0.200,-0.810,141.667,88.889,388.889,719.444,8.333,N
1330,-0.820,-0.200,-0.870,152.778,72.222,383.333,711.111,8.333,N
1331,-0.820,-0.125,-0.760,136.111,72.222,377.778,702.778,8.333,N
1332,-0.675,-0.015,-0.720,144.444,80.556,397.222,713.889,11.111,N
1333,-0.685,-0.020,-0.695,127.778,72.222,386.111,713.889,0.000,N
1334,-0.675,-0.055,-0.725,141.667,86.111,383.333,716.667,2.778,N
1335,-0.705,-0.110,-0.755,133.333,72.222,372.222,688.889,27.778,N
1336,-0.735,-0.180,-0.785,147.222,88.889,380.556,719.444,30.556,N
1337,-0.760,-0.215,-0.835,144.444,61.111,363.889,705.556,13.889,N
1338,-0.835,-0.235,-0.855,166.667,77.778,386.111,713.889,8.333,N
1339,-0.825,-0.275,-0.890,138.889,58.333,369.444,713.889,0.000,N
1340,-0.885,-0.345,-0.930,144.444,77.778,375.000,722.222,8.333,N
1341,-0.970,-0.360,-0.750,127.778,77.778,-940313.889,691.667,30.556,N
1342,-0.985,-0.320,-0.910,141.667,61.111,377.778,691.667,0.000,N
1343,-0.795,-0.090,-0.725,138.889,77.778,383.333,716.667,25.000,N
1344,-0.670,-0.005,-0.695,144.444,83.333,377.778,711.111,5.556,N
1345,-0.665,-0.030,-0.700,136.111,80.556,383.333,686.111,25.000,N
1346,-0.680,-0.055,-0.715,147.222,69.444,386.111,694.444,8.333,N
1347,-0.675,-0.145,-0.730,144.444,69.444,383.333,697.222,2.778,N
1348,-0.740,-0.180,-0.795,150.000,63.889,377.778,705.556,8.333,N
1349,-0.820,-0.205,-0.845,133.333,72.222,380.556,705.556,0.000,N
1350,-0.780,-0.145,-0.770,138.889,86.111,388.889,711.111,5.556,N
1351,-0.685,-0.075,-0.780,144.444,61.111,372.222,705.556,5.556,N
1352,-0.725,-0.090,-0.745,136.111,83.333,386.111,688.889,16.667,N
1353,-0.715,-0.080,-0.720,144.444,86.111,383.333,705.556,16.667,N
1354,-0.665,-0.060,-0.705,141.667,80.556,383.333,702.778,2.778,N
1355,-0.680,-0.105,-0.670,144.444,86.111,377.778,711.111,8.333,N
1356,-0.640,-0.060,-0.640,127.778,63.889,375.000,680.556,30.556,N
1357,-0.625,-0.025,-0.630,141.667,83.333,386.111,705.556,25.000,N
1358,-0.645,-0.140,-0.655,130.556,75.000,380.556,694.444,11.111,N
1359,-0.685,-0.105,-0.710,130.556,75.000,380.556,700.000,5.556,N
1360,-0.725,-0.155,-0.775,147.222,83.333,377.778,711.111,11.111,N
1361,-0.750,-0.175,-0.810,138.889,80.556,375.000,705.556,5.556,N
1362,-0.765,-0.090,-0.720,133.333,77.778,380.556,688.889,16.667,N
1363,-0.625,0.075,-0.620,141.667,75.000,380.556,700.000,11.111,N
1364,-0.570,0.035,-0.635,141.667,88.889,383.333,716.667,16.667,N
1365,-0.605,-0.010,-0.635,147.222,58.333,377.778,702.778,13.889,N
1366,-0.610,-0.040,-0.615,136.111,88.889,377.778,694.444,8.333,N
1367,-0.625,-0.030,-0.630,163.889,75.000,386.111,716.667,22.222,N
1368,-0.590,0.105,-0.570,158.333,69.444,383.333,705.556,11.111,N
1369,-0.600,0.060,-0.645,172.222,77.778,386.111,708.333,2.778,N
1370,-0.650,0.050,-0.730,163.889,69.444,383.333,711.111,2.778,N
1371,-0.665,-0.020,-0.680,141.667,58.333,361.111,722.222,11.111,N
1372,-0.630,0.055,-0.660,136.111,83.333,400.000,700.000,22.222,N
1373,-0.560,0.080,-0.505,138.889,77.778,383.333,694.444,5.556,N
1374,-0.440,0.150,-0.465,138.889,72.222,386.111,713.889,19.444,N
1375,-0.420,0.130,-0.355,144.444,66.667,383.333,705.556,8.333,N
1376,-0.420,0.280,-0.345,166.667,58.333,355.556,708.333,2.778,N
1377,-0.360,0.230,-0.395,138.889,86.111,377.778,686.111,22.222,N
1378,-0.305,0.280,-0.385,163.889,75.000,386.111,716.667,30.556,N
1379,-0.395,0.125,-0.505,150.000,80.556,391.667,697.222,19.444,N
1380,-0.480,-0.035,-0.570,158.333,63.889,366.667,694.444,2.778,N
1381,-0.560,0.020,-0.450,138.889,88.889,400.000,711.111,16.667,N
1382,-0.365,0.165,-0.330,136.111,69.444,383.333,700.000,11.111,N
1383,-0.310,0.180,-0.320,155.556,61.111,375.000,691.667,8.333,N
1384,-0.320,0.170,-0.320,152.778,66.667,383.333,700.000,8.333,N
1385,-0.295,0.250,-0.335,138.889,83.333,388.889,711.111,11.111,N
1386,-0.365,0.130,-0.450,138.889,69.444,375.000,700.000,11.111,N
1387,-0.475,0.000,-0.555,144.444,66.667,380.556,686.111,13.889,N
1388,-0.565,-0.075,-0.580,136.111,63.889,375.000,702.778,16.667,N
1389,-0.620,-0.155,-0.675,144.444,55.556,350.000,697.222,5.556,N
1390,-0.680,-0.190,-0.710,147.222,77.778,372.222,691.667,5.556,N
1391,-0.680,-0.220,-0.715,144.444,86.111,380.556,702.778,11.111,N
1392,-0.715,-0.265,-0.705,147.222,66.667,355.556,711.111,8.333,N
1393,-0.685,-0.250,-0.700,144.444,52.778,355.556,694.444,16.667,N
1394,-0.670,-0.175,-0.685,136.111,86.111,391.667,686.111,8.333,N
1395,-0.680,-0.200,-0.680,155.556,77.778,391.667,722.222,36.111,N
1396,-0.700,-0.240,-0.675,147.222,61.111,380.556,697.222,25.000,N
1397,-0.685,-0.225,-0.695,155.556,77.778,375.000,711.111,13.889,N
1398,-0.665,-0.235,-0.675,155.556,77.778,388.889,694.444,16.667,N
1399,-0.675,-0.195,-0.645,158.333,75.000,386.111,733.333,38.889,N
1400,-0.640,-0.200,-0.700,150.000,77.778,388.889,722.222,11.111,N
1401,-0.690,-0.265,-0.765,138.889,83.333,386.111,727.778,5.556,N
1402,-0.745,-0.265,-0.755,144.444,88.889,402.778,741.667,13.889,N
1403,-0.700,-0.245,-0.705,138.889,83.333,380.556,727.778,13.889,N
1404,-0.680,-0.200,-0.665,166.667,86.111,388.889,727.778,0.000,N
1405,-0.610,-0.155,-0.675,152.778,86.111,388.889,741.667,13.889,N
1406,-0.640,-0.220,-0.605,144.444,61.111,380.556,741.667,0.000,N
1407,-0.515,-0.065,-0.430,150.000,88.889,375.000,730.556,11.111,N
1408,-0.395,0.035,-0.485,127.778,72.222,391.667,711.111,19.444,N
1409,-0.505,-0.020,-0.585,161.111,63.889,375.000,738.889,27.778,N
1410,-0.610,-0.170,-0.760,144.444,83.333,383.333,713.889,25.000,N
1411,-0.780,-0.280,-0.865,163.889,69.444,386.111,719.444,5.556,N
1412,-0.885,-0.385,-0.925,147.222,66.667,372.222,738.889,19.444,N
1413,-0.945,-0.525,-0.980,144.444,58.333,366.667,722.222,16.667,N
1414,-0.925,-0.480,-0.925,136.111,77.778,383.333,716.667,5.556,N
1415,-0.890,-0.325,-0.895,127.778,72.222,386.111,727.778,11.111,N
1416,-0.885,-0.390,-0.880,144.444,66.667,361.111,752.778,25.000,N
1417,-0.920,-0.435,-0.750,150.000,88.889,-994191.667,727.778,25.000,N
1418,-0.990,-0.480,-0.950,152.778,69.444,388.889,708.333,19.444,N
1419,-0.880,-0.285,-0.820,125.000,86.111,402.778,736.111,27.778,N
1420,-0.775,-0.135,-0.830,163.889,75.000,386.111,711.111,25.000,N
1421,-0.810,-0.160,-0.775,144.444,72.222,383.333,725.000,13.889,N
1422,-0.705,-0.160,-0.945,155.556,88.889,402.778,730.556,5.556,N
1423,-0.920,-0.265,-0.750,133.333,72.222,-998527.778,708.333,22.222,N
1424,-0.945,-0.250,-0.880,127.778,72.222,388.889,700.000,8.333,N
1425,-0.855,-0.220,-0.895,138.889,80.556,388.889,708.333,8.333,N
1426,-0.845,-0.280,-0.830,144.444,61.111,380.556,713.889,5.556,N
1427,-0.725,0.010,-0.590,136.111,83.333,386.111,686.111,27.778,N
1428,-0.550,0.125,-0.555,161.111,72.222,377.778,691.667,5.556,N
1429,-0.520,0.130,-0.520,141.667,66.667,380.556,697.222,5.556,N
1430,-0.515,0.125,-0.530,144.444,86.111,402.778,691.667,5.556,N
1431,-0.480,0.130,-0.515,138.889,58.333,366.667,691.667,0.000,N
1432,-0.480,0.095,-0.475,152.778,72.222,388.889,711.111,19.444,N
1433,-0.455,0.110,-0.445,138.889,86.111,391.667,719.444,8.333,N
1434,-0.470,0.090,-0.495,141.667,83.333,380.556,705.556,13.889,N
1435,-0.510,0.025,-0.520,141.667,80.556,377.778,705.556,0.000,N
1436,-0.550,-0.035,-0.590,138.889,88.889,380.556,733.333,27.778,N
1437,-0.670,-0.195,-0.665,136.111,55.556,355.556,705.556,27.778,N
1438,-0.710,-0.145,-0.695,144.444,55.556,347.222,727.778,22.222,N
1439,-0.670,-0.070,-0.715,141.667,88.889,397.222,694.444,33.333,N
1440,-0.610,0.035,-0.610,119.444,69.444,352.778,713.889,19.444,N
1441,-0.600,0.015,-0.640,138.889,55.556,375.000,691.667,22.222,N
1442,-0.630,0.010,-0.625,147.222,69.444,386.111,708.333,16.667,N
1443,-0.645,-0.040,-0.675,150.000,69.444,386.111,708.333,0.000,N
1444,-0.550,0.195,-0.480,133.333,77.778,383.333,672.222,36.111,N
1445,-0.425,0.270,-0.550,122.222,66.667,377.778,691.667,19.444,N
1446,-0.605,0.090,-0.545,127.778,77.778,391.667,702.778,11.111,N
1447,-0.495,0.160,-0.505,119.444,66.667,383.333,694.444,8.333,N
1448,-0.485,0.095,-0.550,147.222,61.111,380.556,700.000,5.556,N
1449,-0.550,0.010,-0.635,136.111,75.000,380.556,680.556,19.444,N
1450,-0.640,-0.155,-0.725,144.444,83.333,377.778,713.889,33.333,N
1451,-0.745,-0.225,-0.755,136.111,80.556,388.889,688.889,25.000,N
1452,-0.695,-0.070,-0.665,141.667,77.778,380.556,700.000,11.111,N
1453,-0.655,-0.055,-0.680,141.667,86.111,400.000,705.556,5.556,N
1454,-0.640,-0.020,-0.605,136.111,83.333,386.111,697.222,8.333,N
1455,-0.555,0.125,-0.485,133.333,69.444,377.778,697.222,0.000,N
1456,-0.425,0.255,-0.430,133.333,69.444,380.556,691.667,5.556,N
1457,-0.405,0.270,-0.430,152.778,86.111,377.778,725.000,33.333,N
1458,-0.400,0.260,-0.445,133.333,69.444,380.556,683.333,41.667,N
1459,-0.405,0.190,-0.435,138.889,86.111,386.111,705.556,22.222,N
1460,-0.430,0.115,-0.450,161.111,72.222,380.556,691.667,13.889,N
1461,-0.455,0.125,-0.470,127.778,77.778,383.333,702.778,11.111,N
1462,-0.450,0.095,-0.495,144.444,86.111,402.778,713.889,11.111,N
1463,-0.500,0.125,-0.480,169.444,80.556,386.111,722.222,8.333,N
1464,-0.500,0.090,-0.500,152.778,88.889,405.556,719.444,2.778,N
1465,-0.500,0.140,-0.495,138.889,80.556,386.111,713.889,5.556,N
1466,-0.490,0.110,-0.485,138.889,88.889,402.778,716.667,2.778,N
1467,-0.500,0.060,-0.595,158.333,72.222,386.111,744.444,27.778,N
1468,-0.540,0.100,-0.545,138.889,88.889,388.889,713.889,30.556,N
1469,-0.525,0.075,-0.535,136.111,80.556,388.889,725.000,11.111,N
1470,-0.515,0.105,-0.570,136.111,77.778,388.889,705.556,19.444,N
1471,-0.580,0.015,-0.635,130.556,80.556,383.333,702.778,2.778,N
1472,-0.700,-0.160,-0.820,141.667,61.111,372.222,713.889,11.111,N
1473,-0.800,-0.150,-0.860,144.444,66.667,383.333,705.556,8.333,N
1474,-0.800,-0.125,-0.760,141.667,83.333,383.333,719.444,13.889,N
1475,-0.685,-0.050,-0.730,147.222,83.333,394.444,702.778,16.667,N
1476,-0.710,-0.070,-0.810,138.889,88.889,383.333,700.000,2.778,N
1477,-0.750,-0.110,-0.795,147.222,88.889,405.556,702.778,2.778,N
1478,-0.670,0.025,-0.585,122.222,66.667,383.333,708.333,5.556,N
1479,-0.455,0.240,-0.540,147.222,88.889,402.778,727.778,19.444,N
1480,-0.525,0.160,-0.660,136.111,80.556,397.222,688.889,38.889,N
1481,-0.590,0.130,-0.605,133.333,72.222,388.889,725.000,36.111,N
1482,-0.485,0.255,-0.480,150.000,86.111,405.556,725.000,0.000,N
1483,-0.420,0.270,-0.530,144.444,86.111,402.778,727.778,2.778,N
1484,-0.490,0.165,-0.610,150.000,72.222,383.333,741.667,13.889,N
1485,-0.550,0.180,-0.540,141.667,66.667,380.556,725.000,16.667,N
1486,-0.410,0.310,-0.460,147.222,58.333,377.778,738.889,13.889,N
1487,-0.415,0.300,-0.485,152.778,83.333,400.000,733.333,5.556,N
1488,-0.435,0.245,-0.515,144.444,61.111,380.556,733.333,0.000,N
1489,-0.545,0.145,-0.660,147.222,77.778,386.111,744.444,11.111,N
1490,-0.655,-0.025,-0.765,138.889,86.111,405.556,713.889,30.556,N
1491,-0.730,-0.030,-0.700,138.889,77.778,377.778,730.556,16.667,N
1492,-0.675,0.000,-0.650,161.111,69.444,383.333,722.222,8.333,N
1493,-0.620,0.005,-0.695,144.444,66.667,383.333,725.000,2.778,N
1494,-0.640,0.035,-0.655,147.222,58.333,372.222,727.778,2.778,N
1495,-0.605,0.055,-0.605,130.556,69.444,380.556,716.667,11.111,N
1496,-0.570,0.090,-0.630,150.000,88.889,380.556,722.222,5.556,N
1497,-0.625,0.050,-0.620,144.444,69.444,380.556,711.111,11.111,N
1498,-0.575,0.075,-0.555,141.667,88.889,405.556,725.000,13.889,N
1499,-0.560,0.065,-0.585,166.667,77.778,386.111,713.889,11.111,N
1500,-0.625,-0.035,-0.705,136.111,86.111,383.333,708.333,5.556,N
1501,-0.705,-0.040,-0.725,141.667,69.444,386.111,708.333,0.000,N
1502,-0.665,0.020,-0.650,141.667,83.333,391.667,713.889,5.556,N
1503,-0.605,0.100,-0.595,136.111,75.000,380.556,702.778,11.111,N
1504,-0.565,0.120,-0.605,138.889,83.333,391.667,705.556,2.778,N
1505,-0.590,0.035,-0.630,138.889,55.556,352.778,711.111,5.556,N
1506,-0.640,-0.010,-0.705,141.667,88.889,383.333,697.222,13.889,N
1507,-0.735,-0.125,-0.745,133.333,83.333,388.889,691.667,5.556,N
1508,-0.760,-0.215,-0.820,152.778,69.444,386.111,716.667,25.000,N
1509,-0.780,-0.105,-0.805,144.444,86.111,391.667,691.667,25.000,N
1510,-0.725,-0.080,-0.690,136.111,75.000,380.556,691.667,0.000,N
1511,-0.630,0.070,-0.625,150.000,77.778,391.667,688.889,2.778,N
1512,-0.605,0.025,-0.600,144.444,63.889,380.556,697.222,8.333,N
1513,-0.610,0.030,-0.655,136.111,69.444,361.111,694.444,2.778,N
1514,-0.590,0.070,-0.555,136.111,83.333,397.222,694.444,0.000,N
1515,-0.515,0.105,-0.550,144.444,63.889,380.556,711.111,16.667,N
1516,-0.555,0.035,-0.630,147.222,88.889,405.556,697.222,13.889,N
1517,-0.490,0.210,-0.510,138.889,86.111,402.778,697.222,0.000,N
1518,-0.475,0.165,-0.570,150.000,91.667,405.556,702.778,5.556,N
1519,-0.520,0.130,-0.560,130.556,83.333,391.667,716.667,13.889,N
1520,-0.565,0.090,-0.610,138.889,83.333,391.667,711.111,5.556,N
1521,-0.620,-0.070,-0.725,125.000,72.222,380.556,686.111,25.000,N
1522,-0.670,-0.010,-0.685,133.333,77.778,386.111,705.556,19.444,N
1523,-0.610,0.035,-0.590,136.111,75.000,388.889,705.556,0.000,N
1524,-0.555,0.080,-0.640,141.667,80.556,380.556,708.333,2.778,N
1525,-0.585,-0.020,-0.640,152.778,69.444,386.111,708.333,0.000,N
1526,-0.615,0.030,-0.680,141.667,83.333,380.556,722.222,13.889,N
1527,-0.650,-0.135,-0.715,144.444,55.556,355.556,702.778,19.444,N
1528,-0.655,-0.065,-0.670,136.111,86.111,388.889,697.222,5.556,N
1529,-0.625,-0.060,-0.730,144.444,86.111,397.222,736.111,38.889,N
1530,-0.715,-0.120,-0.765,138.889,63.889,375.000,708.333,27.778,N
1531,-0.805,-0.270,-0.855,138.889,72.222,383.333,708.333,0.000,N
1532,-0.810,-0.130,-0.705,141.667,86.111,402.778,694.444,13.889,N
1533,-0.620,0.030,-0.670,133.333,77.778,388.889,713.889,19.444,N
1534,-0.615,0.060,-0.665,141.667,83.333,394.444,705.556,8.333,N
1535,-0.625,0.020,-0.700,138.889,86.111,388.889,700.000,5.556,N
1536,-0.655,0.005,-0.685,161.111,80.556,388.889,725.000,25.000,N
1537,-0.720,-0.130,-0.835,161.111,72.222,380.556,700.000,25.000,N
1538,-0.760,-0.085,-0.695,138.889,83.333,400.000,683.333,16.667,N
1539,-0.530,0.160,-0.580,155.556,69.444,386.111,716.667,33.333,N
1540,-0.525,0.150,-0.630,136.111,80.556,383.333,711.111,5.556,N
1541,-0.555,0.135,-0.635,136.111,88.889,391.667,711.111,0.000,N
1542,-0.570,0.110,-0.660,130.556,83.333,388.889,680.556,30.556,N
1543,-0.595,0.020,-0.730,138.889,86.111,394.444,716.667,36.111,N
1544,-0.670,-0.010,-0.725,141.667,83.333,380.556,694.444,22.222,N
1545,-0.685,-0.005,-0.765,136.111,72.222,383.333,694.444,0.000,N
1546,-0.660,0.075,-0.580,141.667,86.111,402.778,711.111,16.667,N
1547,-0.510,0.160,-0.640,161.111,75.000,386.111,716.667,5.556,N
1548,-0.595,0.045,-0.655,133.333,69.444,383.333,700.000,16.667,N
1549,-0.705,0.040,-0.585,138.889,69.444,386.111,697.222,2.778,N
1550,-0.465,0.200,-0.460,147.222,66.667,377.778,736.111,38.889,N
1551,-0.410,0.265,-0.505,138.889,88.889,400.000,711.111,25.000,N
1552,-0.455,0.120,-0.625,147.222,63.889,383.333,713.889,2.778,N
1553,-0.570,0.020,-0.710,141.667,80.556,380.556,725.000,11.111,N
1554,-0.700,-0.120,-0.740,138.889,63.889,380.556,713.889,11.111,N
1555,-0.740,-0.150,-0.745,127.778,72.222,380.556,708.333,5.556,N
1556,-0.700,-0.120,-0.780,144.444,83.333,402.778,716.667,8.333,N
1557,-0.690,-0.005,-0.635,141.667,86.111,383.333,727.778,11.111,N
1558,-0.600,0.045,-0.635,138.889,88.889,400.000,702.778,25.000,N
1559,-0.605,-0.015,-0.680,138.889,88.889,386.111,700.000,2.778,N
1560,-0.690,-0.040,-0.735,138.889,77.778,386.111,727.778,27.778,N
1561,-0.605,0.060,-0.640,138.889,88.889,405.556,705.556,22.222,N
1562,-0.630,-0.045,-0.680,147.222,77.778,397.222,711.111,5.556,N
1563,-0.610,-0.015,-0.745,141.667,72.222,386.111,688.889,22.222,N
1564,-0.625,-0.040,-0.635,125.000,63.889,372.222,711.111,22.222,N
1565,-0.540,0.185,-0.505,147.222,88.889,402.778,697.222,13.889,N
1566,-0.480,0.170,-0.595,136.111,80.556,386.111,708.333,11.111,N
1567,-0.515,0.110,-0.735,122.222,83.333,383.333,725.000,16.667,N
1568,-0.680,-0.080,-0.635,172.222,58.333,369.444,708.333,16.667,N
1569,-0.690,-0.075,-0.805,147.222,66.667,386.111,694.444,13.889,N
1570,-0.720,-0.070,-0.775,155.556,66.667,372.222,716.667,22.222,N
1571,-0.750,-0.175,-0.750,166.667,88.889,391.667,716.667,0.000,N
1572,-0.770,-0.215,-0.745,147.222,72.222,383.333,708.333,8.333,N
1573,-0.685,-0.095,-0.610,133.333,83.333,394.444,686.111,22.222,N
1574,-0.545,0.085,-0.525,144.444,77.778,386.111,722.222,36.111,N
1575,-0.515,0.045,-0.550,152.778,69.444,383.333,691.667,30.556,N
1576,-0.560,-0.035,-0.585,152.778,63.889,377.778,697.222,5.556,N
1577,-0.560,0.030,-0.580,144.444,63.889,380.556,702.778,5.556,N
1578,-0.530,0.090,-0.540,136.111,80.556,391.667,713.889,11.111,N
1579,-0.545,0.045,-0.585,150.000,75.000,383.333,694.444,19.444,N
1580,-0.590,-0.015,-0.605,125.000,63.889,377.778,691.667,2.778,N
1581,-0.585,-0.050,-0.655,155.556,69.444,383.333,738.889,47.222,N
1582,-0.675,-0.180,-0.710,152.778,63.889,377.778,694.444,44.444,N
1583,-0.720,-0.135,-0.740,127.778,75.000,386.111,708.333,13.889,N
1584,-0.660,-0.050,-0.695,141.667,80.556,383.333,713.889,5.556,N
1585,-0.680,-0.095,-0.710,144.444,61.111,380.556,711.111,2.778,N
1586,-0.680,-0.110,-0.715,130.556,80.556,391.667,711.111,0.000,N
1587,-0.685,-0.115,-0.725,133.333,77.778,388.889,736.111,25.000,N
1588,-0.685,-0.135,-0.705,144.444,61.111,358.333,747.222,11.111,N
1589,-0.725,-0.225,-0.755,141.667,72.222,383.333,713.889,33.333,N
1590,-0.740,-0.290,-0.760,152.778,66.667,386.111,727.778,13.889,N
1591,-0.745,-0.290,-0.800,141.667,86.111,386.111,758.333,30.556,N
1592,-0.780,-0.180,-0.770,122.222,75.000,388.889,719.444,38.889,N
1593,-0.750,-0.095,-0.735,127.778,86.111,388.889,736.111,16.667,N
1594,-0.725,-0.170,-0.765,141.667,69.444,386.111,722.222,13.889,N
1595,-0.735,-0.125,-0.695,163.889,77.778,380.556,711.111,11.111,N
1596,-0.675,-0.085,-0.640,144.444,66.667,377.778,722.222,11.111,N
1597,-0.630,-0.075,-0.645,141.667,77.778,397.222,727.778,5.556,N
1598,-0.630,-0.125,-0.685,152.778,86.111,394.444,738.889,11.111,N
1599,-0.690,-0.160,-0.695,141.667,80.556,386.111,719.444,19.444,N
1600,-0.660,-0.125,-0.640,133.333,72.222,383.333,725.000,5.556,N
1601,-0.615,-0.025,-0.640,150.000,83.333,400.000,752.778,27.778,N
1602,-0.625,-0.025,-0.660,166.667,83.333,397.222,722.222,30.556,N
1603,-0.605,-0.045,-0.640,130.556,72.222,377.778,727.778,5.556,N
1604,-0.600,-0.055,-0.670,152.778,75.000,386.111,727.778,0.000,N
1605,-0.655,-0.105,-0.690,138.889,88.889,402.778,725.000,2.778,N
1606,-0.635,0.010,-0.620,138.889,77.778,391.667,713.889,11.111,N
1607,-0.585,-0.005,-0.695,144.444,83.333,394.444,744.444,30.556,N
1608,-0.645,-0.050,-0.710,136.111,75.000,377.778,727.778,16.667,N
1609,-0.680,-0.120,-0.700,144.444,63.889,380.556,716.667,11.111,N
1610,-0.670,-0.080,-0.690,138.889,83.333,388.889,722.222,5.556,N
1611,-0.640,-0.125,-0.690,141.667,86.111,383.333,738.889,16.667,N
1612,-0.680,-0.110,-0.705,130.556,80.556,394.444,719.444,19.444,N
1613,-0.685,-0.070,-0.640,133.333,86.111,405.556,719.444,0.000,N
1614,-0.595,0.000,-0.650,147.222,63.889,369.444,738.889,19.444,N
1615,-0.620,-0.010,-0.680,133.333,75.000,380.556,711.111,27.778,N
1616,-0.690,-0.135,-0.750,147.222,63.889,380.556,722.222,11.111,N
1617,-0.745,-0.175,-0.740,147.222,69.444,386.111,738.889,16.667,N
1618,-0.740,-0.220,-0.775,152.778,72.222,377.778,736.111,2.778,N
1619,-0.780,-0.215,-0.780,161.111,69.444,380.556,733.333,2.778,N
1620,-0.785,-0.245,-0.820,155.556,69.444,383.333,727.778,5.556,N
1621,-0.820,-0.305,-0.845,141.667,77.778,380.556,752.778,25.000,N
1622,-0.830,-0.170,-0.765,147.222,72.222,383.333,719.444,33.333,N
1623,-0.720,-0.110,-0.715,144.444,66.667,386.111,727.778,8.333,N
1624,-0.690,-0.090,-0.720,144.444,88.889,391.667,719.444,8.333,N
1625,-0.715,-0.145,-0.730,133.333,88.889,402.778,708.333,11.111,N
1626,-0.690,-0.120,-0.685,133.333,72.222,383.333,716.667,8.333,N
1627,-0.690,-0.125,-0.655,144.444,66.667,383.333,727.778,11.111,N
1628,-0.640,-0.080,-0.615,147.222,88.889,383.333,725.000,2.778,N
1629,-0.625,-0.080,-0.655,155.556,66.667,377.778,711.111,13.889,N
1630,-0.655,-0.115,-0.705,141.667,77.778,394.444,716.667,5.556,N
1631,-0.615,0.025,-0.605,141.667,80.556,380.556,730.556,13.889,N
1632,-0.590,-0.040,-0.630,147.222,63.889,383.333,716.667,13.889,N
1633,-0.610,-0.015,-0.680,141.667,83.333,380.556,716.667,0.000,N
1634,-0.645,-0.095,-0.690,144.444,88.889,405.556,708.333,8.333,N
1635,-0.675,-0.105,-0.675,130.556,72.222,383.333,716.667,8.333,N
1636,-0.660,-0.125,-0.670,147.222,61.111,380.556,725.000,8.333,N
1637,-0.650,-0.115,-0.665,152.778,69.444,386.111,733.333,8.333,N
1638,-0.680,-0.190,-0.745,138.889,61.111,377.778,733.333,0.000,N
1639,-0.760,-0.155,-0.770,136.111,83.333,386.111,716.667,16.667,N
1640,-0.695,-0.125,-0.695,130.556,69.444,383.333,722.222,5.556,N
1641,-0.675,-0.080,-0.690,155.556,77.778,394.444,738.889,16.667,N
1642,-0.655,-0.055,-0.665,138.889,86.111,405.556,719.444,19.444,N
1643,-0.635,-0.040,-0.635,138.889,72.222,380.556,719.444,0.000,N
1644,-0.640,-0.060,-0.675,133.333,86.111,388.889,702.778,16.667,N
1645,-0.670,-0.135,-0.710,138.889,80.556,391.667,708.333,5.556,N
1646,-0.690,-0.135,-0.705,133.333,83.333,397.222,713.889,5.556,N
1647,-0.720,-0.180,-0.740,136.111,80.556,380.556,713.889,0.000,N
1648,-0.730,-0.115,-0.710,136.111,69.444,377.778,727.778,13.889,N
1649,-0.660,-0.080,-0.685,141.667,86.111,386.111,713.889,13.889,N
1650,-0.640,-0.080,-0.665,130.556,77.778,394.444,711.111,2.778,N
1651,-0.655,-0.075,-0.720,138.889,86.111,400.000,722.222,11.111,N
1652,-0.670,-0.110,-0.725,138.889,86.111,402.778,730.556,8.333,N
1653,-0.705,-0.130,-0.770,138.889,88.889,388.889,736.111,5.556,N
1654,-0.775,-0.200,-0.795,152.778,61.111,369.444,713.889,22.222,N
1655,-0.775,-0.220,-0.785,152.778,63.889,375.000,730.556,16.667,N
1656,-0.765,-0.205,-0.780,152.778,55.556,358.333,722.222,8.333,N
1657,-0.695,-0.120,-0.705,130.556,83.333,386.111,730.556,8.333,N
1658,-0.650,-0.070,-0.710,138.889,83.333,397.222,730.556,0.000,N
1659,-0.740,-0.105,-0.715,133.333,75.000,383.333,722.222,8.333,N
1660,-0.680,-0.070,-0.685,136.111,88.889,388.889,716.667,5.556,N
1661,-0.690,-0.110,-0.650,144.444,63.889,377.778,713.889,2.778,N
1662,-0.550,-0.030,-0.645,130.556,55.556,358.333,716.667,2.778,N
1663,-0.705,-0.070,-0.720,152.778,80.556,397.222,719.444,2.778,N
1664,-0.725,-0.100,-0.740,133.333,77.778,383.333,705.556,13.889,N
1665,-0.700,-0.120,-0.740,150.000,80.556,388.889,722.222,16.667,N
1666,-0.720,-0.095,-0.750,125.000,72.222,383.333,716.667,5.556,N
1667,-0.740,-0.255,-0.835,180.556,69.444,388.889,722.222,5.556,N
1668,-0.820,-0.150,-0.800,138.889,83.333,397.222,725.000,2.778,N
1669,-0.725,-0.100,-0.760,141.667,61.111,380.556,738.889,13.889,N
1670,-0.730,-0.085,-0.765,136.111,88.889,402.778,722.222,16.667,N
1671,-0.735,-0.105,-0.765,141.667,88.889,405.556,711.111,11.111,N
1672,-0.725,-0.120,-0.775,147.222,66.667,380.556,738.889,27.778,N
1673,-0.745,-0.160,-0.790,138.889,88.889,394.444,719.444,19.444,N
1674,-0.765,-0.110,-0.715,152.778,86.111,400.000,716.667,2.778,N
1675,-0.645,0.010,-0.635,138.889,83.333,388.889,716.667,0.000,N
1676,-0.605,-0.030,-0.630,150.000,66.667,386.111,716.667,0.000,N
1677,-0.595,0.000,-0.620,133.333,80.556,386.111,716.667,0.000,N
1678,-0.595,-0.005,-0.605,150.000,86.111,402.778,719.444,2.778,N
1679,-0.585,0.035,-0.585,136.111,72.222,380.556,741.667,22.222,N
1680,-0.595,-0.015,-0.625,138.889,80.556,400.000,716.667,25.000,N
1681,-0.615,0.000,-0.630,138.889,77.778,383.333,722.222,5.556,N
1682,-0.595,0.035,-0.615,141.667,75.000,383.333,738.889,16.667,N
1683,-0.615,0.005,-0.635,141.667,77.778,388.889,725.000,13.889,N
1684,-0.630,-0.050,-0.650,127.778,77.778,388.889,727.778,2.778,N
1685,-0.615,-0.020,-0.605,144.444,86.111,402.778,722.222,5.556,N
1686,-0.580,-0.010,-0.595,144.444,86.111,402.778,736.111,13.889,N
1687,-0.610,-0.045,-0.630,133.333,86.111,391.667,722.222,13.889,N
1688,-0.655,-0.095,-0.670,133.333,77.778,386.111,730.556,8.333,N
1689,-0.670,-0.085,-0.710,141.667,86.111,380.556,741.667,11.111,N
1690,-0.680,0.000,-0.625,138.889,83.333,388.889,725.000,16.667,N
1691,-0.625,-0.035,-0.640,133.333,72.222,388.889,722.222,2.778,N
1692,-0.645,-0.020,-0.670,155.556,75.000,383.333,736.111,13.889,N
1693,-0.640,-0.045,-0.645,144.444,88.889,405.556,725.000,11.111,N
1694,-0.635,-0.040,-0.620,133.333,75.000,377.778,719.444,5.556,N
1695,-0.620,-0.080,-0.640,150.000,63.889,380.556,716.667,2.778,N
1696,-0.610,-0.075,-0.620,138.889,86.111,386.111,727.778,11.111,N
1697,-0.625,-0.070,-0.625,144.444,77.778,377.778,727.778,0.000,N
1698,-0.630,-0.035,-0.640,136.111,83.333,397.222,730.556,2.778,N
1699,-0.650,-0.120,-0.675,147.222,88.889,405.556,747.222,16.667,N
1700,-0.700,-0.115,-0.670,141.667,83.333,386.111,725.000,22.222,N
1701,-0.655,-0.065,-0.605,122.222,72.222,388.889,716.667,8.333,N
1702,-0.605,0.030,-0.640,161.111,75.000,388.889,747.222,30.556,N
1703,-0.600,0.000,-0.625,133.333,83.333,386.111,730.556,16.667,N
1704,-0.600,0.010,-0.610,138.889,69.444,383.333,727.778,2.778,N
1705,-0.615,-0.060,-0.640,147.222,72.222,386.111,719.444,8.333,N
1706,-0.650,-0.095,-0.665,138.889,75.000,377.778,727.778,8.333,N
1707,-0.665,-0.060,-0.640,125.000,72.222,386.111,719.444,8.333,N
1708,-0.605,0.045,-0.560,125.000,75.000,388.889,733.333,13.889,N
1709,-0.555,0.055,-0.545,150.000,69.444,380.556,733.333,0.000,N
1710,-0.545,0.025,-0.595,144.444,88.889,380.556,719.444,13.889,N
1711,-0.600,-0.050,-0.590,138.889,63.889,383.333,708.333,11.111,N
1712,-0.595,-0.015,-0.610,158.333,77.778,380.556,747.222,38.889,N
1713,-0.595,-0.005,-0.590,136.111,75.000,388.889,730.556,16.667,N
1714,-0.570,0.000,-0.570,133.333,69.444,377.778,738.889,8.333,N
1715,-0.585,-0.010,-0.575,147.222,77.778,386.111,727.778,11.111,N
1716,-0.565,0.035,-0.590,136.111,77.778,383.333,741.667,13.889,N
1717,-0.595,-0.070,-0.625,136.111,83.333,383.333,736.111,5.556,N
1718,-0.635,-0.110,-0.705,138.889,83.333,402.778,738.889,2.778,N
1719,-0.685,-0.070,-0.670,130.556,72.222,380.556,755.556,16.667,N
1720,-0.630,-0.005,-0.635,152.778,75.000,380.556,733.333,22.222,N
1721,-0.640,-0.040,-0.665,150.000,86.111,402.778,719.444,13.889,N
1722,-0.630,-0.030,-0.655,152.778,66.667,386.111,744.444,25.000,N
1723,-0.660,-0.085,-0.655,152.778,72.222,386.111,730.556,13.889,N
1724,-0.660,-0.120,-0.655,147.222,63.889,377.778,727.778,2.778,N
1725,-0.635,-0.120,-0.655,147.222,88.889,402.778,730.556,2.778,N
1726,-0.620,-0.175,-0.675,141.667,86.111,386.111,730.556,0.000,N
1727,-0.680,-0.165,-0.680,127.778,66.667,377.778,716.667,13.889,N
1728,-0.670,-0.045,-0.610,147.222,69.444,386.111,725.000,8.333,N
1729,-0.580,0.035,-0.600,127.778,72.222,383.333,744.444,19.444,N
1730,-0.600,0.015,-0.645,144.444,66.667,375.000,719.444,25.000,N
1731,-0.600,0.000,-0.610,152.778,69.444,386.111,708.333,11.111,N
1732,-0.600,0.015,-0.625,172.222,80.556,380.556,750.000,41.667,N
1733,-0.600,-0.010,-0.630,155.556,75.000,386.111,719.444,30.556,N
1734,-0.645,-0.135,-0.660,152.778,80.556,402.778,727.778,8.333,N
1735,-0.635,-0.100,-0.680,138.889,83.333,388.889,722.222,5.556,N
1736,-0.610,-0.060,-0.630,133.333,80.556,394.444,727.778,5.556,N
1737,-0.615,-0.040,-0.615,144.444,69.444,383.333,722.222,5.556,N
1738,-0.595,-0.015,-0.645,136.111,80.556,391.667,716.667,5.556,N
1739,-0.580,-0.010,-0.575,147.222,88.889,383.333,741.667,25.000,N
1740,-0.545,0.025,-0.580,133.333,69.444,383.333,711.111,30.556,N
1741,-0.605,-0.080,-0.665,141.667,80.556,397.222,719.444,8.333,N
1742,-0.635,-0.005,-0.680,138.889,86.111,388.889,730.556,11.111,N
1743,-0.600,-0.025,-0.610,138.889,77.778,386.111,730.556,0.000,N
1744,-0.585,-0.010,-0.635,147.222,88.889,405.556,713.889,16.667,N
1745,-0.620,-0.045,-0.660,150.000,72.222,388.889,711.111,2.778,N
1746,-0.665,-0.085,-0.670,127.778,69.444,380.556,733.333,22.222,N
1747,-0.665,-0.125,-0.675,144.444,80.556,394.444,719.444,13.889,N
1748,-0.645,-0.120,-0.680,144.444,86.111,405.556,736.111,16.667,N
1749,-0.685,-0.170,-0.690,147.222,77.778,380.556,741.667,5.556,N
1750,-0.700,-0.100,-0.700,141.667,77.778,377.778,722.222,19.444,N
1751,-0.630,0.010,-0.660,130.556,80.556,386.111,722.222,0.000,N
1752,-0.640,-0.060,-0.675,144.444,86.111,400.000,747.222,25.000,N
1753,-0.655,-0.080,-0.690,138.889,86.111,391.667,727.778,19.444,N
1754,-0.675,-0.080,-0.675,133.333,77.778,380.556,725.000,2.778,N
1755,-0.670,-0.145,-0.725,141.667,83.333,400.000,711.111,13.889,N
1756,-0.710,-0.140,-0.715,133.333,72.222,380.556,725.000,13.889,N
1757,-0.695,-0.175,-0.705,147.222,58.333,377.778,716.667,8.333,N
1758,-0.675,-0.155,-0.695,138.889,83.333,386.111,722.222,5.556,N
1759,-0.665,-0.125,-0.660,144.444,83.333,383.333,733.333,11.111,N
1760,-0.670,-0.105,-0.705,141.667,88.889,383.333,708.333,25.000,N
1761,-0.630,-0.020,-0.630,147.222,61.111,377.778,705.556,2.778,N
1762,-0.615,-0.050,-0.660,150.000,75.000,391.667,733.333,27.778,N
1763,-0.645,-0.045,-0.675,130.556,75.000,386.111,713.889,19.444,N
1764,-0.645,-0.080,-0.655,147.222,83.333,402.778,722.222,8.333,N
1765,-0.655,-0.130,-0.650,150.000,72.222,383.333,705.556,16.667,N
1766,-0.650,-0.150,-0.670,144.444,75.000,386.111,727.778,22.222,N
1767,-0.665,-0.150,-0.685,136.111,77.778,380.556,719.444,8.333,N
1768,-0.700,-0.155,-0.665,130.556,72.222,388.889,725.000,5.556,N
1769,-0.650,-0.080,-0.655,138.889,86.111,386.111,750.000,25.000,N
1770,-0.655,-0.120,-0.670,152.778,66.667,380.556,711.111,38.889,N
1771,-0.675,-0.120,-0.700,136.111,80.556,386.111,716.667,5.556,N
1772,-0.710,-0.125,-0.740,172.222,83.333,400.000,733.333,16.667,N
1773,-0.730,-0.170,-0.750,138.889,83.333,386.111,730.556,2.778,N
1774,-0.755,-0.185,-0.765,147.222,69.444,380.556,725.000,5.556,N
1775,-0.765,-0.230,-0.755,163.889,80.556,391.667,708.333,16.667,N
1776,-0.710,-0.170,-0.755,141.667,88.889,383.333,741.667,33.333,N
1777,-0.755,-0.215,-0.770,150.000,63.889,377.778,716.667,25.000,N
1778,-0.740,-0.160,-0.720,147.222,77.778,391.667,733.333,16.667,N
1779,-0.720,-0.140,-0.745,144.444,83.333,388.889,747.222,13.889,N
1780,-0.670,-0.150,-0.720,144.444,80.556,383.333,733.333,13.889,N
1781,-0.685,-0.130,-0.720,144.444,77.778,380.556,733.333,0.000,N
1782,-0.690,-0.195,-0.785,155.556,77.778,391.667,752.778,19.444,N
1783,-0.760,-0.120,-0.760,169.444,72.222,380.556,744.444,8.333,N
1784,-0.690,-0.125,-0.735,147.222,88.889,383.333,747.222,2.778,N
1785,-0.695,-0.090,-0.750,147.222,86.111,402.778,727.778,19.444,N
1786,-0.690,-0.160,-0.695,147.222,77.778,394.444,744.444,16.667,N
1787,-0.685,-0.145,-0.705,141.667,80.556,383.333,722.222,22.222,N
1788,-0.685,-0.085,-0.695,150.000,72.222,386.111,722.222,0.000,N
1789,-0.650,-0.015,-0.595,150.000,77.778,388.889,733.333,11.111,N
1790,-0.545,0.095,-0.585,141.667,80.556,397.222,713.889,19.444,N
1791,-0.550,0.040,-0.570,138.889,69.444,380.556,716.667,2.778,N
1792,-0.535,0.015,-0.635,147.222,88.889,402.778,722.222,5.556,N
1793,-0.620,-0.050,-0.640,138.889,77.778,380.556,725.000,2.778,N
1794,-0.625,-0.055,-0.630,150.000,69.444,386.111,713.889,11.111,N
1795,-0.595,0.040,-0.560,150.000,75.000,388.889,705.556,8.333,N
1796,-0.535,0.055,-0.565,138.889,69.444,388.889,727.778,22.222,N
1797,-0.555,0.040,-0.565,147.222,72.222,383.333,711.111,16.667,N
1798,-0.540,-0.040,-0.580,150.000,61.111,377.778,725.000,13.889,N
1799,-0.575,-0.095,-0.600,152.778,72.222,388.889,736.111,11.111,N
1800,-0.610,-0.085,-0.670,141.667,88.889,380.556,722.222,13.889,N
1801,-0.670,-0.120,-0.685,144.444,75.000,386.111,722.222,0.000,N
1802,-0.675,-0.045,-0.670,147.222,69.444,383.333,725.000,2.778,N
1803,-0.650,-0.010,-0.640,130.556,69.444,380.556,738.889,13.889,N
1804,-0.620,-0.035,-0.660,147.222,61.111,377.778,722.222,16.667,N
1805,-0.660,-0.075,-0.690,150.000,61.111,372.222,702.778,19.444,N
1806,-0.680,-0.135,-0.700,147.222,63.889,361.111,730.556,27.778,N
1807,-0.695,-0.115,-0.665,138.889,77.778,391.667,711.111,19.444,N
1808,-0.675,-0.155,-0.670,147.222,58.333,377.778,725.000,13.889,N
1809,-0.690,-0.155,-0.710,141.667,91.667,400.000,725.000,0.000,N
1810,-0.715,-0.115,-0.685,141.667,83.333,400.000,719.444,5.556,N
1811,-0.650,-0.055,-0.645,144.444,88.889,383.333,716.667,2.778,N
1812,-0.630,-0.035,-0.665,144.444,75.000,386.111,713.889,2.778,N
1813,-0.650,-0.040,-0.650,136.111,77.778,380.556,741.667,27.778,N
1814,-0.645,-0.080,-0.685,138.889,80.556,397.222,708.333,33.333,N
1815,-0.655,-0.080,-0.625,127.778,69.444,380.556,719.444,11.111,N
1816,-0.615,-0.075,-0.615,136.111,77.778,386.111,708.333,11.111,N
1817,-0.610,-0.055,-0.605,144.444,66.667,377.778,716.667,8.333,N
1818,-0.600,-0.040,-0.635,138.889,80.556,391.667,719.444,2.778,N
1819,-0.660,-0.115,-0.680,150.000,69.444,380.556,725.000,5.556,N
1820,-0.660,-0.050,-0.605,144.444,69.444,386.111,725.000,0.000,N
1821,-0.590,0.030,-0.600,161.111,72.222,380.556,711.111,13.889,N
1822,-0.585,-0.005,-0.620,133.333,88.889,405.556,711.111,0.000,N
1823,-0.595,-0.065,-0.600,141.667,77.778,388.889,733.333,22.222,N
1824,-0.605,-0.045,-0.595,141.667,86.111,397.222,716.667,16.667,N
1825,-0.600,-0.060,-0.610,141.667,80.556,375.000,722.222,5.556,N
1826,-0.625,-0.085,-0.645,141.667,86.111,402.778,705.556,16.667,N
1827,-0.650,-0.095,-0.655,133.333,72.222,383.333,713.889,8.333,N
1828,-0.680,-0.115,-0.620,141.667,86.111,402.778,722.222,8.333,N
1829,-0.560,0.035,-0.585,136.111,83.333,388.889,719.444,2.778,N
1830,-0.535,0.040,-0.575,172.222,86.111,380.556,736.111,16.667,N
1831,-0.565,0.000,-0.580,152.778,86.111,405.556,713.889,22.222,N
1832,-0.585,-0.100,-0.640,138.889,77.778,380.556,719.444,5.556,N
1833,-0.635,-0.090,-0.655,138.889,83.333,391.667,730.556,11.111,N
1834,-0.615,-0.115,-0.630,136.111,77.778,397.222,730.556,0.000,N
1835,-0.605,-0.055,-0.605,141.667,86.111,383.333,744.444,13.889,N
1836,-0.585,-0.070,-0.610,144.444,88.889,405.556,705.556,38.889,N
1837,-0.610,-0.065,-0.620,144.444,66.667,383.333,736.111,30.556,N
1838,-0.625,-0.115,-0.650,136.111,77.778,383.333,722.222,13.889,N
1839,-0.655,-0.175,-0.675,136.111,75.000,380.556,727.778,5.556,N
1840,-0.670,-0.040,-0.675,141.667,83.333,388.889,738.889,11.111,N
1841,-0.630,0.000,-0.565,133.333,75.000,386.111,725.000,13.889,N
1842,-0.540,0.055,-0.550,141.667,88.889,380.556,716.667,8.333,N
1843,-0.540,0.070,-0.560,158.333,75.000,391.667,719.444,2.778,N
1844,-0.555,-0.010,-0.595,144.444,69.444,386.111,725.000,5.556,N
1845,-0.595,-0.030,-0.625,141.667,88.889,394.444,725.000,0.000,N
1846,-0.610,0.025,-0.605,147.222,86.111,400.000,702.778,22.222,N
1847,-0.535,0.095,-0.525,138.889,80.556,388.889,727.778,25.000,N
1848,-0.490,0.145,-0.490,155.556,72.222,383.333,722.222,5.556,N
1849,-0.475,0.115,-0.515,144.444,88.889,405.556,719.444,2.778,N
1850,-0.495,0.090,-0.510,155.556,69.444,388.889,744.444,25.000,N
1851,-0.505,0.040,-0.530,141.667,72.222,386.111,730.556,13.889,N
1852,-0.535,-0.010,-0.560,158.333,66.667,380.556,733.333,2.778,N
1853,-0.555,0.020,-0.585,161.111,72.222,388.889,738.889,5.556,N
1854,-0.510,0.090,-0.550,138.889,80.556,391.667,744.444,5.556,N
1855,-0.515,0.095,-0.555,138.889,88.889,405.556,741.667,2.778,N
1856,-0.545,0.045,-0.570,150.000,75.000,386.111,713.889,27.778,N
