id,Pamp,Ramp,Tamp,PR,QRS,QT,RRI,dRRI,label
1,-0.290,1.870,0.600,136.111,41.667,350.000,1000.000,63.889,N
2,-0.625,1.800,0.540,119.444,44.444,322.222,1050.000,50.000,N
3,-0.440,2.035,0.760,141.667,50.000,377.778,1083.333,33.333,N
4,-0.280,2.075,0.895,147.222,41.667,363.889,1158.333,75.000,N
5,-0.170,2.150,0.935,136.111,44.444,327.778,1002.778,155.556,N
6,-0.360,2.010,0.650,133.333,44.444,355.556,1052.778,50.000,N
7,-0.390,2.055,0.810,116.667,44.444,358.333,1097.222,44.444,N
8,-0.210,2.075,0.925,127.778,44.444,366.667,1027.778,69.444,N
9,-0.210,2.020,0.860,141.667,47.222,369.444,930.556,97.222,N
10,-0.250,2.020,0.850,141.667,41.667,363.889,966.667,36.111,N
11,-0.240,2.140,0.850,133.333,38.889,358.333,1072.222,105.556,N
12,-0.280,2.025,0.810,138.889,41.667,338.889,1022.222,50.000,N
13,-0.270,2.035,0.790,141.667,41.667,341.667,891.667,130.556,N
14,-0.295,2.010,0.765,113.889,41.667,361.111,1052.778,161.111,N
15,-0.335,2.100,0.770,130.556,47.222,375.000,1200.000,147.222,N
16,-0.300,1.945,0.805,122.222,44.444,369.444,1091.667,108.333,N
17,-0.275,1.965,0.680,133.333,44.444,361.111,975.000,116.667,N
18,-0.330,2.045,0.870,47.222,44.444,347.222,1113.889,138.889,N
19,-0.190,2.135,0.930,122.222,41.667,319.444,1075.000,38.889,N
20,-0.010,2.155,1.165,133.333,41.667,361.111,927.778,147.222,N
21,1.185,2.100,0.815,183.333,100.000,361.111,536.111,391.667,a
22,-0.195,1.845,0.455,119.444,44.444,372.222,1119.444,583.333,N
23,-0.580,1.720,0.405,130.556,41.667,363.889,1125.000,5.556,N
24,-0.500,1.720,0.545,127.778,41.667,347.222,1047.222,77.778,N
25,-0.420,1.905,0.670,133.333,41.667,358.333,1022.222,25.000,N
26,-0.350,1.995,0.710,138.889,47.222,363.889,1055.556,33.333,N
27,-0.370,1.985,0.700,133.333,41.667,372.222,1144.444,88.889,N
28,0.065,2.335,1.255,44.444,41.667,363.889,1097.222,47.222,N
29,0.150,2.160,0.980,141.667,47.222,369.444,994.444,102.778,N
30,-0.310,1.925,0.625,138.889,41.667,350.000,1047.222,52.778,N
31,-0.470,1.915,0.600,133.333,41.667,313.889,1044.444,2.778,N
32,-0.205,2.045,0.950,47.222,44.444,372.222,1050.000,5.556,N
33,-0.040,2.185,0.935,133.333,41.667,355.556,1016.667,33.333,N
34,-0.225,1.975,0.700,141.667,41.667,344.444,1027.778,11.111,N
35,-0.205,2.035,0.965,44.444,44.444,363.889,1033.333,5.556,N
36,-0.125,2.020,0.770,122.222,41.667,347.222,1066.667,33.333,N
37,-0.335,1.780,0.615,122.222,33.333,297.222,927.778,138.889,N
38,-0.490,1.830,0.555,133.333,44.444,372.222,977.778,50.000,N
39,-0.205,2.155,0.990,38.889,44.444,358.333,1138.889,161.111,N
40,-0.025,2.010,0.850,125.000,38.889,325.000,1038.889,100.000,N
41,-0.395,1.715,0.510,141.667,41.667,350.000,913.889,125.000,N
42,-0.545,1.705,0.530,136.111,44.444,355.556,994.444,80.556,N
43,-0.400,1.920,0.690,105.556,38.889,336.111,1052.778,58.333,N
44,-0.240,1.980,0.825,136.111,44.444,372.222,1080.556,27.778,N
45,-0.190,2.020,0.840,144.444,44.444,366.667,991.667,88.889,N
46,-0.185,2.190,0.860,130.556,38.889,336.111,1019.444,27.778,N
47,-0.170,2.145,0.885,122.222,44.444,355.556,1055.556,36.111,N
48,-0.170,2.125,0.855,136.111,47.222,341.667,1052.778,2.778,N
49,-0.235,1.935,0.750,133.333,44.444,358.333,944.444,108.333,N
50,-0.330,1.905,0.740,141.667,41.667,361.111,1108.333,163.889,N
51,-0.245,2.115,0.880,133.333,44.444,361.111,1138.889,30.556,N
52,-0.115,2.050,0.980,133.333,44.444,369.444,1086.111,52.778,N
53,-0.100,2.185,0.965,136.111,41.667,355.556,980.556,105.556,N
54,-0.115,2.130,0.970,133.333,44.444,341.667,1000.000,19.444,N
55,-0.120,2.195,0.960,119.444,44.444,366.667,1005.556,5.556,N
56,-0.135,2.090,0.920,138.889,44.444,375.000,1066.667,61.111,N
57,-0.225,1.935,0.780,141.667,41.667,363.889,1022.222,44.444,N
58,-0.390,1.845,0.690,119.444,44.444,352.778,994.444,27.778,N
59,-0.315,1.720,0.755,125.000,44.444,350.000,1122.222,127.778,N
60,-0.060,1.785,1.010,44.444,41.667,311.111,988.889,133.333,N
61,-0.035,1.755,0.835,133.333,44.444,372.222,1019.444,30.556,N
62,-0.320,1.880,0.720,138.889,47.222,375.000,1136.111,116.667,N
63,-0.325,1.880,0.805,133.333,47.222,344.444,1130.556,5.556,N
64,-0.235,1.945,0.805,141.667,44.444,350.000,975.000,155.556,N
65,-0.240,2.015,0.825,138.889,44.444,355.556,947.222,27.778,N
66,-0.275,2.055,0.805,116.667,36.111,327.778,1063.889,116.667,N
67,-0.175,2.045,0.920,130.556,41.667,361.111,1058.333,5.556,N
68,-0.160,2.015,0.850,141.667,47.222,369.444,994.444,63.889,N
69,-0.290,2.060,1.125,136.111,41.667,352.778,1063.889,69.444,N
70,0.520,2.275,1.395,122.222,47.222,344.444,1083.333,19.444,N
71,0.015,1.725,0.745,127.778,38.889,330.556,1019.444,63.889,N
72,-0.500,1.455,0.405,127.778,44.444,363.889,902.778,116.667,N
73,-0.805,1.330,0.230,141.667,47.222,369.444,1113.889,211.111,N
74,-0.680,1.660,0.565,119.444,44.444,372.222,1127.778,13.889,N
75,-0.255,1.925,0.870,127.778,44.444,350.000,1075.000,52.778,N
76,-0.245,1.975,0.770,138.889,41.667,350.000,1063.889,11.111,N
77,-0.335,1.870,0.695,125.000,41.667,344.444,1066.667,2.778,N
78,-0.385,1.805,0.680,133.333,41.667,355.556,1025.000,41.667,N
79,0.015,2.195,1.215,47.222,44.444,372.222,1013.889,11.111,N
80,0.240,2.195,1.070,141.667,44.444,369.444,1011.111,2.778,N
81,-0.260,1.785,0.590,136.111,44.444,358.333,991.667,19.444,N
82,-0.550,1.745,0.500,127.778,41.667,333.333,1027.778,36.111,N
83,-0.515,1.795,0.565,127.778,41.667,344.444,983.333,44.444,N
84,-0.355,1.885,0.650,125.000,41.667,361.111,1013.889,30.556,N
85,-0.315,2.060,0.835,44.444,41.667,363.889,1086.111,72.222,N
86,-0.115,2.130,1.020,130.556,44.444,372.222,1072.222,13.889,N
87,-0.020,2.235,0.980,130.556,41.667,358.333,947.222,125.000,N
88,-0.135,2.080,0.845,127.778,41.667,344.444,1013.889,66.667,N
89,-0.270,2.000,0.930,127.778,41.667,297.222,1063.889,50.000,N
90,-0.065,2.130,1.145,138.889,47.222,372.222,1083.333,19.444,N
91,0.270,2.085,1.085,125.000,41.667,361.111,1052.778,30.556,N
92,-0.180,1.670,0.570,127.778,38.889,327.778,1030.556,22.222,N
93,-0.610,1.525,0.365,141.667,50.000,372.222,1100.000,69.444,N
94,-0.680,1.555,0.445,133.333,44.444,352.778,1058.333,41.667,N
95,-0.485,1.655,0.685,108.333,41.667,344.444,922.222,136.111,N
96,-0.300,2.010,0.715,127.778,44.444,358.333,1019.444,97.222,N
97,-0.355,1.900,0.675,136.111,44.444,372.222,1127.778,108.333,N
98,-0.400,1.785,0.600,108.333,44.444,366.667,1086.111,41.667,N
99,-0.480,1.815,0.615,136.111,41.667,344.444,977.778,108.333,N
100,-0.395,1.935,0.740,125.000,44.444,366.667,991.667,13.889,N
101,-0.210,2.135,0.935,138.889,47.222,358.333,994.444,2.778,N
102,-0.020,2.285,1.055,127.778,41.667,361.111,1088.889,94.444,N
103,0.000,2.245,1.100,136.111,41.667,355.556,1011.111,77.778,N
104,0.000,2.335,1.120,136.111,47.222,372.222,1000.000,11.111,N
105,0.320,2.525,1.395,130.556,41.667,347.222,1105.556,105.556,N
106,0.235,2.325,1.155,130.556,41.667,341.667,1041.667,63.889,N
107,0.005,2.155,1.000,144.444,47.222,375.000,936.111,105.556,N
108,0.305,2.435,1.440,130.556,44.444,369.444,1094.444,158.333,N
109,0.240,1.980,0.980,133.333,41.667,352.778,1102.778,8.333,N
110,-0.235,1.605,0.645,125.000,38.889,350.000,988.889,113.889,N
111,-0.425,1.665,0.605,127.778,41.667,358.333,952.778,36.111,N
112,0.095,2.255,1.380,36.111,44.444,338.889,1072.222,119.444,N
113,0.380,2.065,1.135,133.333,41.667,369.444,966.667,105.556,N
114,-0.080,1.865,0.585,147.222,44.444,372.222,1030.556,63.889,N
115,-0.465,1.690,0.455,144.444,44.444,363.889,1013.889,16.667,N
116,-0.570,1.755,0.495,147.222,41.667,344.444,988.889,25.000,N
117,-0.445,1.815,0.705,41.667,38.889,327.778,994.444,5.556,N
118,-0.160,2.090,0.875,138.889,44.444,350.000,911.111,83.333,N
119,-0.245,1.965,0.675,136.111,41.667,358.333,977.778,66.667,N
120,-0.445,1.765,0.565,130.556,41.667,363.889,1111.111,133.333,N
121,-0.335,1.895,0.765,47.222,44.444,366.667,1163.889,52.778,N
122,-0.190,2.000,0.905,138.889,44.444,358.333,1008.333,155.556,N
123,-0.105,2.130,0.945,125.000,38.889,344.444,1025.000,16.667,N
124,-0.040,2.165,0.985,125.000,36.111,305.556,1052.778,27.778,N
125,-0.040,2.085,0.810,127.778,41.667,372.222,1083.333,30.556,N
126,-0.085,2.045,0.915,141.667,47.222,369.444,1027.778,55.556,N
127,-0.125,2.140,0.860,122.222,44.444,338.889,1033.333,5.556,N
128,-0.060,2.150,0.925,125.000,44.444,347.222,1100.000,66.667,N
129,-0.045,2.090,0.870,130.556,41.667,338.889,1058.333,41.667,N
130,-0.155,1.925,0.795,116.667,41.667,361.111,913.889,144.444,N
131,-0.185,1.960,0.810,141.667,47.222,375.000,1044.444,130.556,N
132,0.370,2.345,1.285,50.000,47.222,375.000,1141.667,97.222,N
133,0.135,1.820,0.740,138.889,41.667,352.778,1072.222,69.444,N
134,-0.515,1.400,0.410,133.333,41.667,358.333,975.000,97.222,N
135,-0.320,1.635,0.630,138.889,38.889,333.333,975.000,0.000,N
136,-0.345,1.600,0.485,127.778,38.889,341.667,972.222,2.778,N
137,-0.570,1.395,0.335,125.000,44.444,369.444,1094.444,122.222,N
138,-0.575,1.555,0.455,147.222,44.444,372.222,1008.333,86.111,N
139,-0.360,1.875,0.735,44.444,44.444,347.222,1047.222,38.889,N
140,-0.105,2.055,0.945,36.111,41.667,341.667,1122.222,75.000,N
141,-0.100,2.000,0.860,116.667,41.667,341.667,1080.556,41.667,N
142,-0.115,2.070,0.890,136.111,44.444,372.222,1055.556,25.000,N
143,-0.090,2.050,0.915,136.111,47.222,361.111,1130.556,75.000,N
144,-0.075,1.965,0.915,108.333,38.889,325.000,1122.222,8.333,N
145,-0.070,2.035,0.930,133.333,41.667,361.111,991.667,130.556,N
146,-0.085,1.925,0.855,130.556,41.667,355.556,1050.000,58.333,N
147,-0.160,2.095,0.825,94.444,38.889,358.333,1030.556,19.444,N
148,-0.195,1.905,0.795,138.889,44.444,369.444,1158.333,127.778,N
149,-0.190,1.870,0.815,127.778,47.222,350.000,1055.556,102.778,N
150,-0.230,1.970,0.810,108.333,41.667,372.222,1033.333,22.222,N
151,0.370,2.315,1.400,41.667,44.444,352.778,1047.222,13.889,N
152,0.255,1.840,0.895,138.889,41.667,344.444,1036.111,11.111,N
153,-0.350,1.395,0.400,130.556,41.667,347.222,883.333,152.778,N
154,-0.715,1.365,0.275,136.111,44.444,372.222,1041.667,158.333,N
155,-0.620,1.495,0.375,44.444,41.667,366.667,1141.667,100.000,N
156,-0.475,1.545,0.580,41.667,38.889,344.444,1052.778,88.889,N
157,-0.320,1.285,0.545,136.111,50.000,358.333,958.333,94.444,N
158,-0.410,1.465,0.560,133.333,44.444,355.556,994.444,36.111,N
159,-0.405,1.790,0.620,141.667,44.444,363.889,1008.333,13.889,N
160,-0.350,1.740,0.655,133.333,44.444,358.333,1008.333,0.000,N
161,-0.365,1.830,0.660,138.889,44.444,372.222,919.444,88.889,N
162,-0.385,1.875,0.730,138.889,47.222,355.556,1036.111,116.667,N
163,0.395,2.510,1.555,47.222,38.889,341.667,1041.667,5.556,N
164,0.445,2.150,1.100,136.111,41.667,352.778,1008.333,33.333,N
165,-0.130,1.705,0.620,138.889,41.667,363.889,886.111,122.222,N
166,-0.375,1.845,1.030,38.889,44.444,358.333,1144.444,258.333,N
167,0.290,2.115,1.075,138.889,41.667,352.778,1136.111,8.333,N
168,-0.220,1.675,0.535,136.111,41.667,369.444,1030.556,105.556,N
169,-0.615,1.515,0.350,133.333,41.667,341.667,966.667,63.889,N
170,-0.665,1.625,0.405,127.778,38.889,336.111,991.667,25.000,N
171,-0.500,1.775,0.605,122.222,47.222,372.222,1058.333,66.667,N
172,-0.285,2.005,1.030,125.000,41.667,363.889,1122.222,63.889,N
173,0.075,2.200,1.010,133.333,41.667,338.889,1041.667,80.556,N
174,-0.160,1.860,0.760,119.444,41.667,341.667,1036.111,5.556,N
175,-0.405,1.795,0.565,138.889,47.222,369.444,1072.222,36.111,N
176,-0.545,1.765,0.495,111.111,36.111,338.889,1036.111,36.111,N
177,-0.490,1.690,0.560,138.889,47.222,372.222,927.778,108.333,N
178,-0.465,1.830,0.645,147.222,47.222,358.333,930.556,2.778,N
179,-0.390,1.995,0.705,150.000,47.222,341.667,1033.333,102.778,N
180,-0.360,1.900,0.580,136.111,41.667,341.667,1133.333,100.000,N
181,-0.435,1.655,0.605,125.000,36.111,327.778,872.222,261.111,N
182,-0.425,1.795,0.650,141.667,41.667,325.000,783.333,88.889,N
183,-0.340,2.005,0.820,144.444,47.222,352.778,797.222,13.889,N
184,-0.220,2.030,0.840,161.111,47.222,350.000,936.111,138.889,N
185,-0.160,1.880,0.835,138.889,44.444,347.222,880.556,55.556,N
186,-0.140,2.090,0.840,127.778,33.333,325.000,919.444,38.889,N
187,-0.190,2.105,0.905,136.111,47.222,361.111,1258.333,338.889,N
188,-0.100,2.095,0.920,138.889,41.667,308.333,1252.778,5.556,N
189,-0.085,2.110,0.965,122.222,47.222,372.222,1100.000,152.778,N
190,-0.080,2.190,0.970,136.111,44.444,369.444,1266.667,166.667,N
191,-0.165,2.120,0.840,116.667,41.667,358.333,1177.778,88.889,N
192,-0.340,1.900,0.650,122.222,41.667,338.889,1188.889,11.111,N
193,-0.410,1.830,0.715,130.556,41.667,358.333,1091.667,97.222,N
194,-0.290,2.065,0.875,133.333,41.667,372.222,1072.222,19.444,N
195,-0.245,2.020,0.790,133.333,44.444,372.222,1166.667,94.444,N
196,-0.265,2.070,0.820,119.444,41.667,330.556,1200.000,33.333,N
197,-0.145,2.060,0.970,130.556,41.667,341.667,1080.556,119.444,N
198,-0.055,2.210,1.035,125.000,44.444,363.889,975.000,105.556,N
199,-0.065,2.105,0.935,105.556,47.222,375.000,1030.556,55.556,N
200,-0.100,2.085,0.925,133.333,44.444,372.222,1161.111,130.556,N
201,-0.155,2.095,0.855,127.778,41.667,361.111,1127.778,33.333,N
202,-0.215,1.950,0.765,133.333,44.444,369.444,988.889,138.889,N
203,-0.210,2.090,0.835,130.556,38.889,344.444,1080.556,91.667,N
204,-0.165,2.175,0.875,119.444,41.667,350.000,1055.556,25.000,N
205,-0.155,2.110,0.930,127.778,41.667,372.222,994.444,61.111,N
206,0.230,2.320,1.305,150.000,47.222,372.222,969.444,25.000,N
207,0.220,2.165,0.945,150.000,47.222,358.333,986.111,16.667,N
208,-0.255,1.820,0.550,147.222,41.667,347.222,1027.778,41.667,N
209,-0.515,1.625,0.445,138.889,44.444,366.667,1041.667,13.889,N
210,-0.535,1.595,0.520,136.111,41.667,338.889,1027.778,13.889,N
211,-0.475,1.855,0.600,125.000,41.667,355.556,938.889,88.889,N
212,-0.355,1.895,0.620,138.889,44.444,372.222,1083.333,144.444,N
213,-0.325,1.960,0.770,136.111,47.222,361.111,1144.444,61.111,N
214,0.365,2.470,1.545,44.444,44.444,344.444,1061.111,83.333,N
215,0.500,2.245,1.155,133.333,38.889,330.556,872.222,188.889,N
216,-0.055,1.710,0.580,138.889,38.889,347.222,875.000,2.778,N
217,-0.620,1.460,0.270,150.000,44.444,358.333,988.889,113.889,N
218,-0.710,1.575,0.360,41.667,41.667,363.889,1161.111,172.222,N
219,-0.565,1.690,0.555,44.444,41.667,363.889,1083.333,77.778,N
220,-0.415,1.900,0.655,44.444,44.444,350.000,1050.000,33.333,N
221,-0.330,2.025,0.755,130.556,41.667,341.667,1102.778,52.778,N
222,-0.125,2.205,1.035,44.444,41.667,308.333,1036.111,66.667,N
223,-0.040,2.105,0.875,141.667,47.222,372.222,975.000,61.111,N
224,-0.195,2.090,0.790,141.667,41.667,366.667,1052.778,77.778,N
225,-0.290,2.045,0.780,138.889,44.444,338.889,1044.444,8.333,N
226,-0.245,2.015,0.835,119.444,44.444,338.889,1047.222,2.778,N
227,-0.150,2.060,0.930,119.444,41.667,341.667,950.000,97.222,N
228,-0.100,2.250,1.020,102.778,33.333,316.667,983.333,33.333,N
229,0.250,2.405,1.175,122.222,44.444,372.222,1086.111,102.778,N
230,-0.065,1.940,0.680,144.444,44.444,366.667,1172.222,86.111,N
231,-0.425,1.785,0.545,127.778,36.111,358.333,1000.000,172.222,N
232,-0.510,1.765,0.545,138.889,44.444,338.889,961.111,38.889,N
233,-0.485,1.775,0.545,133.333,41.667,338.889,980.556,19.444,N
234,-0.505,1.725,0.585,102.778,38.889,352.778,900.000,80.556,N
235,-0.415,1.835,0.650,125.000,44.444,369.444,1055.556,155.556,N
236,-0.360,1.865,0.685,41.667,44.444,366.667,1166.667,111.111,N
237,-0.265,1.790,0.770,144.444,44.444,358.333,1155.556,11.111,N
238,-0.185,1.950,0.850,133.333,41.667,333.333,1002.778,152.778,N
239,-0.165,2.030,0.900,125.000,41.667,350.000,1058.333,55.556,N
240,0.265,2.295,1.180,144.444,44.444,372.222,1069.444,11.111,N
241,0.045,1.955,0.870,141.667,44.444,372.222,1111.111,41.667,N
242,-0.305,1.770,0.600,144.444,41.667,344.444,977.778,133.333,N
243,-0.575,1.550,0.380,141.667,44.444,366.667,994.444,16.667,N
244,-0.670,1.490,0.360,116.667,41.667,352.778,1108.333,113.889,N
245,-0.520,1.735,0.665,38.889,38.889,313.889,1055.556,52.778,N
246,-0.210,1.955,0.930,136.111,50.000,375.000,961.111,94.444,N
247,-0.040,2.220,0.980,152.778,47.222,372.222,1083.333,122.222,N
248,-0.065,2.155,0.965,130.556,41.667,325.000,1161.111,77.778,N
249,-0.120,2.010,1.025,38.889,41.667,336.111,1075.000,86.111,N
250,0.065,2.115,0.975,133.333,41.667,361.111,1011.111,63.889,N
251,-0.240,1.850,0.650,127.778,44.444,361.111,1027.778,16.667,N
252,-0.430,1.800,0.610,150.000,44.444,358.333,1102.778,75.000,N
253,0.105,1.905,1.185,38.889,41.667,369.444,1102.778,0.000,N
254,0.170,1.500,0.830,127.778,50.000,372.222,994.444,108.333,N
255,-0.385,1.305,0.330,133.333,44.444,352.778,1055.556,61.111,N
256,-0.775,1.380,0.220,130.556,44.444,355.556,1063.889,8.333,N
257,-0.695,1.505,0.405,41.667,44.444,366.667,1061.111,2.778,N
258,-0.620,1.620,0.505,138.889,41.667,350.000,1047.222,13.889,N
259,-0.545,1.835,0.600,130.556,41.667,366.667,1005.556,41.667,N
260,-0.410,1.940,0.750,122.222,50.000,372.222,1011.111,5.556,N
261,-0.305,2.045,0.810,138.889,44.444,352.778,1033.333,22.222,N
262,0.145,2.430,1.620,44.444,41.667,344.444,941.667,91.667,N
263,0.600,2.345,1.335,138.889,47.222,375.000,969.444,27.778,N
264,-0.205,1.605,0.495,138.889,41.667,363.889,1202.778,233.333,N
265,-0.805,1.255,0.230,111.111,38.889,338.889,1125.000,77.778,N
266,-0.785,1.525,0.415,136.111,44.444,361.111,1025.000,100.000,N
267,-0.550,1.745,0.645,41.667,41.667,347.222,1072.222,47.222,N
268,-0.005,2.280,1.205,91.667,38.889,333.333,1083.333,11.111,N
269,0.030,2.000,0.850,133.333,41.667,361.111,1055.556,27.778,N
270,-0.410,1.665,0.510,147.222,44.444,372.222,950.000,105.556,N
271,-0.615,1.685,0.480,133.333,41.667,330.556,966.667,16.667,N
272,-0.515,1.860,0.675,38.889,44.444,350.000,1005.556,38.889,N
273,0.090,2.295,1.310,36.111,47.222,358.333,1016.667,11.111,N
274,0.230,2.220,1.050,119.444,33.333,316.667,897.222,119.444,N
275,-0.285,1.815,0.570,155.556,47.222,375.000,952.778,55.556,N
276,-0.520,1.825,0.615,133.333,41.667,352.778,1163.889,211.111,N
277,-0.400,1.950,0.785,119.444,38.889,363.889,1119.444,44.444,N
278,-0.235,2.060,0.910,127.778,41.667,347.222,1055.556,63.889,N
279,0.145,2.435,1.425,36.111,41.667,355.556,1041.667,13.889,N
280,0.260,2.230,1.080,138.889,41.667,355.556,1052.778,11.111,N
281,-0.390,1.700,0.535,133.333,44.444,358.333,1111.111,58.333,N
282,-0.640,1.600,0.430,141.667,44.444,352.778,1008.333,102.778,N
283,-0.645,1.725,0.570,136.111,44.444,350.000,994.444,13.889,N
284,-0.155,2.130,1.220,36.111,44.444,369.444,1083.333,88.889,N
285,0.270,2.315,1.205,130.556,41.667,341.667,1044.444,38.889,N
286,-0.005,1.935,0.920,138.889,44.444,366.667,894.444,150.000,N
287,-0.205,2.020,0.800,144.444,47.222,363.889,1016.667,122.222,N
288,-0.235,2.045,0.865,144.444,44.444,358.333,1138.889,122.222,N
289,-0.260,2.015,0.830,130.556,41.667,355.556,1102.778,36.111,N
290,-0.245,1.965,0.835,125.000,38.889,333.333,972.222,130.556,N
291,-0.370,1.855,0.625,138.889,41.667,336.111,997.222,25.000,N
292,-0.525,1.770,0.590,144.444,47.222,372.222,1061.111,63.889,N
293,-0.350,1.920,0.845,50.000,41.667,358.333,1116.667,55.556,N
294,-0.140,2.070,1.000,144.444,41.667,325.000,1030.556,86.111,N
295,-0.060,2.145,1.020,138.889,41.667,350.000,894.444,136.111,N
296,-0.085,2.170,0.945,138.889,41.667,333.333,983.333,88.889,N
297,-0.215,1.980,0.735,125.000,41.667,300.000,983.333,0.000,N
298,-0.390,1.840,0.670,147.222,44.444,375.000,891.667,91.667,N
299,-0.385,1.885,0.760,133.333,47.222,375.000,1119.444,227.778,N
300,-0.265,2.010,0.940,122.222,44.444,336.111,1172.222,52.778,N
301,0.010,2.155,1.020,130.556,41.667,338.889,1088.889,83.333,N
302,-0.265,1.880,0.695,136.111,41.667,344.444,980.556,108.333,N
303,-0.450,1.930,0.795,100.000,33.333,333.333,1022.222,41.667,N
304,0.255,2.340,1.320,44.444,38.889,363.889,1077.778,55.556,N
305,0.085,1.985,0.840,150.000,47.222,375.000,1038.889,38.889,N
306,-0.485,1.655,0.390,130.556,41.667,358.333,1027.778,11.111,N
307,-0.775,1.550,0.290,133.333,44.444,341.667,1052.778,25.000,N
308,-0.765,1.510,0.350,116.667,44.444,333.333,1038.889,13.889,N
309,-0.635,1.560,0.520,127.778,38.889,358.333,925.000,113.889,N
310,-0.415,1.915,0.770,144.444,44.444,363.889,1050.000,125.000,N
311,-0.205,2.095,1.020,119.444,44.444,369.444,1058.333,8.333,N
312,0.200,2.200,1.100,136.111,47.222,375.000,1033.333,25.000,N
313,-0.130,1.805,0.615,133.333,41.667,358.333,977.778,55.556,N
314,-0.645,1.580,0.325,141.667,47.222,350.000,994.444,16.667,N
315,-0.705,1.700,0.485,119.444,41.667,355.556,1025.000,30.556,N
316,-0.445,1.775,0.660,141.667,47.222,372.222,1138.889,113.889,N
317,-0.285,2.050,0.845,133.333,41.667,361.111,1058.333,80.556,N
318,-0.205,2.100,0.875,138.889,38.889,347.222,1008.333,50.000,N
319,-0.170,2.175,0.940,136.111,44.444,358.333,1091.667,83.333,N
320,-0.155,2.055,0.955,136.111,44.444,308.333,1086.111,5.556,N
321,0.010,2.120,1.045,136.111,41.667,366.667,950.000,136.111,N
322,-0.135,2.000,0.800,133.333,41.667,361.111,980.556,30.556,N
323,-0.345,1.895,0.705,150.000,47.222,375.000,1083.333,102.778,N
324,-0.375,1.815,0.735,122.222,50.000,355.556,1138.889,55.556,N
325,-0.345,1.875,0.790,130.556,41.667,355.556,1041.667,97.222,N
326,-0.260,2.130,0.910,108.333,36.111,327.778,1094.444,52.778,N
327,-0.165,2.200,0.945,136.111,41.667,372.222,1141.667,47.222,N
328,-0.070,2.170,1.160,47.222,44.444,361.111,1177.778,36.111,N
329,-0.015,2.135,1.000,136.111,44.444,358.333,1038.889,138.889,N
330,-0.205,2.055,1.160,36.111,44.444,352.778,1066.667,27.778,N
331,0.125,1.970,0.915,127.778,38.889,341.667,1075.000,8.333,N
332,-0.535,1.520,0.250,147.222,44.444,372.222,1069.444,5.556,N
333,-0.855,1.335,0.310,136.111,44.444,372.222,1086.111,16.667,N
334,-0.590,1.660,0.625,38.889,44.444,355.556,1102.778,16.667,N
335,-0.300,2.085,1.015,44.444,44.444,363.889,1075.000,27.778,N
336,0.180,2.355,1.205,138.889,44.444,355.556,1077.778,2.778,N
337,-0.070,2.070,0.825,125.000,38.889,302.778,983.333,94.444,N
338,-0.380,1.880,0.640,130.556,44.444,372.222,1008.333,25.000,N
339,-0.345,1.950,0.715,144.444,44.444,366.667,1194.444,186.111,N
340,-0.340,1.805,0.735,119.444,38.889,338.889,1058.333,136.111,N
341,-0.115,2.050,1.170,133.333,44.444,358.333,930.556,127.778,N
342,0.100,2.110,0.930,144.444,41.667,355.556,966.667,36.111,N
343,-0.330,1.825,0.625,111.111,38.889,347.222,1008.333,41.667,N
344,-0.415,1.800,0.650,141.667,44.444,363.889,1066.667,58.333,N
345,-0.335,1.955,0.915,144.444,47.222,375.000,988.889,77.778,N
346,0.045,2.145,0.985,130.556,44.444,344.444,1033.333,44.444,N
347,-0.235,1.845,0.645,125.000,36.111,341.667,1047.222,13.889,N
348,-0.465,1.730,0.590,136.111,47.222,355.556,1027.778,19.444,N
349,-0.425,1.790,0.675,130.556,44.444,361.111,888.889,138.889,N
350,-0.360,1.720,0.715,141.667,50.000,369.444,1030.556,141.667,N
351,-0.215,1.470,0.700,38.889,47.222,352.778,1083.333,52.778,N
352,-0.275,1.650,0.855,122.222,44.444,375.000,1011.111,72.222,N
353,0.160,2.215,1.210,136.111,44.444,341.667,1000.000,11.111,N
354,-0.050,1.965,0.730,136.111,41.667,341.667,980.556,19.444,N
355,-0.550,1.630,0.510,133.333,44.444,358.333,1063.889,83.333,N
356,-0.545,1.795,0.605,138.889,44.444,372.222,1138.889,75.000,N
357,-0.420,1.825,0.715,138.889,38.889,350.000,1019.444,119.444,N
358,-0.335,1.875,0.770,136.111,44.444,350.000,961.111,58.333,N
359,-0.315,1.965,0.710,130.556,41.667,361.111,1061.111,100.000,N
360,-0.395,1.880,0.740,125.000,41.667,350.000,1111.111,50.000,N
361,-0.320,1.880,0.880,147.222,41.667,361.111,888.889,222.222,N
362,-0.145,2.015,0.945,138.889,50.000,358.333,958.333,69.444,N
363,-0.045,2.255,1.070,144.444,41.667,361.111,1105.556,147.222,N
364,0.005,2.290,1.050,130.556,41.667,358.333,1136.111,30.556,N
365,-0.145,1.920,0.775,122.222,44.444,338.889,1038.889,97.222,N
366,-0.355,1.855,0.745,136.111,44.444,325.000,1066.667,27.778,N
367,-0.295,1.995,0.950,44.444,47.222,366.667,1088.889,22.222,N
368,0.005,2.120,0.980,141.667,38.889,358.333,1083.333,5.556,N
369,-0.285,1.845,0.655,130.556,41.667,325.000,1002.778,80.556,N
370,-0.565,1.760,0.530,130.556,47.222,361.111,1052.778,50.000,N
371,-0.510,1.810,0.660,38.889,44.444,352.778,1072.222,19.444,N
372,-0.380,1.930,0.750,97.222,41.667,355.556,961.111,111.111,N
373,-0.280,1.960,0.785,150.000,50.000,375.000,997.222,36.111,N
374,-0.235,2.115,1.100,147.222,47.222,361.111,1050.000,52.778,N
375,0.190,2.275,1.045,127.778,38.889,338.889,1083.333,33.333,N
376,-0.280,1.770,0.630,125.000,44.444,355.556,1072.222,11.111,N
377,-0.530,1.780,0.595,138.889,44.444,361.111,988.889,83.333,N
378,0.595,1.740,0.255,158.333,86.111,297.222,494.444,494.444,a
379,-0.460,1.935,0.555,130.556,41.667,361.111,988.889,494.444,N
380,-0.315,2.000,0.710,136.111,47.222,375.000,1041.667,52.778,N
381,-0.220,2.075,0.975,141.667,38.889,344.444,975.000,66.667,N
382,0.210,2.320,1.205,130.556,41.667,341.667,883.333,91.667,N
383,-0.095,1.980,0.685,125.000,41.667,350.000,997.222,113.889,N
384,-0.585,1.770,0.505,133.333,41.667,313.889,1105.556,108.333,N
385,-0.465,1.920,0.785,47.222,47.222,358.333,1055.556,50.000,N
386,-0.240,2.205,0.980,138.889,44.444,352.778,1152.778,97.222,N
387,-0.065,2.295,1.035,136.111,47.222,358.333,1147.222,5.556,N
388,-0.205,2.035,0.890,133.333,44.444,355.556,1083.333,63.889,N
389,-0.100,2.295,1.115,47.222,41.667,347.222,994.444,88.889,N
390,-0.075,2.215,1.195,122.222,44.444,350.000,1005.556,11.111,N
391,1.195,2.260,0.995,191.667,94.444,383.333,516.667,488.889,a
392,-0.200,1.875,0.490,152.778,47.222,375.000,1163.889,647.222,N
393,-0.560,1.710,0.415,144.444,44.444,338.889,1027.778,136.111,N
394,-0.600,1.745,0.505,141.667,47.222,366.667,1044.444,16.667,N
395,-0.435,2.075,0.840,47.222,41.667,344.444,1105.556,61.111,N
396,-0.115,2.260,0.970,91.667,33.333,330.556,1008.333,97.222,N
397,-0.200,2.095,0.810,147.222,44.444,372.222,961.111,47.222,N
398,-0.265,2.080,0.860,130.556,44.444,372.222,1080.556,119.444,N
399,-0.160,2.245,1.245,38.889,36.111,344.444,1141.667,61.111,N
400,0.405,2.370,1.225,125.000,36.111,330.556,1033.333,108.333,N
401,-0.090,2.035,0.770,141.667,44.444,361.111,972.222,61.111,N
402,-0.490,1.795,0.615,130.556,44.444,358.333,1036.111,63.889,N
403,-0.185,1.990,0.845,119.444,44.444,372.222,1152.778,116.667,N
404,-0.425,1.715,0.530,141.667,44.444,363.889,1088.889,63.889,N
405,-0.560,1.735,0.555,147.222,41.667,352.778,955.556,133.333,N
406,-0.420,2.005,0.805,130.556,41.667,336.111,1033.333,77.778,N
407,0.060,2.470,1.295,44.444,41.667,336.111,1011.111,22.222,N
408,0.115,2.230,0.980,136.111,47.222,375.000,994.444,16.667,N
409,-0.190,2.120,0.795,138.889,41.667,372.222,1044.444,50.000,N
410,-0.325,2.085,0.770,136.111,44.444,375.000,1052.778,8.333,N
411,-0.335,2.095,0.805,136.111,47.222,347.222,1050.000,2.778,N
412,-0.215,2.075,0.970,116.667,41.667,352.778,1066.667,16.667,N
413,0.095,2.325,1.270,127.778,36.111,313.889,955.556,111.111,N
414,0.060,2.280,0.980,136.111,41.667,355.556,944.444,11.111,N
415,-0.215,2.050,0.710,150.000,44.444,372.222,1147.222,202.778,N
416,-0.305,2.010,0.815,130.556,41.667,347.222,1113.889,33.333,N
417,-0.230,2.020,1.020,136.111,44.444,352.778,955.556,158.333,N
418,0.030,2.230,0.970,125.000,38.889,330.556,1038.889,83.333,N
419,-0.320,1.810,0.675,127.778,36.111,325.000,1052.778,13.889,N
420,-0.485,1.855,0.680,130.556,41.667,372.222,1036.111,16.667,N
421,-0.325,1.955,0.890,138.889,47.222,369.444,1108.333,72.222,N
422,-0.150,2.230,1.055,38.889,41.667,355.556,1144.444,36.111,N
423,0.120,2.275,1.265,113.889,44.444,333.333,1063.889,80.556,N
424,0.100,2.180,1.030,127.778,38.889,344.444,894.444,169.444,N
425,-0.130,2.040,0.825,130.556,44.444,372.222,1005.556,111.111,N
426,-0.350,1.880,0.705,138.889,47.222,372.222,1172.222,166.667,N
427,-0.395,1.885,0.740,141.667,44.444,352.778,1136.111,36.111,N
428,-0.410,1.775,0.735,130.556,44.444,361.111,988.889,147.222,N
429,-0.360,1.915,0.825,130.556,41.667,341.667,1069.444,80.556,N
430,-0.220,2.000,0.970,119.444,44.444,341.667,1033.333,36.111,N
431,-0.050,2.030,1.045,144.444,44.444,372.222,1047.222,13.889,N
432,-0.035,1.940,1.005,144.444,44.444,363.889,1063.889,16.667,N
433,-0.100,1.920,0.960,136.111,44.444,350.000,1091.667,27.778,N
434,-0.080,1.990,0.980,133.333,41.667,344.444,1061.111,30.556,N
435,-0.160,1.795,0.830,125.000,38.889,361.111,1027.778,33.333,N
436,-0.315,1.675,0.675,127.778,38.889,313.889,947.222,80.556,N
437,-0.400,1.590,0.650,144.444,44.444,363.889,986.111,38.889,N
438,-0.245,1.830,0.810,144.444,41.667,344.444,1136.111,150.000,N
439,-0.345,1.600,0.615,133.333,44.444,341.667,1088.889,47.222,N
440,-0.450,1.705,0.675,125.000,41.667,347.222,972.222,116.667,N
441,-0.470,1.715,0.655,125.000,41.667,347.222,997.222,25.000,N
442,-0.415,1.890,0.690,102.778,44.444,369.444,1061.111,63.889,N
443,-0.305,1.890,0.785,141.667,50.000,369.444,1138.889,77.778,N
444,-0.275,1.915,0.860,127.778,41.667,361.111,1002.778,136.111,N
445,-0.230,1.980,0.875,102.778,36.111,352.778,1008.333,5.556,N
446,-0.265,1.925,0.785,133.333,44.444,361.111,1063.889,55.556,N
447,-0.155,1.955,0.855,130.556,38.889,344.444,1047.222,16.667,N
448,-0.375,1.545,0.590,125.000,41.667,361.111,894.444,152.778,N
449,-0.455,1.465,0.615,47.222,47.222,363.889,1088.889,194.444,N
450,-0.335,1.785,0.755,136.111,41.667,347.222,1136.111,47.222,N
451,-0.270,1.900,0.855,133.333,41.667,361.111,1030.556,105.556,N
452,-0.320,1.980,0.740,130.556,41.667,361.111,980.556,50.000,N
453,-0.425,1.840,0.740,138.889,47.222,352.778,1011.111,30.556,N
454,-0.340,1.980,0.840,144.444,44.444,361.111,972.222,38.889,N
455,-0.260,1.910,0.870,44.444,41.667,361.111,1047.222,75.000,N
456,-0.160,2.060,0.925,144.444,50.000,369.444,1000.000,47.222,N
457,-0.160,2.150,0.985,138.889,47.222,341.667,994.444,5.556,N
458,-0.110,2.115,0.905,133.333,41.667,355.556,1030.556,36.111,N
459,-0.270,1.930,0.795,136.111,41.667,352.778,1050.000,19.444,N
460,-0.310,1.880,0.735,136.111,50.000,377.778,966.667,83.333,N
461,-0.325,1.895,0.765,136.111,47.222,375.000,1066.667,100.000,N
462,-0.290,1.825,0.670,136.111,44.444,369.444,1050.000,16.667,N
463,-0.525,1.680,0.545,127.778,41.667,344.444,1041.667,8.333,N
464,-0.490,1.760,0.635,127.778,38.889,325.000,916.667,125.000,N
465,-0.415,1.995,0.765,125.000,44.444,350.000,961.111,44.444,N
466,-0.350,1.965,0.680,133.333,44.444,372.222,994.444,33.333,N
467,-0.395,1.920,0.675,138.889,47.222,372.222,1102.778,108.333,N
468,-0.225,2.090,0.905,141.667,44.444,350.000,1019.444,83.333,N
469,-0.190,2.225,0.945,125.000,47.222,366.667,1016.667,2.778,N
470,-0.125,2.245,1.000,122.222,41.667,333.333,1083.333,66.667,N
471,-0.110,2.140,1.000,127.778,38.889,288.889,1002.778,80.556,N
472,-0.200,2.020,0.760,133.333,41.667,369.444,866.667,136.111,N
473,-0.410,1.865,0.730,141.667,47.222,375.000,1044.444,177.778,N
474,-0.320,2.050,0.850,138.889,47.222,361.111,1113.889,69.444,N
475,-0.275,2.005,0.850,144.444,44.444,344.444,1075.000,38.889,N
476,-0.250,2.105,0.895,127.778,41.667,347.222,947.222,127.778,N
477,-0.200,2.045,0.915,138.889,44.444,302.778,994.444,47.222,N
478,-0.135,2.055,0.975,144.444,41.667,358.333,1058.333,63.889,N
479,-0.185,2.000,0.820,133.333,44.444,372.222,1102.778,44.444,N
480,-0.325,1.945,0.765,138.889,41.667,350.000,1005.556,97.222,N
481,-0.295,1.985,0.835,141.667,44.444,355.556,1016.667,11.111,N
482,-0.220,1.980,0.835,133.333,41.667,344.444,1008.333,8.333,N
483,-0.240,2.060,0.880,91.667,36.111,344.444,975.000,33.333,N
484,-0.155,2.045,0.910,155.556,44.444,375.000,980.556,5.556,N
485,-0.170,2.045,0.885,152.778,47.222,358.333,1013.889,33.333,N
486,-0.270,1.995,0.785,116.667,38.889,327.778,1041.667,27.778,N
487,-0.380,1.825,0.610,113.889,38.889,344.444,1019.444,22.222,N
488,-0.490,1.880,0.740,127.778,41.667,361.111,997.222,22.222,N
489,0.740,1.825,0.440,166.667,100.000,338.889,505.556,491.667,a
490,-0.375,1.920,0.620,116.667,44.444,372.222,1016.667,511.111,N
491,-0.285,1.970,0.575,147.222,47.222,372.222,1147.222,130.556,N
492,-0.295,1.885,0.835,138.889,44.444,350.000,1091.667,55.556,N
493,-0.205,2.100,0.910,127.778,41.667,352.778,986.111,105.556,N
494,-0.155,2.190,0.980,130.556,44.444,344.444,1019.444,33.333,N
495,-0.145,2.130,0.905,130.556,38.889,308.333,1050.000,30.556,N
496,-0.265,2.000,0.795,136.111,44.444,361.111,972.222,77.778,N
497,-0.300,1.930,0.760,138.889,41.667,350.000,936.111,36.111,N
498,-0.360,1.930,0.620,144.444,41.667,361.111,972.222,36.111,N
499,-0.495,1.840,0.605,133.333,41.667,352.778,1075.000,102.778,N
500,-0.385,1.945,0.745,122.222,38.889,333.333,950.000,125.000,N
501,-0.335,1.935,0.775,122.222,44.444,319.444,950.000,0.000,N
502,-0.290,1.975,0.740,138.889,50.000,375.000,1033.333,83.333,N
503,-0.290,1.960,0.805,122.222,47.222,358.333,1200.000,166.667,N
504,-0.260,1.935,0.800,125.000,38.889,313.889,1019.444,180.556,N
505,-0.340,1.805,0.700,144.444,41.667,361.111,1002.778,16.667,N
506,-0.360,1.960,0.715,130.556,41.667,355.556,1069.444,66.667,N
507,-0.360,1.810,0.675,116.667,41.667,355.556,1019.444,50.000,N
508,-0.365,1.790,0.680,150.000,47.222,363.889,1013.889,5.556,N
509,-0.335,1.840,0.685,147.222,44.444,355.556,1027.778,13.889,N
510,-0.340,1.925,0.720,125.000,38.889,330.556,1066.667,38.889,N
511,-0.430,1.760,0.590,125.000,38.889,330.556,1030.556,36.111,N
512,-0.520,1.625,0.540,133.333,41.667,358.333,922.222,108.333,N
513,-0.470,1.805,0.725,111.111,41.667,347.222,944.444,22.222,N
514,-0.275,2.000,0.770,138.889,47.222,375.000,1080.556,136.111,N
515,-0.310,1.865,0.760,127.778,47.222,352.778,1102.778,22.222,N
516,-0.280,1.925,0.820,116.667,36.111,347.222,941.667,161.111,N
517,-0.195,2.055,0.885,136.111,41.667,336.111,988.889,47.222,N
518,-0.160,2.125,0.910,119.444,41.667,338.889,994.444,5.556,N
519,-0.150,2.095,0.850,141.667,41.667,369.444,994.444,0.000,N
520,-0.190,1.985,0.860,133.333,44.444,372.222,1052.778,58.333,N
521,-0.180,2.040,0.800,133.333,41.667,363.889,1030.556,22.222,N
522,-0.390,1.940,0.680,127.778,44.444,344.444,1066.667,36.111,N
523,-0.375,1.875,0.695,127.778,41.667,347.222,1063.889,2.778,N
524,-0.305,1.910,0.795,136.111,41.667,338.889,1008.333,55.556,N
525,-0.265,1.980,0.775,130.556,41.667,361.111,972.222,36.111,N
526,-0.230,1.940,0.635,141.667,52.778,377.778,1183.333,211.111,N
527,-0.245,1.955,0.790,130.556,41.667,350.000,1105.556,77.778,N
528,-0.230,1.795,0.735,136.111,44.444,341.667,905.556,200.000,N
529,-0.310,1.955,0.760,116.667,41.667,338.889,1030.556,125.000,N
530,-0.270,1.840,0.675,119.444,44.444,336.111,1069.444,38.889,N
531,-0.445,1.615,0.545,150.000,47.222,375.000,1016.667,52.778,N
532,-0.415,1.750,0.675,125.000,44.444,363.889,1088.889,72.222,N
533,-0.320,1.830,0.770,147.222,44.444,338.889,1125.000,36.111,N
534,-0.235,2.010,0.795,130.556,41.667,330.556,1044.444,80.556,N
535,-0.220,1.950,0.840,127.778,41.667,352.778,925.000,119.444,N
536,-0.230,1.965,0.835,138.889,44.444,308.333,900.000,25.000,N
537,-0.225,1.930,0.695,155.556,44.444,372.222,916.667,16.667,N
538,-0.190,1.965,0.850,130.556,41.667,361.111,1172.222,255.556,N
539,-0.160,1.950,0.935,125.000,44.444,333.333,1044.444,127.778,N
540,-0.110,2.075,0.885,138.889,41.667,341.667,1097.222,52.778,N
541,-0.130,2.030,0.910,125.000,38.889,333.333,1086.111,11.111,N
542,-0.110,1.980,0.885,122.222,41.667,363.889,1000.000,86.111,N
543,-0.220,1.775,0.745,144.444,47.222,369.444,986.111,13.889,N
544,-0.245,1.935,0.810,144.444,44.444,361.111,1083.333,97.222,N
545,-0.220,2.015,0.830,111.111,38.889,347.222,1063.889,19.444,N
546,-0.225,1.920,0.830,133.333,41.667,358.333,1058.333,5.556,N
547,-0.205,1.835,0.810,125.000,44.444,350.000,1005.556,52.778,N
548,-0.200,1.505,0.755,36.111,44.444,366.667,963.889,41.667,N
549,-0.205,1.525,0.730,150.000,44.444,358.333,1113.889,150.000,N
550,-0.280,1.845,0.750,138.889,41.667,355.556,1102.778,11.111,N
551,-0.245,1.870,0.830,127.778,41.667,347.222,972.222,130.556,N
552,-0.220,1.995,0.815,125.000,44.444,338.889,927.778,44.444,N
553,-0.225,1.985,0.775,141.667,44.444,352.778,988.889,61.111,N
554,-0.240,1.945,0.745,136.111,44.444,375.000,975.000,13.889,N
555,-0.230,1.860,0.785,130.556,38.889,358.333,961.111,13.889,N
556,-0.255,1.940,0.770,144.444,47.222,375.000,1005.556,44.444,N
557,-0.215,2.005,0.895,144.444,44.444,361.111,1044.444,38.889,N
558,-0.190,1.940,0.740,136.111,41.667,333.333,1075.000,30.556,N
559,-0.305,1.825,0.730,138.889,41.667,333.333,916.667,158.333,N
560,-0.290,1.925,0.740,136.111,41.667,358.333,847.222,69.444,N
561,-0.220,2.110,0.860,127.778,41.667,361.111,1141.667,294.444,N
562,-0.250,1.960,0.685,133.333,41.667,363.889,1113.889,27.778,N
563,-0.360,1.790,0.700,138.889,44.444,366.667,994.444,119.444,N
564,-0.280,2.045,0.805,136.111,41.667,347.222,1025.000,30.556,N
565,-0.215,2.135,0.830,130.556,41.667,341.667,1066.667,41.667,N
566,-0.155,2.105,0.855,141.667,41.667,363.889,1027.778,38.889,N
567,-0.250,1.960,0.690,144.444,44.444,372.222,1036.111,8.333,N
568,-0.260,1.965,0.750,136.111,44.444,355.556,1125.000,88.889,N
569,-0.265,2.015,0.795,119.444,44.444,358.333,1047.222,77.778,N
570,-0.230,2.065,0.835,136.111,44.444,341.667,1069.444,22.222,N
571,-0.195,1.995,0.880,125.000,38.889,300.000,1016.667,52.778,N
572,-0.200,2.015,0.825,141.667,47.222,369.444,966.667,50.000,N
573,-0.255,2.050,0.830,138.889,41.667,350.000,1069.444,102.778,N
574,-0.180,2.085,0.865,119.444,41.667,341.667,1088.889,19.444,N
575,-0.265,1.905,0.755,130.556,41.667,350.000,1047.222,41.667,N
576,-0.310,1.970,0.770,127.778,41.667,344.444,916.667,130.556,N
577,-0.260,2.155,0.850,122.222,33.333,313.889,994.444,77.778,N
578,-0.200,2.065,0.895,125.000,50.000,372.222,1100.000,105.556,N
579,-0.210,2.045,0.860,125.000,38.889,352.778,1133.333,33.333,N
580,-0.250,1.985,0.835,122.222,38.889,330.556,980.556,152.778,N
581,-0.260,2.070,0.820,138.889,47.222,361.111,1047.222,66.667,N
582,-0.300,2.035,0.790,127.778,41.667,347.222,1091.667,44.444,N
583,-0.310,1.915,0.790,138.889,41.667,358.333,947.222,144.444,N
584,-0.270,2.020,0.795,141.667,44.444,350.000,986.111,38.889,N
585,-0.250,2.040,0.905,141.667,44.444,363.889,1044.444,58.333,N
586,-0.245,2.025,0.710,119.444,44.444,355.556,1025.000,19.444,N
587,-0.460,1.875,0.600,127.778,38.889,327.778,980.556,44.444,N
588,-0.425,1.905,0.690,136.111,44.444,358.333,886.111,94.444,N
589,-0.385,2.025,0.745,125.000,47.222,372.222,972.222,86.111,N
590,-0.335,2.005,0.770,41.667,41.667,361.111,1086.111,113.889,N
591,-0.315,1.995,0.790,136.111,44.444,372.222,1027.778,58.333,N
592,-0.310,2.080,0.815,125.000,38.889,350.000,936.111,91.667,N
593,-0.225,2.135,0.805,133.333,41.667,341.667,994.444,58.333,N
594,-0.395,2.030,0.660,133.333,41.667,341.667,997.222,2.778,N
595,-0.470,1.820,0.675,122.222,44.444,355.556,905.556,91.667,N
596,-0.380,1.925,0.745,147.222,44.444,361.111,1025.000,119.444,N
597,-0.330,1.955,0.805,141.667,41.667,344.444,1097.222,72.222,N
598,-0.260,2.030,0.910,41.667,41.667,366.667,1047.222,50.000,N
599,-0.240,1.990,0.820,127.778,41.667,350.000,1083.333,36.111,N
600,-0.250,2.060,0.910,141.667,44.444,341.667,997.222,86.111,N
601,-0.185,2.110,0.895,136.111,44.444,355.556,1013.889,16.667,N
602,-0.230,2.150,0.805,52.778,44.444,375.000,1147.222,133.333,N
603,-0.205,2.070,0.910,136.111,44.444,358.333,1102.778,44.444,N
604,-0.155,2.135,0.950,125.000,41.667,350.000,936.111,166.667,N
605,-0.145,2.125,0.895,144.444,38.889,344.444,1019.444,83.333,N
606,-0.135,2.085,0.985,136.111,44.444,336.111,1041.667,22.222,N
607,-0.095,2.085,0.915,147.222,44.444,361.111,1011.111,30.556,N
608,-0.240,2.050,0.820,141.667,44.444,358.333,1038.889,27.778,N
609,-0.265,2.050,0.850,125.000,44.444,369.444,1069.444,30.556,N
610,-0.205,2.060,0.905,125.000,44.444,350.000,1036.111,33.333,N
611,-0.160,2.120,0.930,113.889,41.667,347.222,972.222,63.889,N
612,-0.080,2.075,1.005,138.889,41.667,338.889,869.444,102.778,N
613,-0.105,1.990,0.805,147.222,50.000,375.000,877.778,8.333,N
614,-0.215,2.015,0.815,163.889,55.556,377.778,1080.556,202.778,N
615,-0.190,2.065,0.855,133.333,44.444,344.444,1105.556,25.000,N
616,-0.160,2.040,0.930,133.333,41.667,361.111,997.222,108.333,N
617,-0.090,2.150,0.925,130.556,41.667,341.667,1016.667,19.444,N
618,-0.135,2.055,0.935,116.667,38.889,311.111,1016.667,0.000,N
619,-0.080,2.145,0.955,150.000,47.222,375.000,983.333,33.333,N
620,-0.090,2.080,0.910,150.000,47.222,372.222,1016.667,33.333,N
621,-0.155,2.010,0.900,144.444,44.444,344.444,1080.556,63.889,N
622,-0.135,2.060,0.900,133.333,41.667,338.889,1038.889,41.667,N
623,-0.235,1.800,0.700,136.111,44.444,352.778,969.444,69.444,N
624,-0.330,1.920,0.760,122.222,44.444,305.556,983.333,13.889,N
625,-0.230,1.975,0.795,136.111,44.444,375.000,997.222,13.889,N
626,-0.200,2.030,0.800,133.333,47.222,355.556,1147.222,150.000,N
627,-0.160,1.965,0.855,136.111,44.444,338.889,1052.778,94.444,N
628,-0.135,2.000,0.830,133.333,41.667,341.667,977.778,75.000,N
629,-0.235,1.940,0.770,119.444,44.444,341.667,1036.111,58.333,N
630,-0.215,1.985,0.810,102.778,38.889,358.333,1013.889,22.222,N
631,-0.285,1.735,0.645,147.222,47.222,375.000,1083.333,69.444,N
632,-0.380,1.780,0.725,138.889,47.222,355.556,988.889,94.444,N
633,-0.275,1.965,0.775,127.778,38.889,313.889,988.889,0.000,N
634,-0.255,1.935,0.730,130.556,41.667,347.222,1050.000,61.111,N
635,-0.315,1.890,0.730,127.778,41.667,347.222,1063.889,13.889,N
636,-0.315,1.885,0.760,111.111,38.889,344.444,936.111,127.778,N
637,-0.230,1.935,0.660,155.556,52.778,377.778,1111.111,175.000,N
638,-0.215,1.900,0.785,125.000,47.222,358.333,1166.667,55.556,N
639,-0.245,1.850,0.785,125.000,41.667,350.000,997.222,169.444,N
640,-0.220,1.975,0.830,125.000,41.667,352.778,930.556,66.667,N
641,-0.230,1.930,0.790,133.333,44.444,355.556,961.111,30.556,N
642,-0.240,1.900,0.770,133.333,44.444,372.222,988.889,27.778,N
643,-0.255,1.800,0.620,141.667,44.444,366.667,1105.556,116.667,N
644,-0.385,1.725,0.635,138.889,47.222,375.000,1047.222,58.333,N
645,-0.360,1.850,0.635,144.444,44.444,347.222,1052.778,5.556,N
646,-0.375,1.825,0.630,130.556,38.889,341.667,1019.444,33.333,N
647,-0.295,1.480,0.670,130.556,44.444,344.444,966.667,52.778,N
648,-0.235,1.435,0.600,141.667,47.222,372.222,861.111,105.556,N
649,-0.290,1.640,0.715,138.889,47.222,372.222,1000.000,138.889,N
650,-0.240,2.020,0.815,130.556,41.667,358.333,972.222,27.778,N
651,-0.210,2.015,0.810,136.111,47.222,375.000,1019.444,47.222,N
652,-0.200,2.080,0.875,133.333,41.667,338.889,1000.000,19.444,N
653,-0.165,2.060,0.860,136.111,41.667,333.333,950.000,50.000,N
654,-0.165,1.990,0.840,136.111,44.444,338.889,916.667,33.333,N
655,-0.250,1.955,0.760,127.778,44.444,372.222,1030.556,113.889,N
656,-0.250,1.810,0.745,130.556,38.889,358.333,980.556,50.000,N
657,-0.275,1.775,0.690,130.556,38.889,338.889,952.778,27.778,N
658,-0.335,1.850,0.645,138.889,44.444,352.778,1072.222,119.444,N
659,-0.410,1.725,0.600,133.333,41.667,347.222,1075.000,2.778,N
660,-0.430,1.755,0.650,133.333,41.667,347.222,916.667,158.333,N
661,-0.385,1.850,0.650,141.667,47.222,352.778,1058.333,141.667,N
662,-0.375,1.830,0.675,127.778,41.667,369.444,1119.444,61.111,N
663,-0.430,1.700,0.520,130.556,41.667,355.556,1072.222,47.222,N
664,-0.535,1.715,0.615,122.222,41.667,338.889,955.556,116.667,N
665,-0.375,1.875,0.695,130.556,44.444,361.111,975.000,19.444,N
666,-0.305,1.920,0.675,144.444,47.222,375.000,997.222,22.222,N
667,-0.315,1.980,0.760,130.556,44.444,358.333,1105.556,108.333,N
668,-0.260,1.920,0.765,141.667,41.667,347.222,997.222,108.333,N
669,-0.275,1.965,0.760,144.444,41.667,350.000,930.556,66.667,N
670,-0.275,2.000,0.785,125.000,41.667,333.333,1013.889,83.333,N
671,-0.290,1.915,0.750,130.556,44.444,338.889,1058.333,44.444,N
672,-0.285,1.875,0.630,144.444,44.444,372.222,977.778,80.556,N
673,-0.315,2.015,0.740,136.111,50.000,377.778,1125.000,147.222,N
674,-0.245,1.980,0.820,141.667,44.444,347.222,1105.556,19.444,N
675,-0.220,1.945,0.820,127.778,41.667,341.667,1033.333,72.222,N
676,-0.180,2.080,0.910,127.778,38.889,344.444,950.000,83.333,N
677,-0.165,2.120,0.915,125.000,38.889,313.889,980.556,30.556,N
678,-0.160,2.070,0.885,116.667,44.444,361.111,1008.333,27.778,N
679,-0.200,2.015,0.860,152.778,47.222,375.000,1138.889,130.556,N
680,-0.200,2.090,0.925,138.889,44.444,355.556,1047.222,91.667,N
681,-0.180,2.050,0.895,136.111,44.444,350.000,1000.000,47.222,N
682,-0.165,2.140,0.885,133.333,41.667,338.889,994.444,5.556,N
683,-0.255,2.055,0.825,138.889,41.667,297.222,941.667,52.778,N
684,-0.260,2.015,0.850,152.778,44.444,355.556,863.889,77.778,N
685,-0.200,1.960,0.915,158.333,44.444,352.778,819.444,44.444,N
686,-0.125,2.160,0.940,152.778,47.222,355.556,777.778,41.667,N
687,-0.125,2.160,0.945,141.667,41.667,341.667,811.111,33.333,N
688,-0.135,2.115,0.890,141.667,47.222,338.889,827.778,16.667,N
689,-0.160,2.000,0.925,133.333,41.667,316.667,758.333,69.444,N
690,-0.105,2.165,0.920,147.222,38.889,325.000,727.778,30.556,N
691,-0.105,2.230,0.875,133.333,41.667,341.667,772.222,44.444,N
692,-0.140,2.215,0.740,152.778,47.222,375.000,1352.778,580.556,N
693,-0.180,2.035,0.860,125.000,41.667,336.111,1236.111,116.667,N
694,-0.160,1.730,0.830,116.667,41.667,352.778,941.667,294.444,N
695,-0.030,1.860,0.930,138.889,44.444,333.333,825.000,116.667,N
696,-0.095,1.980,0.790,141.667,41.667,333.333,802.778,22.222,N
697,-0.240,2.065,0.780,116.667,44.444,355.556,755.556,47.222,N
698,-0.270,2.165,0.775,144.444,50.000,355.556,1211.111,455.556,N
699,-0.230,2.120,0.785,136.111,41.667,372.222,1138.889,72.222,N
700,-0.240,2.195,0.860,133.333,41.667,355.556,1036.111,102.778,N
701,-0.280,2.010,0.715,125.000,41.667,333.333,1019.444,16.667,N
702,-0.310,1.995,0.790,138.889,44.444,350.000,1100.000,80.556,N
703,-0.235,2.100,0.850,144.444,47.222,355.556,1102.778,2.778,N
704,-0.205,2.160,0.860,136.111,44.444,369.444,1127.778,25.000,N
705,-0.140,2.190,0.925,136.111,44.444,341.667,1113.889,13.889,N
706,-0.150,2.160,0.910,141.667,44.444,347.222,1091.667,22.222,N
707,-0.170,2.085,0.885,127.778,41.667,344.444,930.556,161.111,N
708,-0.185,2.105,0.830,141.667,41.667,300.000,833.333,97.222,N
709,-0.175,2.060,0.730,158.333,50.000,375.000,883.333,50.000,N
710,-0.205,2.045,0.745,152.778,47.222,361.111,1008.333,125.000,N
711,-0.285,2.020,0.760,144.444,41.667,338.889,1044.444,36.111,N
712,-0.260,2.040,0.760,119.444,41.667,358.333,1041.667,2.778,N
713,-0.220,2.135,0.815,136.111,44.444,358.333,1063.889,22.222,N
714,-0.205,2.155,0.860,130.556,41.667,308.333,997.222,66.667,N
715,-0.165,2.055,0.845,141.667,44.444,369.444,891.667,105.556,N
716,-0.185,2.065,0.790,152.778,44.444,375.000,958.333,66.667,N
717,-0.240,1.965,0.795,147.222,47.222,361.111,900.000,58.333,N
718,-0.280,2.040,0.735,138.889,44.444,350.000,972.222,72.222,N
719,-0.285,2.020,0.775,127.778,38.889,330.556,1069.444,97.222,N
720,-0.235,2.095,0.845,136.111,44.444,322.222,1080.556,11.111,N
721,-0.200,2.030,0.870,141.667,44.444,372.222,950.000,130.556,N
722,-0.195,2.010,0.835,138.889,41.667,347.222,902.778,47.222,N
723,-0.190,2.095,0.855,144.444,41.667,363.889,836.111,66.667,N
724,-0.185,2.030,0.775,138.889,38.889,316.667,777.778,58.333,N
725,-0.225,1.950,0.695,147.222,41.667,322.222,758.333,19.444,N
726,-0.300,1.700,0.660,141.667,38.889,313.889,744.444,13.889,N
727,-0.265,1.925,0.655,150.000,41.667,319.444,738.889,5.556,N
728,-0.255,1.930,0.720,136.111,44.444,338.889,669.444,69.444,N
729,-0.230,2.035,0.745,155.556,50.000,372.222,805.556,136.111,N
730,-0.220,2.060,0.750,152.778,47.222,355.556,1027.778,222.222,N
731,-0.205,1.960,0.795,138.889,44.444,322.222,986.111,41.667,N
732,-0.150,2.090,0.850,150.000,44.444,344.444,944.444,41.667,N
733,-0.145,2.125,0.800,138.889,41.667,325.000,1155.556,211.111,N
734,-0.155,2.045,0.830,127.778,44.444,361.111,1088.889,66.667,N
735,-0.210,1.990,0.815,141.667,44.444,369.444,1194.444,105.556,N
736,-0.200,2.075,0.815,130.556,41.667,350.000,1191.667,2.778,N
737,-0.185,2.130,0.850,130.556,41.667,341.667,1100.000,91.667,N
738,-0.215,2.065,0.755,127.778,41.667,347.222,1127.778,27.778,N
739,-0.240,1.990,0.830,116.667,41.667,294.444,1122.222,5.556,N
740,-0.180,2.025,0.805,127.778,41.667,366.667,1058.333,63.889,N
741,-0.300,1.895,0.680,133.333,44.444,363.889,1055.556,2.778,N
742,-0.355,1.880,0.715,141.667,44.444,347.222,994.444,61.111,N
743,-0.310,1.985,0.755,141.667,41.667,347.222,1033.333,38.889,N
744,-0.045,2.240,1.005,44.444,38.889,347.222,1052.778,19.444,N
745,-0.140,2.025,0.800,108.333,36.111,341.667,997.222,55.556,N
746,-0.380,1.850,0.625,138.889,44.444,350.000,1144.444,147.222,N
747,-0.410,1.835,0.615,141.667,44.444,366.667,1155.556,11.111,N
748,-0.365,1.900,0.680,141.667,47.222,361.111,1111.111,44.444,N
749,-0.330,1.780,0.705,41.667,41.667,333.333,1050.000,61.111,N
750,-0.260,1.485,0.635,130.556,44.444,327.778,891.667,158.333,N
751,-0.305,1.445,0.635,133.333,44.444,363.889,863.889,27.778,N
752,-0.325,1.905,0.705,138.889,47.222,372.222,1141.667,277.778,N
753,-0.385,1.835,0.640,133.333,44.444,361.111,1111.111,30.556,N
754,-0.350,1.950,0.810,138.889,44.444,355.556,988.889,122.222,N
755,-0.185,2.185,0.880,136.111,47.222,341.667,1133.333,144.444,N
756,-0.185,2.205,0.885,125.000,38.889,297.222,1122.222,11.111,N
757,-0.190,2.105,0.890,130.556,44.444,358.333,1086.111,36.111,N
758,-0.195,1.985,0.880,130.556,44.444,372.222,1086.111,0.000,N
759,-0.200,2.140,0.840,130.556,41.667,333.333,1044.444,41.667,N
760,-0.300,2.025,0.750,133.333,44.444,341.667,1002.778,41.667,N
761,-0.360,1.955,0.735,130.556,41.667,341.667,1000.000,2.778,N
762,-0.300,2.040,0.770,116.667,33.333,319.444,947.222,52.778,N
763,-0.260,1.900,0.815,138.889,47.222,355.556,875.000,72.222,N
764,-0.255,2.015,0.770,144.444,41.667,347.222,922.222,47.222,N
765,-0.300,1.990,0.745,144.444,44.444,361.111,1100.000,177.778,N
766,-0.360,2.010,0.715,127.778,41.667,347.222,1116.667,16.667,N
767,-0.285,2.005,0.840,38.889,41.667,338.889,1025.000,91.667,N
768,-0.170,2.190,0.915,105.556,36.111,330.556,1019.444,5.556,N
769,-0.150,2.165,0.875,127.778,41.667,372.222,1122.222,102.778,N
770,-0.165,2.160,0.880,133.333,44.444,375.000,1169.444,47.222,N
771,-0.210,2.065,0.855,136.111,41.667,361.111,1075.000,94.444,N
772,-0.240,1.965,0.825,125.000,44.444,350.000,1002.778,72.222,N
773,-0.365,2.020,0.810,127.778,41.667,341.667,969.444,33.333,N
774,-0.205,1.985,0.835,125.000,41.667,350.000,977.778,8.333,N
775,-0.220,2.105,0.885,133.333,41.667,358.333,1105.556,127.778,N
776,-0.195,2.055,0.925,133.333,44.444,372.222,1033.333,72.222,N
777,-0.150,2.110,0.920,138.889,44.444,352.778,1008.333,25.000,N
778,-0.135,2.185,0.855,130.556,38.889,341.667,1055.556,47.222,N
779,-0.220,2.140,0.930,127.778,47.222,350.000,1047.222,8.333,N
780,-0.170,2.005,0.940,152.778,47.222,375.000,925.000,122.222,N
781,-0.125,2.095,0.890,150.000,47.222,358.333,916.667,8.333,N
782,-0.165,2.160,0.880,141.667,47.222,352.778,1019.444,102.778,N
783,-0.020,2.310,1.060,41.667,41.667,361.111,1069.444,50.000,N
784,-0.095,2.005,0.805,125.000,41.667,333.333,1030.556,38.889,N
785,-0.295,1.875,0.720,130.556,44.444,338.889,908.333,122.222,N
786,-0.375,1.955,0.610,133.333,44.444,375.000,933.333,25.000,N
787,-0.425,1.870,0.545,141.667,44.444,372.222,1177.778,244.444,N
788,-0.370,2.055,0.805,47.222,41.667,347.222,1102.778,75.000,N
789,-0.170,2.140,0.955,144.444,41.667,341.667,933.333,169.444,N
790,-0.170,2.230,0.920,133.333,41.667,341.667,952.778,19.444,N
791,-0.225,2.160,0.980,38.889,41.667,330.556,1005.556,52.778,N
792,-0.085,2.170,0.895,138.889,44.444,355.556,966.667,38.889,N
793,-0.245,1.980,0.730,155.556,47.222,375.000,997.222,30.556,N
794,-0.305,1.985,0.720,141.667,44.444,355.556,1019.444,22.222,N
795,-0.345,2.070,0.770,125.000,41.667,350.000,1000.000,19.444,N
796,-0.330,2.020,0.760,136.111,44.444,352.778,1030.556,30.556,N
797,-0.325,1.990,0.795,136.111,41.667,341.667,961.111,69.444,N
798,-0.290,2.105,0.825,161.111,47.222,366.667,944.444,16.667,N
799,-0.315,2.075,0.825,138.889,50.000,358.333,1011.111,66.667,N
800,-0.320,1.960,0.745,144.444,41.667,363.889,1019.444,8.333,N
801,-0.295,1.970,0.945,38.889,47.222,352.778,961.111,58.333,N
802,-0.115,2.180,0.905,130.556,41.667,327.778,925.000,36.111,N
803,-0.310,2.020,0.695,130.556,41.667,338.889,955.556,30.556,N
804,-0.440,1.915,0.535,136.111,44.444,372.222,1013.889,58.333,N
805,-0.240,2.045,0.995,155.556,44.444,375.000,1008.333,5.556,N
806,0.095,2.035,0.985,138.889,41.667,350.000,880.556,127.778,N
807,-0.235,1.965,0.625,130.556,36.111,338.889,958.333,77.778,N
808,-0.540,1.695,0.500,127.778,41.667,344.444,1180.556,222.222,N
809,-0.510,1.755,0.630,38.889,41.667,322.222,1108.333,72.222,N
810,-0.455,1.935,0.710,141.667,44.444,372.222,988.889,119.444,N
811,-0.380,2.050,0.800,138.889,47.222,375.000,1211.111,222.222,N
812,-0.320,2.065,0.825,125.000,47.222,322.222,1233.333,22.222,N
813,-0.340,1.940,0.825,38.889,41.667,333.333,1066.667,166.667,N
814,-0.280,2.000,0.855,138.889,44.444,350.000,880.556,186.111,N
815,-0.260,2.145,0.900,136.111,41.667,302.778,950.000,69.444,N
816,-0.195,2.125,0.910,133.333,44.444,372.222,1094.444,144.444,N
817,-0.195,2.030,0.935,119.444,44.444,341.667,1169.444,75.000,N
818,-0.150,2.095,0.935,116.667,44.444,341.667,1016.667,152.778,N
819,-0.190,2.210,0.995,133.333,41.667,341.667,1033.333,16.667,N
820,-0.120,2.135,0.940,133.333,41.667,341.667,1080.556,47.222,N
821,-0.190,2.050,0.855,138.889,47.222,375.000,1036.111,44.444,N
822,-0.200,2.070,0.895,155.556,47.222,355.556,1186.111,150.000,N
823,-0.130,2.165,0.955,130.556,41.667,361.111,1138.889,47.222,N
824,-0.170,2.085,0.925,138.889,44.444,372.222,1091.667,47.222,N
825,-0.160,1.985,0.915,133.333,44.444,352.778,963.889,127.778,N
826,-0.155,2.040,0.905,133.333,44.444,341.667,880.556,83.333,N
827,-0.195,2.045,0.805,141.667,44.444,372.222,980.556,100.000,N
828,-0.225,1.900,0.820,133.333,44.444,361.111,1219.444,238.889,N
829,-0.265,1.960,0.875,122.222,41.667,344.444,1075.000,144.444,N
830,-0.265,1.955,0.775,138.889,44.444,352.778,1047.222,27.778,N
831,-0.310,1.930,0.730,119.444,44.444,347.222,1111.111,63.889,N
832,-0.325,1.890,0.785,94.444,38.889,344.444,1091.667,19.444,N
833,-0.260,1.930,0.745,138.889,44.444,369.444,1094.444,2.778,N
834,-0.460,1.830,0.580,147.222,47.222,375.000,1194.444,100.000,N
835,-0.345,1.940,0.940,44.444,44.444,350.000,1158.333,36.111,N
836,0.010,2.135,1.005,122.222,44.444,355.556,1061.111,97.222,N
837,-0.190,2.010,0.845,130.556,41.667,352.778,947.222,113.889,N
838,-0.190,2.090,0.760,150.000,47.222,375.000,950.000,2.778,N
839,-0.140,2.120,0.895,138.889,47.222,372.222,1119.444,169.444,N
840,-0.165,2.140,0.850,147.222,44.444,361.111,1113.889,5.556,N
841,-0.215,2.010,0.845,133.333,44.444,347.222,1030.556,83.333,N
842,-0.170,2.055,0.875,127.778,38.889,327.778,944.444,86.111,N
843,-0.180,2.075,0.840,127.778,38.889,333.333,950.000,5.556,N
844,-0.215,1.970,0.710,130.556,44.444,372.222,1002.778,52.778,N
845,-0.270,1.940,0.955,141.667,47.222,366.667,1161.111,158.333,N
846,0.215,2.230,1.325,44.444,44.444,344.444,986.111,175.000,N
847,0.150,2.050,0.965,141.667,44.444,355.556,927.778,58.333,N
848,-0.355,1.575,0.505,133.333,41.667,341.667,1075.000,147.222,N
849,-0.475,1.230,0.485,36.111,38.889,297.222,1058.333,16.667,N
850,-0.510,1.380,0.515,44.444,50.000,377.778,986.111,72.222,N
851,-0.460,1.840,0.730,147.222,47.222,366.667,1102.778,116.667,N
852,-0.340,2.090,0.805,122.222,44.444,333.333,1141.667,38.889,N
853,-0.305,2.040,0.840,130.556,38.889,330.556,1022.222,119.444,N
854,-0.185,2.145,0.995,136.111,44.444,352.778,908.333,113.889,N
855,-0.220,2.210,0.830,122.222,30.556,311.111,986.111,77.778,N
856,-0.375,2.015,0.715,130.556,41.667,369.444,1058.333,72.222,N
857,-0.375,1.910,0.800,138.889,44.444,369.444,1005.556,52.778,N
858,-0.280,2.020,0.800,141.667,41.667,330.556,922.222,83.333,N
859,-0.275,2.055,0.815,136.111,47.222,369.444,977.778,55.556,N
860,-0.245,2.085,0.840,113.889,44.444,347.222,1008.333,30.556,N
861,-0.235,2.015,0.830,125.000,38.889,313.889,908.333,100.000,N
862,-0.320,2.100,0.810,150.000,47.222,375.000,994.444,86.111,N
863,-0.015,2.365,1.145,130.556,41.667,344.444,1113.889,119.444,N
864,-0.050,2.250,0.940,125.000,38.889,330.556,1041.667,72.222,N
865,-0.225,1.950,0.790,133.333,44.444,355.556,927.778,113.889,N
866,-0.305,1.970,0.785,136.111,44.444,352.778,952.778,25.000,N
867,-0.285,2.110,0.795,133.333,41.667,311.111,961.111,8.333,N
868,-0.295,2.005,0.810,138.889,44.444,372.222,938.889,22.222,N
869,-0.235,2.030,0.825,155.556,47.222,375.000,950.000,11.111,N
870,-0.200,2.155,0.845,141.667,44.444,358.333,983.333,33.333,N
871,-0.235,2.165,0.775,136.111,41.667,355.556,963.889,19.444,N
872,-0.290,1.990,0.835,130.556,41.667,338.889,1011.111,47.222,N
873,-0.140,2.140,0.935,136.111,44.444,338.889,872.222,138.889,N
874,-0.180,2.130,0.960,161.111,50.000,369.444,855.556,16.667,N
875,0.240,2.480,1.405,144.444,44.444,355.556,950.000,94.444,N
876,0.270,2.205,0.935,136.111,44.444,358.333,958.333,8.333,N
877,-0.275,1.715,0.565,133.333,38.889,350.000,900.000,58.333,N
878,-0.550,1.775,0.515,130.556,41.667,333.333,1025.000,125.000,N
879,-0.460,1.890,0.675,122.222,41.667,341.667,1041.667,16.667,N
880,-0.270,1.955,0.870,36.111,44.444,372.222,983.333,58.333,N
881,-0.160,2.175,0.845,144.444,52.778,380.556,1005.556,22.222,N
882,-0.170,2.260,0.940,47.222,41.667,363.889,1086.111,80.556,N
883,-0.155,2.265,0.960,138.889,41.667,361.111,1066.667,19.444,N
884,-0.135,2.195,0.940,133.333,41.667,341.667,1100.000,33.333,N
885,-0.175,2.000,0.925,125.000,38.889,327.778,961.111,138.889,N
886,-0.150,2.170,0.890,141.667,44.444,358.333,883.333,77.778,N
887,-0.175,2.145,0.905,138.889,44.444,369.444,1094.444,211.111,N
888,-0.205,2.100,0.880,125.000,50.000,372.222,1186.111,91.667,N
889,-0.225,2.020,0.885,130.556,41.667,344.444,1038.889,147.222,N
890,-0.215,2.175,0.910,130.556,41.667,344.444,1000.000,38.889,N
891,-0.210,2.165,0.860,133.333,41.667,305.556,1086.111,86.111,N
892,-0.365,1.970,0.735,141.667,41.667,347.222,1044.444,41.667,N
893,-0.325,1.980,0.820,141.667,47.222,372.222,977.778,66.667,N
894,-0.290,2.070,0.850,141.667,44.444,352.778,1038.889,61.111,N
895,-0.245,2.110,0.825,141.667,41.667,347.222,1083.333,44.444,N
896,-0.260,2.030,0.890,136.111,38.889,333.333,941.667,141.667,N
897,-0.195,2.130,0.940,136.111,44.444,305.556,866.667,75.000,N
898,-0.170,2.080,0.835,169.444,50.000,375.000,897.222,30.556,N
899,-0.215,2.060,0.875,147.222,50.000,361.111,1047.222,150.000,N
900,-0.190,1.945,0.890,150.000,44.444,344.444,900.000,147.222,N
901,-0.240,2.095,1.020,138.889,44.444,336.111,905.556,5.556,N
902,0.025,2.265,0.990,122.222,41.667,352.778,1180.556,275.000,N
903,-0.275,1.945,0.740,130.556,38.889,308.333,1122.222,58.333,N
904,-0.390,1.810,0.685,122.222,44.444,372.222,1011.111,111.111,N
905,-0.495,1.840,0.615,133.333,47.222,363.889,1161.111,150.000,N
906,-0.465,1.915,0.710,133.333,41.667,322.222,1069.444,91.667,N
907,-0.335,1.880,0.845,130.556,41.667,344.444,911.111,158.333,N
908,-0.230,2.100,0.880,133.333,41.667,336.111,852.778,58.333,N
909,-0.210,2.130,0.895,133.333,44.444,325.000,933.333,80.556,N
910,-0.230,2.010,0.835,136.111,44.444,372.222,1000.000,66.667,N
911,-0.210,2.030,0.895,125.000,44.444,352.778,988.889,11.111,N
912,-0.230,2.080,0.850,138.889,47.222,369.444,1030.556,41.667,N
913,-0.225,2.045,0.835,141.667,44.444,350.000,1055.556,25.000,N
914,-0.220,1.950,0.845,125.000,41.667,330.556,997.222,58.333,N
915,-0.210,2.070,0.895,136.111,38.889,294.444,900.000,97.222,N
916,-0.195,2.050,0.750,138.889,47.222,375.000,963.889,63.889,N
917,-0.285,2.070,0.820,141.667,41.667,363.889,1138.889,175.000,N
918,-0.265,2.000,0.825,133.333,44.444,336.111,1058.333,80.556,N
919,-0.170,1.990,0.850,144.444,41.667,363.889,905.556,152.778,N
920,-0.170,2.000,0.815,133.333,41.667,338.889,872.222,33.333,N
921,-0.215,2.045,0.790,138.889,41.667,336.111,908.333,36.111,N
922,-0.220,1.965,0.835,136.111,44.444,358.333,925.000,16.667,N
923,-0.180,2.005,0.830,155.556,50.000,361.111,955.556,30.556,N
924,-0.220,2.005,0.795,144.444,44.444,352.778,986.111,30.556,N
925,-0.300,1.955,0.715,141.667,41.667,344.444,969.444,16.667,N
926,-0.305,1.860,0.715,122.222,44.444,352.778,1061.111,91.667,N
927,-0.295,1.835,0.715,130.556,38.889,338.889,941.667,119.444,N
928,-0.355,1.875,0.660,116.667,41.667,358.333,933.333,8.333,N
929,-0.330,1.790,0.680,152.778,50.000,369.444,1136.111,202.778,N
930,-0.325,1.775,0.710,119.444,44.444,355.556,1100.000,36.111,N
931,-0.235,1.885,0.740,136.111,44.444,341.667,936.111,163.889,N
932,-0.270,1.865,0.670,133.333,41.667,325.000,911.111,25.000,N
933,-0.315,1.715,0.685,136.111,41.667,347.222,905.556,5.556,N
934,-0.335,1.730,0.660,127.778,41.667,358.333,938.889,33.333,N
935,-0.270,1.765,0.740,141.667,44.444,338.889,961.111,22.222,N
936,-0.250,1.820,0.745,141.667,41.667,361.111,952.778,8.333,N
937,-0.240,1.915,0.755,122.222,33.333,350.000,1011.111,58.333,N
938,-0.265,1.855,0.740,44.444,41.667,341.667,1108.333,97.222,N
939,-0.265,1.855,0.770,119.444,41.667,338.889,938.889,169.444,N
940,-0.280,1.830,0.745,136.111,44.444,352.778,886.111,52.778,N
941,-0.285,1.880,0.715,138.889,47.222,372.222,1100.000,213.889,N
942,-0.340,1.820,0.670,136.111,44.444,341.667,997.222,102.778,N
943,-0.300,1.650,0.685,127.778,36.111,311.111,838.889,158.333,N
944,-0.300,1.740,0.700,138.889,41.667,330.556,883.333,44.444,N
945,-0.330,1.865,0.670,141.667,38.889,344.444,1036.111,152.778,N
946,-0.330,1.840,0.655,88.889,33.333,336.111,1008.333,27.778,N
947,-0.315,1.875,0.725,133.333,41.667,361.111,961.111,47.222,N
948,-0.280,1.875,0.735,141.667,50.000,372.222,1127.778,166.667,N
949,-0.280,1.885,0.715,116.667,41.667,327.778,1072.222,55.556,N
950,-0.315,1.695,0.675,130.556,41.667,336.111,972.222,100.000,N
951,-0.265,1.390,0.620,127.778,38.889,325.000,858.333,113.889,N
952,-0.240,1.370,0.645,136.111,41.667,305.556,855.556,2.778,N
953,-0.290,1.690,0.615,141.667,41.667,372.222,1044.444,188.889,N
954,-0.405,1.725,0.635,136.111,44.444,355.556,1188.889,144.444,N
955,-0.285,1.850,0.750,138.889,44.444,352.778,1052.778,136.111,N
956,-0.265,1.965,0.690,127.778,41.667,344.444,1055.556,2.778,N
957,-0.460,1.800,0.595,122.222,41.667,333.333,1030.556,25.000,N
958,-0.355,1.785,0.715,119.444,41.667,338.889,908.333,122.222,N
959,-0.250,1.775,0.745,130.556,41.667,369.444,911.111,2.778,N
960,-0.195,1.850,0.775,141.667,41.667,341.667,913.889,2.778,N
961,-0.225,1.840,0.745,144.444,41.667,325.000,886.111,27.778,N
962,-0.305,1.835,0.715,138.889,44.444,355.556,858.333,27.778,N
963,-0.180,1.745,0.810,138.889,41.667,330.556,816.667,41.667,N
964,-0.110,1.850,0.780,141.667,44.444,336.111,750.000,66.667,N
965,-0.205,1.825,0.600,113.889,36.111,319.444,708.333,41.667,N
966,-0.400,1.700,0.520,158.333,50.000,372.222,827.778,119.444,N
967,-0.470,1.665,0.500,152.778,47.222,372.222,963.889,136.111,N
968,-0.395,1.770,0.590,150.000,44.444,325.000,1141.667,177.778,N
969,-0.320,1.820,0.660,116.667,41.667,325.000,1066.667,75.000,N
970,-0.275,1.880,0.705,133.333,44.444,358.333,1100.000,33.333,N
971,-0.240,1.985,0.760,119.444,41.667,372.222,1119.444,19.444,N
972,-0.170,1.980,0.870,150.000,47.222,369.444,1113.889,5.556,N
973,-0.130,2.035,0.865,138.889,44.444,352.778,1186.111,72.222,N
974,-0.145,2.155,0.875,119.444,44.444,361.111,1113.889,72.222,N
975,-0.205,2.040,0.770,130.556,38.889,344.444,1094.444,19.444,N
976,-0.250,2.020,0.840,113.889,38.889,308.333,986.111,108.333,N
977,-0.135,1.980,0.800,141.667,47.222,372.222,1091.667,105.556,N
978,-0.165,2.060,0.875,144.444,41.667,344.444,1122.222,30.556,N
979,-0.180,1.985,0.850,130.556,41.667,325.000,1033.333,88.889,N
980,-0.170,1.970,0.855,119.444,41.667,341.667,938.889,94.444,N
981,-0.125,1.885,0.845,133.333,44.444,352.778,883.333,55.556,N
982,-0.225,1.950,0.760,125.000,38.889,308.333,955.556,72.222,N
983,-0.230,1.910,0.640,144.444,44.444,366.667,1050.000,94.444,N
984,-0.420,1.795,0.605,144.444,47.222,369.444,1133.333,83.333,N
985,-0.265,1.955,0.830,127.778,41.667,330.556,1050.000,83.333,N
986,-0.115,2.035,0.845,138.889,44.444,333.333,980.556,69.444,N
987,-0.100,2.045,0.880,125.000,38.889,341.667,1083.333,102.778,N
988,-0.080,2.135,0.885,102.778,36.111,352.778,958.333,125.000,N
989,-0.160,1.885,0.805,133.333,44.444,375.000,986.111,27.778,N
990,-0.170,1.870,0.840,141.667,41.667,347.222,838.889,147.222,N
991,-0.165,1.865,0.765,144.444,41.667,358.333,786.111,52.778,N
992,-0.190,1.915,0.760,152.778,44.444,341.667,836.111,50.000,N
993,-0.155,2.050,0.770,136.111,41.667,322.222,952.778,116.667,N
994,-0.205,1.870,0.720,136.111,41.667,325.000,766.667,186.111,N
995,-0.210,1.820,0.725,144.444,41.667,280.556,741.667,25.000,N
996,-0.225,1.905,0.745,161.111,44.444,361.111,836.111,94.444,N
997,-0.125,2.085,0.830,130.556,41.667,358.333,1369.444,533.333,N
998,-0.115,2.000,0.880,102.778,41.667,352.778,1186.111,183.333,N
999,-0.065,2.065,0.945,133.333,44.444,341.667,1194.444,8.333,N
1000,-0.070,2.050,0.935,127.778,41.667,313.889,1161.111,33.333,N
1001,-0.145,2.015,0.790,147.222,47.222,375.000,1125.000,36.111,N
1002,-0.190,1.920,0.790,125.000,44.444,355.556,1205.556,80.556,N
1003,-0.230,1.885,0.785,125.000,38.889,316.667,1080.556,125.000,N
1004,-0.220,1.990,0.795,113.889,41.667,338.889,1091.667,11.111,N
1005,-0.260,1.930,0.740,138.889,41.667,361.111,1094.444,2.778,N
1006,-0.290,1.820,0.715,144.444,44.444,372.222,1100.000,5.556,N
1007,-0.310,1.890,0.740,133.333,41.667,358.333,1155.556,55.556,N
1008,-0.245,1.870,0.805,136.111,41.667,366.667,1075.000,80.556,N
1009,-0.235,1.960,0.740,141.667,41.667,358.333,1119.444,44.444,N
1010,-0.675,1.590,0.310,144.444,41.667,341.667,1100.000,19.444,N
1011,-0.455,1.810,0.765,33.333,44.444,325.000,1052.778,47.222,N
1012,-0.040,2.305,1.070,136.111,44.444,375.000,1055.556,2.778,N
1013,0.065,2.265,1.035,127.778,38.889,361.111,1172.222,116.667,N
1014,-0.180,2.160,0.870,122.222,38.889,336.111,1111.111,61.111,N
1015,-0.205,2.010,0.900,133.333,38.889,341.667,1025.000,86.111,N
1016,-0.140,1.970,0.895,138.889,38.889,330.556,944.444,80.556,N
1017,-0.130,2.095,0.930,108.333,36.111,338.889,902.778,41.667,N
1018,-0.140,1.975,0.715,147.222,47.222,372.222,1119.444,216.667,N
1019,-0.215,1.965,0.820,133.333,41.667,361.111,1133.333,13.889,N
1020,-0.225,1.860,0.800,119.444,41.667,352.778,919.444,213.889,N
1021,-0.505,1.720,0.500,144.444,44.444,330.556,1044.444,125.000,N
1022,-0.370,1.980,0.825,41.667,41.667,350.000,1127.778,83.333,N
1023,-0.070,2.190,1.015,47.222,41.667,372.222,1058.333,69.444,N
1024,-0.010,2.030,1.005,133.333,44.444,358.333,963.889,94.444,N
1025,-0.045,2.080,0.905,147.222,47.222,375.000,966.667,2.778,N
1026,-0.115,1.920,0.860,138.889,44.444,363.889,977.778,11.111,N
1027,-0.315,1.780,0.505,138.889,44.444,336.111,1047.222,69.444,N
1028,-0.445,1.805,0.700,133.333,41.667,325.000,977.778,69.444,N
1029,-0.185,2.020,0.815,44.444,47.222,372.222,975.000,2.778,N
1030,-0.105,2.030,0.890,138.889,47.222,375.000,1211.111,236.111,N
1031,-0.210,1.920,0.775,136.111,41.667,358.333,1091.667,119.444,N
1032,-0.250,1.695,0.750,150.000,41.667,358.333,986.111,105.556,N
1033,-0.250,1.845,0.760,136.111,47.222,338.889,986.111,0.000,N
1034,-0.280,1.710,0.685,125.000,38.889,311.111,1055.556,69.444,N
1035,-0.295,1.650,0.610,144.444,50.000,377.778,1066.667,11.111,N
1036,-0.310,1.695,0.735,136.111,44.444,369.444,1094.444,27.778,N
1037,-0.295,1.745,0.680,138.889,44.444,319.444,1069.444,25.000,N
1038,-0.340,1.730,0.670,125.000,44.444,361.111,1069.444,0.000,N
1039,-0.235,1.860,0.805,127.778,38.889,344.444,1100.000,30.556,N
1040,-0.230,1.795,0.740,97.222,38.889,358.333,983.333,116.667,N
1041,-0.345,1.685,0.575,147.222,44.444,372.222,1019.444,36.111,N
1042,-0.385,1.645,0.650,141.667,44.444,363.889,1094.444,75.000,N
1043,-0.360,1.670,0.615,119.444,44.444,355.556,1091.667,2.778,N
1044,-0.395,1.615,0.570,116.667,41.667,338.889,1033.333,58.333,N
1045,-0.405,1.705,0.630,133.333,44.444,358.333,980.556,52.778,N
1046,-0.370,1.735,0.595,138.889,47.222,375.000,1005.556,25.000,N
1047,-0.340,1.705,0.635,147.222,44.444,366.667,1094.444,88.889,N
1048,-0.335,1.695,0.680,138.889,44.444,355.556,1005.556,88.889,N
1049,-0.300,1.765,0.695,138.889,44.444,355.556,913.889,91.667,N
1050,-0.230,1.725,0.710,133.333,44.444,338.889,1097.222,183.333,N
1051,-0.210,1.325,0.590,33.333,38.889,330.556,1063.889,33.333,N
1052,-0.315,1.335,0.490,52.778,47.222,375.000,972.222,91.667,N
1053,-0.355,1.720,0.625,144.444,44.444,372.222,1058.333,86.111,N
1054,-0.330,1.830,0.705,136.111,44.444,361.111,1038.889,19.444,N
1055,-0.295,1.835,0.720,138.889,41.667,338.889,1088.889,50.000,N
1056,-0.235,1.800,0.840,125.000,38.889,347.222,986.111,102.778,N
1057,-0.215,1.925,0.780,127.778,38.889,327.778,952.778,33.333,N
1058,-0.295,1.850,0.685,133.333,44.444,361.111,1036.111,83.333,N
1059,-0.345,1.750,0.580,141.667,50.000,377.778,1158.333,122.222,N
1060,-0.370,1.695,0.670,136.111,44.444,355.556,1027.778,130.556,N
1061,-0.325,1.775,0.660,130.556,41.667,350.000,858.333,169.444,N
1062,-0.340,1.820,0.655,138.889,41.667,336.111,994.444,136.111,N
1063,-0.330,1.785,0.680,136.111,38.889,316.667,1030.556,36.111,N
1064,-0.275,1.805,0.725,125.000,38.889,361.111,1022.222,8.333,N
1065,-0.260,1.865,0.675,125.000,41.667,352.778,1100.000,77.778,N
1066,-0.270,1.845,0.690,141.667,47.222,352.778,1083.333,16.667,N
1067,-0.290,1.735,0.690,130.556,44.444,358.333,1022.222,61.111,N
1068,-0.295,1.780,0.700,122.222,41.667,338.889,869.444,152.778,N
1069,-0.290,1.845,0.675,138.889,44.444,319.444,922.222,52.778,N
1070,-0.355,1.850,0.635,144.444,50.000,375.000,986.111,63.889,N
1071,-0.325,1.740,0.650,127.778,41.667,347.222,1150.000,163.889,N
1072,-0.320,1.880,0.685,136.111,41.667,336.111,975.000,175.000,N
1073,-0.315,1.870,0.730,138.889,38.889,358.333,1025.000,50.000,N
1074,-0.275,1.955,0.755,125.000,44.444,352.778,1097.222,72.222,N
1075,-0.300,1.880,0.750,94.444,33.333,325.000,1002.778,94.444,N
1076,-0.275,1.765,0.745,150.000,47.222,372.222,988.889,13.889,N
1077,-0.240,1.990,0.825,150.000,44.444,358.333,1050.000,61.111,N
1078,-0.240,2.035,0.820,44.444,41.667,327.778,1061.111,11.111,N
1079,-0.210,1.920,0.850,138.889,41.667,333.333,944.444,116.667,N
1080,-0.185,1.885,0.845,127.778,44.444,352.778,847.222,97.222,N
1081,-0.180,2.060,0.820,138.889,44.444,305.556,966.667,119.444,N
1082,-0.205,1.970,0.805,144.444,44.444,358.333,1088.889,122.222,N
1083,-0.205,1.960,0.815,130.556,41.667,369.444,1119.444,30.556,N
1084,-0.195,2.060,0.860,119.444,44.444,352.778,1008.333,111.111,N
1085,-0.190,2.040,0.820,138.889,44.444,352.778,1030.556,22.222,N
1086,-0.230,1.865,0.765,108.333,41.667,341.667,1022.222,8.333,N
1087,-0.235,1.965,0.840,94.444,36.111,341.667,902.778,119.444,N
1088,-0.200,2.000,0.830,155.556,50.000,375.000,1063.889,161.111,N
1089,-0.170,2.070,0.850,136.111,41.667,338.889,1127.778,63.889,N
1090,-0.160,2.035,0.865,113.889,36.111,355.556,1044.444,83.333,N
1091,-0.165,2.025,0.890,130.556,44.444,355.556,983.333,61.111,N
1092,-0.170,2.005,0.860,122.222,47.222,341.667,1055.556,72.222,N
1093,-0.190,2.040,0.860,130.556,44.444,352.778,1008.333,47.222,N
1094,-0.185,1.990,0.845,136.111,44.444,375.000,1072.222,63.889,N
1095,-0.170,2.010,0.860,136.111,44.444,355.556,1033.333,38.889,N
1096,-0.220,2.035,0.825,133.333,38.889,344.444,1033.333,0.000,N
1097,-0.225,1.880,0.810,130.556,41.667,347.222,1058.333,25.000,N
1098,-0.260,1.945,0.815,138.889,41.667,344.444,983.333,75.000,N
1099,-0.175,2.055,0.870,150.000,47.222,375.000,875.000,108.333,N
1100,-0.220,2.010,0.795,155.556,47.222,358.333,1036.111,161.111,N
1101,-0.210,1.985,0.815,141.667,41.667,366.667,1136.111,100.000,N
1102,-0.215,2.040,0.845,130.556,41.667,347.222,1136.111,0.000,N
1103,-0.255,2.025,0.800,119.444,41.667,352.778,1058.333,77.778,N
1104,-0.225,2.085,0.840,116.667,41.667,294.444,1083.333,25.000,N
1105,-0.180,2.020,0.720,122.222,47.222,375.000,1086.111,2.778,N
1106,-0.180,2.025,0.845,116.667,44.444,361.111,1161.111,75.000,N
1107,-0.215,1.940,0.785,111.111,38.889,341.667,1111.111,50.000,N
1108,-0.285,1.835,0.695,125.000,44.444,350.000,1113.889,2.778,N
1109,-0.310,1.845,0.770,133.333,41.667,336.111,977.778,136.111,N
1110,-0.330,1.915,0.740,111.111,38.889,363.889,958.333,19.444,N
1111,-0.290,1.880,0.710,138.889,47.222,375.000,1141.667,183.333,N
1112,-0.280,1.890,0.775,144.444,44.444,366.667,1025.000,116.667,N
1113,-0.315,1.935,0.760,122.222,44.444,355.556,1008.333,16.667,N
1114,-0.335,1.905,0.720,133.333,38.889,347.222,969.444,38.889,N
1115,-0.325,1.720,0.715,141.667,41.667,344.444,952.778,16.667,N
1116,-0.290,1.865,0.750,125.000,44.444,358.333,819.444,133.333,N
1117,-0.275,1.955,0.750,144.444,41.667,363.889,1013.889,194.444,N
1118,-0.255,1.975,0.720,136.111,44.444,366.667,1094.444,80.556,N
1119,-0.265,1.890,0.740,122.222,38.889,366.667,1016.667,77.778,N
1120,-0.280,1.950,0.675,138.889,41.667,347.222,916.667,100.000,N
1121,-0.350,1.790,0.640,130.556,44.444,344.444,944.444,27.778,N
1122,-0.390,1.915,0.625,108.333,38.889,369.444,938.889,5.556,N
1123,-0.340,1.795,0.630,150.000,47.222,375.000,930.556,8.333,N
1124,-0.310,1.820,0.715,144.444,41.667,358.333,875.000,55.556,N
1125,-0.295,1.910,0.705,147.222,44.444,361.111,850.000,25.000,N
1126,-0.275,1.890,0.695,138.889,47.222,358.333,841.667,8.333,N
1127,-0.305,1.815,0.610,144.444,41.667,344.444,858.333,16.667,N
1128,-0.360,1.920,0.700,141.667,38.889,341.667,783.333,75.000,N
1129,-0.295,2.025,0.725,100.000,36.111,319.444,819.444,36.111,N
1130,-0.225,2.020,0.650,147.222,44.444,372.222,950.000,130.556,N
1131,-0.280,2.075,0.800,147.222,47.222,361.111,1050.000,100.000,N
1132,-0.165,1.985,0.895,138.889,41.667,330.556,905.556,144.444,N
1133,-0.100,2.145,0.855,150.000,41.667,344.444,861.111,44.444,N
1134,-0.150,2.100,0.840,144.444,44.444,344.444,930.556,69.444,N
1135,-0.170,2.105,0.815,136.111,44.444,313.889,988.889,58.333,N
1136,-0.210,1.880,0.805,147.222,47.222,344.444,850.000,138.889,N
1137,-0.190,1.975,0.805,144.444,50.000,369.444,875.000,25.000,N
1138,-0.350,1.800,0.530,150.000,44.444,361.111,905.556,30.556,N
1139,-0.465,1.915,0.610,133.333,38.889,341.667,916.667,11.111,N
1140,-0.345,1.855,0.790,147.222,41.667,327.778,813.889,102.778,N
1141,-0.190,2.045,0.850,138.889,44.444,333.333,808.333,5.556,N
1142,-0.175,2.050,0.845,138.889,47.222,302.778,900.000,91.667,N
1143,-0.260,2.025,0.685,130.556,44.444,347.222,1058.333,158.333,N
1144,-0.315,1.985,0.770,138.889,41.667,344.444,1077.778,19.444,N
1145,-0.125,2.125,0.895,136.111,47.222,341.667,1111.111,33.333,N
1146,-0.125,2.190,0.925,130.556,41.667,347.222,1077.778,33.333,N
1147,-0.145,2.165,0.900,116.667,44.444,341.667,986.111,91.667,N
1148,-0.170,2.085,0.835,119.444,38.889,336.111,1055.556,69.444,N
1149,-0.170,2.025,0.770,147.222,44.444,372.222,1172.222,116.667,N
1150,-0.310,1.865,0.695,122.222,44.444,366.667,1044.444,127.778,N
1151,-0.365,1.840,0.735,133.333,44.444,355.556,1011.111,33.333,N
1152,-0.265,1.790,0.790,133.333,44.444,341.667,1100.000,88.889,N
1153,-0.220,1.445,0.730,44.444,41.667,327.778,994.444,105.556,N
1154,-0.220,1.520,0.690,138.889,47.222,361.111,1008.333,13.889,N
1155,-0.230,1.955,0.830,122.222,47.222,372.222,1133.333,125.000,N
1156,-0.230,1.840,0.805,144.444,41.667,363.889,1055.556,77.778,N
1157,-0.220,1.985,0.865,138.889,41.667,350.000,980.556,75.000,N
1158,-0.230,1.995,0.825,130.556,38.889,344.444,1036.111,55.556,N
1159,-0.225,1.955,0.825,122.222,41.667,316.667,1030.556,5.556,N
1160,-0.155,2.040,0.850,147.222,41.667,347.222,905.556,125.000,N
1161,-0.215,1.960,0.850,127.778,41.667,361.111,1013.889,108.333,N
1162,-0.180,2.040,0.775,130.556,41.667,347.222,1202.778,188.889,N
1163,-0.225,2.035,0.840,138.889,44.444,350.000,1130.556,72.222,N
1164,-0.200,2.100,0.855,130.556,41.667,338.889,1105.556,25.000,N
1165,-0.230,1.970,0.840,108.333,44.444,369.444,1044.444,61.111,N
1166,-0.230,2.040,0.775,138.889,47.222,375.000,1194.444,150.000,N
1167,-0.210,1.930,0.870,133.333,44.444,361.111,1161.111,33.333,N
1168,-0.200,2.060,0.835,141.667,41.667,344.444,1077.778,83.333,N
1169,-0.305,1.970,0.725,125.000,41.667,350.000,1130.556,52.778,N
1170,-0.310,1.830,0.805,122.222,41.667,313.889,1130.556,0.000,N
1171,-0.285,2.095,0.815,150.000,41.667,372.222,1094.444,36.111,N
1172,-0.290,1.895,0.735,127.778,41.667,358.333,1244.444,150.000,N
1173,-0.350,1.990,0.750,113.889,38.889,327.778,1086.111,158.333,N
1174,-0.385,1.930,0.720,122.222,41.667,352.778,1008.333,77.778,N
1175,-0.385,1.920,0.745,138.889,44.444,355.556,1100.000,91.667,N
1176,-0.370,1.865,0.785,150.000,50.000,372.222,1097.222,2.778,N
1177,-0.365,1.910,0.725,127.778,44.444,355.556,1094.444,2.778,N
1178,-0.300,2.075,0.805,127.778,41.667,372.222,1083.333,11.111,N
1179,-0.275,1.935,0.850,125.000,41.667,347.222,1027.778,55.556,N
1180,-0.285,2.075,0.825,130.556,41.667,327.778,958.333,69.444,N
1181,-0.295,2.145,0.820,133.333,41.667,333.333,1063.889,105.556,N
1182,-0.245,1.960,0.800,130.556,47.222,372.222,1083.333,19.444,N
1183,-0.230,2.140,0.890,150.000,41.667,347.222,1066.667,16.667,N
1184,-0.255,2.180,0.870,144.444,41.667,338.889,1013.889,52.778,N
1185,-0.235,2.020,0.850,133.333,44.444,361.111,1002.778,11.111,N
1186,-0.230,2.075,0.865,113.889,38.889,341.667,1030.556,27.778,N
1187,-0.230,2.185,0.855,127.778,38.889,308.333,1000.000,30.556,N
1188,-0.235,2.115,0.815,133.333,47.222,375.000,1119.444,119.444,N
1189,-0.245,2.080,0.915,133.333,41.667,358.333,1033.333,86.111,N
1190,-0.150,2.180,0.910,133.333,41.667,327.778,997.222,36.111,N
1191,-0.170,2.230,0.890,133.333,41.667,338.889,936.111,61.111,N
1192,-0.275,2.040,0.750,136.111,41.667,352.778,933.333,2.778,N
1193,-0.270,2.055,0.885,141.667,41.667,300.000,875.000,58.333,N
1194,-0.200,2.230,0.895,147.222,41.667,341.667,988.889,113.889,N
1195,-0.130,2.165,0.925,141.667,44.444,366.667,1197.222,208.333,N
1196,-0.155,2.090,1.010,111.111,41.667,327.778,1116.667,80.556,N
1197,-0.125,2.240,0.990,122.222,41.667,333.333,1030.556,86.111,N
1198,-0.120,2.180,0.930,133.333,41.667,341.667,1008.333,22.222,N
1199,-0.125,2.035,0.955,108.333,38.889,344.444,888.889,119.444,N
1200,-0.135,2.180,0.870,138.889,44.444,369.444,897.222,8.333,N
1201,-0.225,2.020,0.735,141.667,47.222,350.000,936.111,38.889,N
1202,-0.270,1.965,0.760,127.778,41.667,347.222,952.778,16.667,N
1203,-0.240,1.880,0.760,136.111,41.667,352.778,825.000,127.778,N
1204,-0.215,2.020,0.745,138.889,41.667,350.000,838.889,13.889,N
1205,-0.260,2.075,0.710,130.556,38.889,327.778,905.556,66.667,N
1206,-0.285,2.005,0.720,136.111,44.444,355.556,955.556,50.000,N
1207,-0.270,1.965,0.655,152.778,47.222,375.000,986.111,30.556,N
1208,-0.245,2.080,0.760,133.333,41.667,355.556,927.778,58.333,N
1209,-0.285,1.965,0.635,127.778,36.111,327.778,927.778,0.000,N
1210,-0.365,1.985,0.665,141.667,44.444,352.778,930.556,2.778,N
1211,-0.330,1.800,0.705,138.889,41.667,350.000,886.111,44.444,N
1212,-0.210,1.985,0.790,136.111,44.444,305.556,827.778,58.333,N
1213,-0.170,2.065,0.755,147.222,47.222,375.000,880.556,52.778,N
1214,-0.210,2.125,0.815,144.444,41.667,358.333,980.556,100.000,N
1215,-0.170,1.930,0.775,144.444,44.444,361.111,863.889,116.667,N
1216,-0.210,1.810,0.815,127.778,38.889,344.444,763.889,100.000,N
1217,-0.190,1.945,0.730,138.889,38.889,327.778,763.889,0.000,N
1218,-0.240,1.960,0.665,133.333,41.667,327.778,791.667,27.778,N
1219,-0.265,2.060,0.700,113.889,36.111,322.222,1130.556,338.889,N
1220,-0.260,1.790,0.730,127.778,44.444,352.778,1144.444,13.889,N
1221,-0.215,2.005,0.765,138.889,41.667,350.000,1050.000,94.444,N
1222,-0.255,1.940,0.745,119.444,38.889,352.778,1044.444,5.556,N
1223,-0.260,1.810,0.730,127.778,41.667,347.222,1019.444,25.000,N
1224,-0.230,1.545,0.715,125.000,44.444,336.111,902.778,116.667,N
1225,-0.230,1.670,0.720,125.000,38.889,313.889,800.000,102.778,N
1226,-0.270,1.815,0.625,141.667,47.222,375.000,900.000,100.000,N
1227,-0.270,1.970,0.730,138.889,50.000,355.556,1200.000,300.000,N
1228,-0.255,1.855,0.730,127.778,38.889,322.222,1072.222,127.778,N
1229,-0.235,1.785,0.745,136.111,44.444,344.444,841.667,230.556,N
1230,-0.325,1.845,0.575,138.889,41.667,333.333,836.111,5.556,N
1231,-0.425,1.925,0.710,138.889,44.444,308.333,933.333,97.222,N
1232,-0.185,2.090,0.870,38.889,41.667,366.667,1033.333,100.000,N
1233,-0.190,1.980,0.855,136.111,44.444,363.889,1125.000,91.667,N
1234,-0.120,2.080,0.950,130.556,41.667,347.222,1013.889,111.111,N
1235,-0.155,2.115,0.885,133.333,44.444,341.667,936.111,77.778,N
1236,-0.200,1.920,0.810,138.889,47.222,355.556,1038.889,102.778,N
1237,-0.235,1.830,0.815,122.222,38.889,297.222,1019.444,19.444,N
1238,-0.150,1.880,0.880,141.667,44.444,347.222,852.778,166.667,N
1239,-0.170,1.905,0.775,155.556,47.222,347.222,880.556,27.778,N
1240,-0.210,1.945,0.785,144.444,41.667,344.444,955.556,75.000,N
1241,-0.185,2.050,0.840,138.889,41.667,352.778,991.667,36.111,N
1242,-0.190,1.920,0.815,119.444,41.667,336.111,1013.889,22.222,N
1243,0.815,1.900,0.630,172.222,94.444,338.889,486.111,527.778,a
1244,-0.240,1.960,0.585,100.000,36.111,338.889,944.444,458.333,N
1245,-0.275,2.000,0.700,152.778,47.222,361.111,1019.444,75.000,N
1246,-0.275,1.880,0.710,136.111,44.444,338.889,1013.889,5.556,N
1247,-0.245,1.845,0.745,130.556,41.667,322.222,897.222,116.667,N
1248,-0.225,1.920,0.745,133.333,44.444,338.889,888.889,8.333,N
1249,-0.225,1.970,0.760,138.889,44.444,352.778,969.444,80.556,N
1250,-0.250,1.870,0.755,122.222,38.889,313.889,916.667,52.778,N
1251,-0.205,1.895,0.800,136.111,38.889,347.222,819.444,97.222,N
1252,-0.185,2.030,0.745,150.000,44.444,369.444,908.333,88.889,N
1253,-0.225,1.910,0.745,136.111,44.444,352.778,955.556,47.222,N
1254,-0.225,1.850,0.745,127.778,41.667,347.222,988.889,33.333,N
1255,-0.225,1.815,0.775,130.556,41.667,341.667,936.111,52.778,N
1256,-0.200,1.500,0.665,138.889,44.444,350.000,944.444,8.333,N
1257,-0.225,1.470,0.680,47.222,47.222,361.111,1005.556,61.111,N
1258,-0.245,1.700,0.755,122.222,47.222,344.444,1108.333,102.778,N
1259,-0.245,1.945,0.800,141.667,41.667,363.889,972.222,136.111,N
1260,-0.250,1.980,0.760,122.222,41.667,338.889,1011.111,38.889,N
1261,-0.250,2.070,0.805,111.111,38.889,330.556,1091.667,80.556,N
1262,-0.150,2.065,0.885,116.667,41.667,341.667,1066.667,25.000,N
1263,-0.145,2.065,0.840,150.000,47.222,361.111,1005.556,61.111,N
1264,-0.205,1.990,0.790,127.778,44.444,350.000,1208.333,202.778,N
1265,-0.285,1.900,0.760,111.111,41.667,333.333,1116.667,91.667,N
1266,-0.305,1.840,0.740,122.222,44.444,369.444,1011.111,105.556,N
1267,-0.290,1.910,0.730,133.333,44.444,338.889,1063.889,52.778,N
1268,-0.325,1.835,0.715,94.444,33.333,319.444,1061.111,2.778,N
1269,-0.330,1.890,0.770,125.000,41.667,350.000,1077.778,16.667,N
1270,-0.255,2.035,0.815,133.333,44.444,372.222,1158.333,80.556,N
1271,-0.235,1.935,0.815,105.556,44.444,352.778,1091.667,66.667,N
1272,-0.205,1.980,0.870,130.556,41.667,344.444,988.889,102.778,N
1273,-0.195,2.180,0.915,136.111,41.667,338.889,1072.222,83.333,N
1274,-0.190,2.095,0.905,122.222,44.444,352.778,1075.000,2.778,N
1275,-0.160,2.105,0.925,44.444,41.667,358.333,1052.778,22.222,N
1276,-0.170,2.085,0.890,119.444,44.444,372.222,1122.222,69.444,N
1277,-0.205,2.055,0.880,119.444,47.222,355.556,1119.444,2.778,N
1278,-0.210,1.985,0.865,133.333,41.667,327.778,963.889,155.556,N
1279,-0.190,2.095,0.840,127.778,41.667,338.889,863.889,100.000,N
1280,-0.200,2.100,0.860,155.556,50.000,377.778,1091.667,227.778,N
1281,-0.205,2.160,0.855,136.111,41.667,341.667,1230.556,138.889,N
1282,-0.250,2.070,0.870,133.333,41.667,341.667,1013.889,216.667,N
1283,-0.190,1.965,0.865,130.556,41.667,355.556,847.222,166.667,N
1284,-0.210,2.170,0.855,144.444,41.667,347.222,950.000,102.778,N
1285,-0.270,2.145,0.840,136.111,44.444,319.444,1008.333,58.333,N
1286,-0.225,1.995,0.835,125.000,47.222,375.000,1019.444,11.111,N
1287,-0.210,2.125,0.900,158.333,50.000,372.222,1033.333,13.889,N
1288,-0.260,2.115,0.845,138.889,47.222,341.667,1047.222,13.889,N
1289,-0.250,2.150,0.865,122.222,41.667,350.000,1052.778,5.556,N
1290,-0.240,1.965,0.850,125.000,38.889,330.556,950.000,102.778,N
1291,-0.245,1.975,0.805,138.889,41.667,322.222,897.222,52.778,N
1292,-0.285,2.015,0.775,136.111,47.222,372.222,963.889,66.667,N
1293,-0.315,1.905,0.715,119.444,44.444,355.556,1050.000,86.111,N
1294,-0.300,1.990,0.740,147.222,41.667,358.333,977.778,72.222,N
1295,-0.310,2.065,0.760,136.111,41.667,355.556,1019.444,41.667,N
1296,-0.285,2.005,0.780,127.778,41.667,327.778,1041.667,22.222,N
1297,-0.280,1.950,0.835,130.556,41.667,302.778,958.333,83.333,N
1298,-0.210,2.140,0.845,138.889,41.667,369.444,850.000,108.333,N
1299,-0.255,2.030,0.785,141.667,41.667,347.222,1025.000,175.000,N
1300,-0.295,1.925,0.765,136.111,44.444,352.778,1041.667,16.667,N
1301,-0.325,1.995,0.795,133.333,41.667,355.556,933.333,108.333,N
1302,-0.265,2.135,0.820,136.111,44.444,336.111,902.778,30.556,N
1303,-0.280,2.145,0.795,130.556,38.889,336.111,963.889,61.111,N
1304,-0.290,2.025,0.780,125.000,50.000,366.667,1055.556,91.667,N
1305,-0.280,2.025,0.830,136.111,44.444,355.556,1094.444,38.889,N
1306,-0.220,2.180,0.860,136.111,41.667,344.444,1030.556,63.889,N
1307,-0.210,2.110,0.880,116.667,44.444,341.667,1016.667,13.889,N
1308,-0.195,2.175,0.890,136.111,44.444,355.556,1036.111,19.444,N
1309,-0.190,2.030,0.970,127.778,41.667,338.889,975.000,61.111,N
1310,0.970,1.875,0.735,155.556,77.778,344.444,472.222,502.778,a
1311,-0.230,2.105,0.715,47.222,44.444,372.222,1097.222,625.000,N
1312,-0.180,2.090,0.810,141.667,41.667,361.111,1163.889,66.667,N
1313,-0.210,2.085,0.895,147.222,44.444,344.444,1038.889,125.000,N
1314,-0.125,2.180,0.890,136.111,41.667,319.444,936.111,102.778,N
1315,-0.115,2.285,0.960,136.111,41.667,352.778,1066.667,130.556,N
1316,-0.140,2.040,0.915,125.000,41.667,366.667,1041.667,25.000,N
1317,-0.150,2.225,0.965,130.556,41.667,358.333,986.111,55.556,N
1318,-0.140,2.155,0.955,141.667,47.222,369.444,1044.444,58.333,N
1319,-0.120,2.205,0.990,144.444,44.444,347.222,936.111,108.333,N
1320,-0.110,2.115,0.915,138.889,41.667,333.333,947.222,11.111,N
1321,-0.145,2.055,0.895,136.111,41.667,333.333,847.222,100.000,N
1322,-0.175,2.115,0.820,111.111,38.889,347.222,838.889,8.333,N
1323,-0.170,2.135,0.855,163.889,47.222,375.000,1005.556,166.667,N
1324,-0.200,1.990,0.840,144.444,44.444,344.444,1013.889,8.333,N
1325,-0.140,2.020,0.880,136.111,44.444,311.111,869.444,144.444,N
1326,-0.130,2.135,0.850,138.889,44.444,336.111,888.889,19.444,N
1327,-0.140,2.065,0.865,136.111,41.667,336.111,913.889,25.000,N
1328,-0.130,2.085,0.845,127.778,38.889,325.000,891.667,22.222,N
1329,-0.155,1.995,0.790,138.889,44.444,338.889,794.444,97.222,N
1330,-0.190,2.015,0.770,147.222,47.222,375.000,894.444,100.000,N
1331,-0.220,1.960,0.765,141.667,44.444,350.000,958.333,63.889,N
1332,-0.210,1.865,0.765,138.889,38.889,313.889,816.667,141.667,N
1333,-0.245,1.955,0.725,147.222,41.667,327.778,772.222,44.444,N
1334,-0.300,1.945,0.720,136.111,38.889,319.444,902.778,130.556,N
1335,-0.255,2.060,0.780,133.333,41.667,308.333,1066.667,163.889,N
1336,-0.245,1.865,0.775,122.222,44.444,369.444,1072.222,5.556,N
1337,-0.245,1.975,0.825,141.667,44.444,350.000,972.222,100.000,N
1338,-0.265,2.020,0.770,141.667,44.444,347.222,1083.333,111.111,N
1339,-0.300,1.945,0.695,133.333,44.444,338.889,1072.222,11.111,N
1340,-0.300,1.865,0.765,116.667,41.667,325.000,933.333,138.889,N
1341,-0.310,1.850,0.660,125.000,38.889,283.333,908.333,25.000,N
1342,-0.305,1.880,0.705,122.222,44.444,372.222,997.222,88.889,N
1343,-0.265,1.785,0.785,122.222,47.222,355.556,1069.444,72.222,N
1344,-0.240,1.885,0.785,136.111,44.444,325.000,927.778,141.667,N
1345,-0.265,1.895,0.735,133.333,44.444,361.111,997.222,69.444,N
1346,-0.280,1.860,0.750,127.778,41.667,336.111,1008.333,11.111,N
1347,-0.270,1.900,0.715,136.111,44.444,297.222,947.222,61.111,N
1348,-0.355,1.840,0.650,133.333,44.444,344.444,994.444,47.222,N
1349,-0.385,1.775,0.670,138.889,41.667,363.889,1061.111,66.667,N
1350,-0.355,1.925,0.705,130.556,41.667,330.556,986.111,75.000,N
1351,-0.285,1.805,0.730,130.556,41.667,327.778,933.333,52.778,N
1352,-0.250,1.910,0.775,130.556,38.889,341.667,950.000,16.667,N
1353,-0.190,1.850,0.805,125.000,38.889,322.222,894.444,55.556,N
1354,-0.160,2.045,0.815,133.333,41.667,341.667,875.000,19.444,N
1355,-0.195,1.990,0.780,130.556,44.444,372.222,1083.333,208.333,N
1356,-0.205,1.815,0.770,130.556,44.444,358.333,980.556,102.778,N
1357,-0.195,2.025,0.820,147.222,47.222,358.333,905.556,75.000,N
1358,-0.210,1.995,0.775,119.444,44.444,336.111,1036.111,130.556,N
1359,-0.240,1.535,0.650,41.667,44.444,336.111,988.889,47.222,N
1360,-0.200,1.520,0.700,152.778,50.000,361.111,911.111,77.778,N
1361,-0.225,1.740,0.770,127.778,41.667,341.667,1091.667,180.556,N
1362,-0.205,1.945,0.775,138.889,41.667,361.111,1097.222,5.556,N
1363,-0.200,1.900,0.810,136.111,44.444,355.556,994.444,102.778,N
1364,-0.195,2.005,0.810,125.000,44.444,347.222,972.222,22.222,N
1365,-0.205,1.995,0.770,136.111,44.444,336.111,991.667,19.444,N
1366,-0.255,1.790,0.750,130.556,44.444,361.111,930.556,61.111,N
1367,-0.255,1.905,0.745,161.111,47.222,350.000,1063.889,133.333,N
1368,-0.235,1.915,0.740,133.333,44.444,341.667,1069.444,5.556,N
1369,-0.240,1.800,0.710,130.556,41.667,341.667,1013.889,55.556,N
1370,-0.275,1.855,0.755,116.667,44.444,338.889,938.889,75.000,N
1371,-0.265,1.960,0.745,136.111,44.444,355.556,988.889,50.000,N
1372,-0.260,1.870,0.670,141.667,44.444,366.667,988.889,0.000,N
1373,-0.275,1.880,0.745,133.333,41.667,358.333,972.222,16.667,N
1374,-0.285,1.935,0.670,152.778,50.000,369.444,988.889,16.667,N
1375,-0.330,1.760,0.615,141.667,47.222,352.778,1000.000,11.111,N
1376,-0.330,1.780,0.680,133.333,44.444,338.889,994.444,5.556,N
1377,-0.320,1.905,0.655,122.222,38.889,319.444,1022.222,27.778,N
1378,-0.315,1.880,0.615,141.667,44.444,372.222,1038.889,16.667,N
1379,-0.285,1.705,0.715,136.111,44.444,358.333,1041.667,2.778,N
1380,-0.265,1.925,0.695,133.333,47.222,347.222,1013.889,27.778,N
1381,-0.280,1.930,0.695,130.556,41.667,358.333,1050.000,36.111,N
1382,-0.270,1.765,0.730,119.444,41.667,336.111,969.444,80.556,N
1383,-0.245,1.950,0.740,133.333,38.889,330.556,925.000,44.444,N
1384,-0.230,2.010,0.730,141.667,44.444,352.778,1011.111,86.111,N
1385,-0.185,1.860,0.790,122.222,44.444,366.667,1116.667,105.556,N
1386,-0.160,2.000,0.825,130.556,41.667,344.444,1022.222,94.444,N
1387,-0.130,2.105,0.885,130.556,44.444,341.667,1005.556,16.667,N
1388,-0.115,2.020,0.875,130.556,38.889,347.222,1044.444,38.889,N
1389,-0.105,2.095,0.885,127.778,38.889,325.000,933.333,111.111,N
1390,-0.115,2.025,0.880,147.222,47.222,372.222,972.222,38.889,N
1391,0.005,2.115,1.030,144.444,44.444,347.222,1077.778,105.556,N
1392,-0.020,2.045,0.870,136.111,44.444,341.667,1008.333,69.444,N
1393,-0.205,1.945,0.710,119.444,41.667,338.889,1050.000,41.667,N
1394,-0.280,1.890,0.735,130.556,41.667,327.778,961.111,88.889,N
1395,-0.220,1.995,0.810,122.222,44.444,333.333,1044.444,83.333,N
1396,-0.160,2.015,0.745,144.444,50.000,377.778,1102.778,58.333,N
1397,-0.150,2.070,0.865,136.111,44.444,358.333,1005.556,97.222,N
1398,-0.115,2.095,0.870,147.222,44.444,325.000,980.556,25.000,N
1399,-0.105,2.055,0.855,133.333,44.444,344.444,1019.444,38.889,N
1400,-0.140,2.025,0.840,125.000,38.889,333.333,955.556,63.889,N
1401,-0.115,2.050,0.860,125.000,38.889,297.222,836.111,119.444,N
1402,-0.155,2.085,0.770,133.333,47.222,375.000,975.000,138.889,N
1403,-0.195,2.035,0.760,138.889,41.667,355.556,1191.667,216.667,N
1404,-0.210,1.925,0.820,133.333,38.889,338.889,941.667,250.000,N
1405,-0.215,1.935,0.765,141.667,41.667,350.000,894.444,47.222,N
1406,-0.245,2.020,0.735,138.889,44.444,338.889,958.333,63.889,N
1407,-0.270,1.940,0.695,136.111,41.667,313.889,1000.000,41.667,N
1408,-0.230,1.820,0.720,141.667,47.222,352.778,805.556,194.444,N
1409,-0.275,1.980,0.685,147.222,47.222,361.111,875.000,69.444,N
1410,-0.290,1.920,0.670,147.222,47.222,369.444,941.667,66.667,N
1411,-0.300,1.890,0.640,130.556,38.889,341.667,922.222,19.444,N
1412,-0.290,1.815,0.680,136.111,44.444,336.111,838.889,83.333,N
1413,-0.300,1.980,0.640,138.889,41.667,325.000,950.000,111.111,N
1414,-0.285,1.850,0.650,94.444,33.333,338.889,958.333,8.333,N
1415,-0.240,1.895,0.725,130.556,41.667,361.111,988.889,30.556,N
1416,-0.175,1.955,0.755,138.889,41.667,344.444,977.778,11.111,N
1417,-0.175,1.990,0.750,161.111,44.444,330.556,986.111,8.333,N
1418,-0.130,1.925,0.785,133.333,38.889,338.889,902.778,83.333,N
1419,-0.140,1.990,0.750,127.778,38.889,325.000,844.444,58.333,N
1420,-0.195,2.000,0.740,136.111,47.222,336.111,961.111,116.667,N
1421,-0.215,1.840,0.705,144.444,44.444,366.667,905.556,55.556,N
1422,-0.230,1.930,0.670,155.556,50.000,358.333,1013.889,108.333,N
1423,-0.270,1.940,0.645,138.889,47.222,355.556,980.556,33.333,N
1424,-0.280,1.810,0.655,138.889,38.889,347.222,969.444,11.111,N
1425,-0.235,1.785,0.715,136.111,38.889,330.556,883.333,86.111,N
1426,-0.235,1.900,0.695,147.222,41.667,327.778,805.556,77.778,N
1427,-0.250,1.990,0.700,119.444,36.111,316.667,772.222,33.333,N
1428,-0.265,1.820,0.670,155.556,47.222,352.778,905.556,133.333,N
1429,-0.225,1.825,0.715,150.000,44.444,344.444,891.667,13.889,N
1430,-0.220,1.975,0.740,144.444,47.222,336.111,1011.111,119.444,N
1431,-0.195,1.920,0.730,130.556,41.667,327.778,1052.778,41.667,N
1432,-0.255,1.865,0.685,130.556,38.889,338.889,950.000,102.778,N
1433,-0.245,1.930,0.735,127.778,38.889,316.667,863.889,86.111,N
1434,-0.255,1.955,0.690,133.333,38.889,338.889,955.556,91.667,N
1435,-0.290,1.885,0.675,141.667,44.444,363.889,1097.222,141.667,N
1436,-0.275,1.730,0.730,144.444,41.667,347.222,983.333,113.889,N
1437,-0.215,1.970,0.740,141.667,47.222,352.778,900.000,83.333,N
1438,-0.205,1.975,0.735,136.111,44.444,336.111,911.111,11.111,N
1439,-0.205,1.900,0.745,136.111,44.444,338.889,880.556,30.556,N
1440,-0.180,1.835,0.775,130.556,41.667,369.444,777.778,102.778,N
1441,-0.155,2.025,0.760,152.778,47.222,375.000,905.556,127.778,N
1442,-0.125,2.035,0.810,141.667,44.444,352.778,938.889,33.333,N
1443,-0.155,2.005,0.805,138.889,44.444,322.222,961.111,22.222,N
1444,-0.125,1.860,0.800,141.667,44.444,344.444,811.111,150.000,N
1445,-0.150,2.000,0.805,144.444,41.667,330.556,783.333,27.778,N
1446,-0.120,1.945,0.770,138.889,44.444,336.111,727.778,55.556,N
1447,-0.130,1.910,0.705,119.444,30.556,286.111,680.556,47.222,N
1448,-0.175,1.755,0.725,155.556,47.222,355.556,669.444,11.111,N
1449,-0.160,1.825,0.675,172.222,50.000,358.333,766.667,97.222,N
1450,-0.200,1.975,0.745,141.667,44.444,336.111,1269.444,502.778,N
1451,-0.180,1.930,0.710,133.333,44.444,341.667,1075.000,194.444,N
1452,-0.175,1.940,0.815,122.222,41.667,336.111,938.889,136.111,N
1453,-0.160,2.100,0.830,125.000,44.444,319.444,1022.222,83.333,N
1454,-0.150,2.090,0.810,141.667,50.000,358.333,1097.222,75.000,N
1455,-0.170,1.925,0.815,125.000,38.889,358.333,1088.889,8.333,N
1456,-0.120,2.005,0.875,136.111,44.444,336.111,941.667,147.222,N
1457,-0.175,2.085,0.795,122.222,44.444,325.000,966.667,25.000,N
1458,-0.180,2.010,0.815,122.222,44.444,341.667,1000.000,33.333,N
1459,-0.180,1.890,0.790,127.778,44.444,311.111,1008.333,8.333,N
1460,-0.185,2.010,0.800,147.222,50.000,372.222,1100.000,91.667,N
1461,-0.180,2.000,0.815,136.111,41.667,338.889,1175.000,75.000,N
1462,-0.210,2.030,0.810,122.222,41.667,344.444,1086.111,88.889,N
1463,-0.215,2.040,0.760,130.556,41.667,330.556,1041.667,44.444,N
1464,-0.255,1.805,0.730,122.222,41.667,336.111,1027.778,13.889,N
1465,-0.245,1.405,0.655,133.333,44.444,344.444,1022.222,5.556,N
1466,-0.205,1.540,0.705,44.444,47.222,350.000,1000.000,22.222,N
1467,-0.225,1.795,0.770,122.222,41.667,347.222,1044.444,44.444,N
1468,-0.230,1.940,0.755,108.333,44.444,350.000,1050.000,5.556,N
1469,-0.240,1.900,0.760,122.222,44.444,350.000,1100.000,50.000,N
1470,-0.240,2.050,0.770,113.889,41.667,341.667,1008.333,91.667,N
1471,-0.290,1.945,0.700,144.444,50.000,366.667,994.444,13.889,N
1472,-0.290,1.900,0.745,144.444,41.667,347.222,1066.667,72.222,N
1473,-0.250,1.885,0.775,138.889,47.222,355.556,913.889,152.778,N
1474,-0.260,1.885,0.735,136.111,47.222,341.667,930.556,16.667,N
1475,-0.260,2.045,0.735,125.000,38.889,322.222,1033.333,102.778,N
1476,-0.240,1.905,0.770,122.222,44.444,336.111,1002.778,30.556,N
1477,-0.220,2.085,0.815,136.111,47.222,361.111,961.111,41.667,N
1478,-0.190,2.020,0.800,125.000,44.444,355.556,1172.222,211.111,N
1479,-0.220,1.940,0.775,125.000,44.444,358.333,1055.556,116.667,N
1480,-0.220,1.980,0.745,144.444,47.222,352.778,980.556,75.000,N
1481,-0.265,1.940,0.725,133.333,41.667,325.000,988.889,8.333,N
1482,-0.275,1.840,0.715,127.778,41.667,322.222,880.556,108.333,N
1483,-0.245,1.875,0.745,141.667,41.667,361.111,783.333,97.222,N
1484,-0.270,1.945,0.705,152.778,50.000,375.000,1008.333,225.000,N
1485,-0.290,1.945,0.695,119.444,44.444,341.667,1066.667,58.333,N
1486,-0.240,1.900,0.750,130.556,41.667,322.222,863.889,202.778,N
1487,-0.215,2.000,0.775,138.889,38.889,319.444,838.889,25.000,N
1488,-0.230,1.980,0.725,127.778,41.667,341.667,925.000,86.111,N
1489,-0.220,1.930,0.695,125.000,38.889,294.444,977.778,52.778,N
1490,-0.190,1.935,0.785,138.889,44.444,350.000,866.667,111.111,N
1491,-0.235,2.060,0.760,141.667,50.000,375.000,1002.778,136.111,N
1492,-0.225,1.990,0.755,133.333,44.444,341.667,1025.000,22.222,N
1493,-0.175,1.945,0.820,133.333,38.889,319.444,836.111,188.889,N
1494,-0.180,2.045,0.765,127.778,41.667,322.222,822.222,13.889,N
1495,-0.195,2.060,0.775,133.333,41.667,336.111,897.222,75.000,N
1496,-0.160,2.030,0.725,147.222,47.222,372.222,1075.000,177.778,N
1497,-0.150,2.080,0.845,147.222,44.444,355.556,1152.778,77.778,N
1498,-0.135,2.070,0.870,141.667,44.444,352.778,1111.111,41.667,N
1499,-0.075,2.120,0.910,130.556,44.444,341.667,1072.222,38.889,N
1500,-0.110,2.100,0.860,127.778,44.444,322.222,975.000,97.222,N
1501,-0.195,1.945,0.760,127.778,44.444,311.111,1011.111,36.111,N
1502,-0.210,2.060,0.755,147.222,50.000,375.000,1033.333,22.222,N
1503,-0.185,2.020,0.805,125.000,47.222,352.778,1141.667,108.333,N
1504,-0.230,1.860,0.775,127.778,41.667,325.000,1019.444,122.222,N
1505,-0.230,2.020,0.750,133.333,41.667,344.444,902.778,116.667,N
1506,-0.255,2.030,0.760,125.000,41.667,330.556,997.222,94.444,N
1507,-0.260,1.840,0.730,122.222,38.889,294.444,1013.889,16.667,N
1508,-0.255,1.995,0.745,150.000,47.222,375.000,1013.889,0.000,N
1509,-0.250,2.010,0.735,144.444,52.778,358.333,1105.556,91.667,N
1510,-0.235,1.830,0.800,141.667,44.444,327.778,980.556,125.000,N
1511,-0.170,2.070,0.845,136.111,41.667,338.889,844.444,136.111,N
1512,-0.175,2.110,0.815,141.667,44.444,338.889,908.333,63.889,N
1513,-0.195,2.065,0.800,127.778,41.667,319.444,986.111,77.778,N
1514,-0.170,1.865,0.850,147.222,44.444,355.556,872.222,113.889,N
1515,-0.175,2.100,0.825,155.556,47.222,338.889,941.667,69.444,N
1516,-0.155,2.165,0.840,130.556,44.444,358.333,1141.667,200.000,N
1517,-0.160,2.085,0.920,136.111,44.444,355.556,1102.778,38.889,N
1518,-0.105,2.250,0.895,133.333,41.667,336.111,1066.667,36.111,N
1519,-0.115,2.190,1.000,127.778,41.667,308.333,1061.111,5.556,N
1520,0.000,2.225,0.980,119.444,44.444,361.111,1072.222,11.111,N
1521,-0.120,2.075,0.850,141.667,44.444,350.000,1041.667,30.556,N
1522,-0.180,2.095,0.845,136.111,44.444,338.889,1013.889,27.778,N
1523,-0.235,1.965,0.795,144.444,41.667,344.444,925.000,88.889,N
1524,-0.255,2.035,0.745,136.111,44.444,341.667,875.000,50.000,N
1525,-0.270,2.015,0.685,127.778,41.667,322.222,855.556,19.444,N
1526,-0.245,1.965,0.745,141.667,41.667,358.333,819.444,36.111,N
1527,-0.195,2.030,0.830,155.556,47.222,375.000,891.667,72.222,N
1528,-0.180,2.145,0.835,144.444,44.444,358.333,922.222,30.556,N
1529,-0.205,2.015,0.765,119.444,36.111,347.222,941.667,19.444,N
1530,-0.240,1.910,0.735,133.333,44.444,338.889,863.889,77.778,N
1531,-0.260,2.080,0.755,141.667,47.222,341.667,908.333,44.444,N
1532,-0.260,2.115,0.775,113.889,36.111,322.222,1005.556,97.222,N
1533,-0.230,2.000,0.810,136.111,47.222,352.778,938.889,66.667,N
1534,-0.225,2.090,0.780,147.222,44.444,358.333,897.222,41.667,N
1535,-0.240,2.015,0.740,141.667,44.444,341.667,955.556,58.333,N
1536,-0.265,1.955,0.770,141.667,41.667,327.778,872.222,83.333,N
1537,-0.245,2.015,0.745,133.333,41.667,319.444,841.667,30.556,N
1538,-0.250,2.050,0.795,38.889,44.444,336.111,1105.556,263.889,N
1539,-0.190,2.015,0.800,141.667,47.222,375.000,1086.111,19.444,N
1540,-0.095,2.145,0.925,138.889,44.444,352.778,1044.444,41.667,N
1541,-0.165,2.005,0.775,138.889,44.444,352.778,1002.778,41.667,N
1542,-0.310,1.840,0.680,138.889,44.444,341.667,997.222,5.556,N
1543,-0.300,1.880,0.715,141.667,38.889,316.667,905.556,91.667,N
1544,-0.300,1.965,0.725,127.778,38.889,325.000,969.444,63.889,N
1545,-0.130,2.120,0.995,41.667,41.667,363.889,963.889,5.556,N
1546,0.020,1.995,0.935,136.111,41.667,358.333,908.333,55.556,N
1547,-0.160,1.920,0.645,130.556,41.667,344.444,913.889,5.556,N
1548,-0.370,1.725,0.570,111.111,36.111,325.000,830.556,83.333,N
1549,-0.480,1.695,0.515,136.111,44.444,341.667,908.333,77.778,N
1550,-0.460,1.525,0.545,130.556,38.889,316.667,836.111,72.222,N
1551,-0.370,1.880,0.610,125.000,41.667,283.333,902.778,66.667,N
1552,-0.335,1.925,0.660,138.889,47.222,375.000,1013.889,111.111,N
1553,-0.290,1.855,0.710,138.889,47.222,358.333,1083.333,69.444,N
1554,-0.245,1.930,0.780,150.000,47.222,330.556,963.889,119.444,N
1555,-0.265,2.020,0.745,136.111,41.667,341.667,936.111,27.778,N
1556,-0.260,1.990,0.735,127.778,38.889,341.667,925.000,11.111,N
1557,-0.245,1.990,0.775,138.889,41.667,313.889,911.111,13.889,N
1558,-0.170,1.925,0.770,150.000,47.222,369.444,783.333,127.778,N
1559,-0.225,1.960,0.745,144.444,44.444,361.111,872.222,88.889,N
1560,-0.235,2.030,0.735,147.222,47.222,350.000,886.111,13.889,N
1561,-0.250,1.975,0.675,133.333,41.667,338.889,886.111,0.000,N
1562,-0.275,1.920,0.695,144.444,41.667,341.667,869.444,16.667,N
1563,-0.270,1.940,0.775,133.333,41.667,325.000,766.667,102.778,N
1564,-0.270,1.975,0.735,130.556,41.667,319.444,766.667,0.000,N
1565,-0.320,1.970,0.615,138.889,47.222,375.000,1005.556,238.889,N
1566,-0.320,1.975,0.675,144.444,47.222,358.333,1169.444,163.889,N
1567,-0.335,1.820,0.700,138.889,44.444,338.889,947.222,222.222,N
1568,-0.310,1.960,0.735,141.667,47.222,336.111,819.444,127.778,N
1569,-0.305,1.900,0.715,136.111,44.444,338.889,825.000,5.556,N
1570,-0.275,2.005,0.700,147.222,44.444,330.556,930.556,105.556,N
1571,-0.310,1.690,0.625,116.667,41.667,347.222,833.333,97.222,N
1572,-0.305,1.355,0.595,147.222,44.444,358.333,852.778,19.444,N
1573,-0.305,1.475,0.640,147.222,58.333,363.889,1013.889,161.111,N
1574,-0.310,1.975,0.695,125.000,44.444,322.222,1077.778,63.889,N
1575,-0.320,2.000,0.710,136.111,41.667,322.222,997.222,80.556,N
1576,-0.280,1.915,0.765,130.556,41.667,311.111,830.556,166.667,N
1577,-0.275,1.925,0.700,144.444,41.667,308.333,811.111,19.444,N
1578,-0.325,1.985,0.655,155.556,44.444,338.889,894.444,83.333,N
1579,-0.395,1.855,0.630,138.889,47.222,344.444,1047.222,152.778,N
1580,-0.375,1.750,0.640,147.222,44.444,355.556,897.222,150.000,N
1581,-0.360,1.850,0.705,141.667,44.444,333.333,844.444,52.778,N
1582,-0.350,2.020,0.700,144.444,38.889,313.889,1000.000,155.556,N
1583,-0.350,2.005,0.755,127.778,41.667,330.556,1013.889,13.889,N
1584,-0.350,1.945,0.705,130.556,44.444,361.111,972.222,41.667,N
1585,-0.385,1.870,0.735,152.778,47.222,372.222,991.667,19.444,N
1586,-0.330,1.980,0.705,141.667,41.667,350.000,988.889,2.778,N
1587,-0.400,1.995,0.745,111.111,38.889,344.444,933.333,55.556,N
1588,-0.150,2.020,0.870,136.111,44.444,352.778,908.333,25.000,N
1589,-0.155,1.835,0.710,130.556,38.889,322.222,797.222,111.111,N
1590,-0.325,1.835,0.575,133.333,41.667,291.667,769.444,27.778,N
1591,-0.485,1.665,0.450,141.667,44.444,350.000,791.667,22.222,N
1592,-0.550,1.810,0.495,138.889,41.667,352.778,1011.111,219.444,N
1593,-0.455,1.830,0.565,147.222,41.667,358.333,1044.444,33.333,N
1594,-0.435,1.870,0.650,136.111,41.667,341.667,902.778,141.667,N
1595,-0.385,1.930,0.655,133.333,41.667,327.778,919.444,16.667,N
1596,-0.400,1.940,0.670,133.333,44.444,341.667,980.556,61.111,N
1597,-0.375,2.005,0.650,150.000,44.444,372.222,1000.000,19.444,N
1598,-0.355,1.905,0.720,155.556,47.222,352.778,991.667,8.333,N
1599,-0.325,2.000,0.725,136.111,44.444,338.889,961.111,30.556,N
1600,-0.365,2.005,0.665,125.000,47.222,352.778,991.667,30.556,N
1601,-0.370,1.905,0.660,119.444,41.667,322.222,1011.111,19.444,N
1602,-0.375,1.835,0.715,122.222,38.889,322.222,866.667,144.444,N
1603,-0.305,2.045,0.690,102.778,38.889,352.778,850.000,16.667,N
1604,-0.305,2.005,0.675,144.444,47.222,363.889,1025.000,175.000,N
1605,-0.345,1.920,0.655,136.111,44.444,338.889,1005.556,19.444,N
1606,-0.305,1.950,0.720,136.111,38.889,319.444,905.556,100.000,N
1607,-0.295,1.975,0.700,136.111,44.444,338.889,880.556,25.000,N
1608,-0.345,1.895,0.650,136.111,44.444,344.444,980.556,100.000,N
1609,-0.365,1.965,0.630,133.333,38.889,297.222,1047.222,66.667,N
1610,-0.340,1.905,0.730,136.111,44.444,358.333,905.556,141.667,N
1611,-0.285,1.990,0.700,155.556,47.222,372.222,952.778,47.222,N
1612,-0.340,1.970,0.670,150.000,41.667,344.444,991.667,38.889,N
1613,-0.370,1.915,0.670,136.111,44.444,336.111,1022.222,30.556,N
1614,-0.355,1.925,0.705,125.000,38.889,330.556,1041.667,19.444,N
1615,-0.345,1.970,0.735,133.333,44.444,325.000,1008.333,33.333,N
1616,-0.200,2.080,0.980,133.333,47.222,375.000,1083.333,75.000,N
1617,-0.070,2.010,0.830,136.111,44.444,355.556,1138.889,55.556,N
1618,-0.330,1.785,0.610,136.111,41.667,333.333,1100.000,38.889,N
1619,-0.510,1.800,0.540,127.778,41.667,316.667,1005.556,94.444,N
1620,-0.520,1.780,0.550,119.444,44.444,352.778,1011.111,5.556,N
1621,-0.470,1.870,0.710,127.778,50.000,375.000,1002.778,8.333,N
1622,-0.305,1.915,0.795,158.333,50.000,372.222,1050.000,47.222,N
1623,-0.290,2.070,0.815,130.556,44.444,344.444,1072.222,22.222,N
1624,-0.260,2.095,0.945,44.444,44.444,361.111,1097.222,25.000,N
1625,0.080,2.265,1.075,122.222,41.667,333.333,1130.556,33.333,N
1626,-0.190,1.905,0.730,127.778,41.667,330.556,1052.778,77.778,N
1627,-0.265,2.035,0.860,130.556,41.667,344.444,1119.444,66.667,N
1628,-0.255,1.885,0.690,130.556,44.444,366.667,1166.667,47.222,N
1629,-0.525,1.755,0.505,113.889,41.667,325.000,1116.667,50.000,N
1630,-0.565,1.785,0.550,133.333,41.667,344.444,1086.111,30.556,N
1631,-0.300,2.040,0.875,127.778,41.667,330.556,1080.556,5.556,N
1632,-0.255,2.015,0.710,108.333,38.889,333.333,994.444,86.111,N
1633,-0.495,1.810,0.575,141.667,47.222,372.222,1150.000,155.556,N
1634,-0.455,1.975,0.685,127.778,47.222,369.444,1119.444,30.556,N
1635,-0.450,2.020,0.685,130.556,44.444,344.444,1086.111,33.333,N
1636,-0.435,2.000,0.700,130.556,41.667,325.000,1052.778,33.333,N
1637,-0.360,2.090,0.800,130.556,44.444,347.222,966.667,86.111,N
1638,-0.305,2.195,0.795,119.444,47.222,375.000,1019.444,52.778,N
1639,-0.255,2.170,0.865,136.111,44.444,355.556,1150.000,130.556,N
1640,-0.225,2.205,0.915,127.778,41.667,333.333,1025.000,125.000,N
1641,-0.205,2.240,0.890,122.222,47.222,355.556,997.222,27.778,N
1642,-0.205,2.200,0.875,127.778,38.889,333.333,1119.444,122.222,N
1643,-0.210,2.130,0.885,119.444,41.667,302.778,1008.333,111.111,N
1644,-0.150,2.095,0.790,152.778,50.000,375.000,902.778,105.556,N
1645,-0.205,2.130,0.830,138.889,47.222,369.444,1002.778,100.000,N
1646,-0.255,2.125,0.785,147.222,41.667,338.889,1058.333,55.556,N
1647,-0.210,2.020,0.900,133.333,38.889,325.000,916.667,141.667,N
1648,-0.055,2.225,1.160,136.111,44.444,327.778,805.556,111.111,N
1649,0.165,2.195,1.080,138.889,41.667,327.778,855.556,50.000,N
1650,-0.135,2.100,0.760,119.444,41.667,341.667,1091.667,236.111,N
1651,-0.355,1.835,0.660,130.556,44.444,372.222,1113.889,22.222,N
1652,-0.300,1.980,0.770,133.333,44.444,358.333,969.444,144.444,N
1653,-0.325,1.990,0.755,119.444,41.667,347.222,991.667,22.222,N
1654,-0.240,2.050,0.795,136.111,44.444,330.556,1091.667,100.000,N
1655,-0.245,1.990,0.825,122.222,38.889,333.333,1005.556,86.111,N
1656,-0.185,2.070,0.785,130.556,41.667,358.333,961.111,44.444,N
1657,-0.345,1.875,0.645,130.556,44.444,347.222,1047.222,86.111,N
1658,-0.350,1.785,0.700,144.444,47.222,363.889,1000.000,47.222,N
1659,-0.260,1.915,0.770,133.333,41.667,341.667,902.778,97.222,N
1660,-0.255,2.070,0.785,130.556,38.889,325.000,897.222,5.556,N
1661,-0.250,2.120,0.755,130.556,41.667,344.444,966.667,69.444,N
1662,-0.280,1.900,0.770,138.889,47.222,372.222,908.333,58.333,N
1663,-0.235,2.015,0.765,158.333,50.000,372.222,1002.778,94.444,N
1664,-0.190,2.010,0.820,119.444,44.444,355.556,1044.444,41.667,N
1665,-0.200,2.100,0.840,130.556,44.444,361.111,1044.444,0.000,N
1666,-0.200,2.095,0.875,133.333,44.444,336.111,1038.889,5.556,N
1667,-0.185,2.090,0.810,125.000,41.667,316.667,938.889,100.000,N
1668,-0.250,2.035,0.750,133.333,47.222,372.222,1011.111,72.222,N
1669,-0.280,1.955,0.735,125.000,50.000,375.000,1155.556,144.444,N
1670,-0.280,2.025,0.755,150.000,44.444,358.333,1027.778,127.778,N
1671,-0.280,2.040,0.760,138.889,41.667,336.111,1005.556,22.222,N
1672,-0.260,1.950,0.795,133.333,44.444,344.444,1008.333,2.778,N
1673,-0.250,1.925,0.770,116.667,38.889,322.222,969.444,38.889,N
1674,-0.245,1.865,0.760,136.111,41.667,338.889,813.889,155.556,N
1675,-0.285,1.475,0.590,155.556,47.222,341.667,888.889,75.000,N
1676,-0.280,1.425,0.625,138.889,41.667,336.111,952.778,63.889,N
1677,-0.305,1.600,0.710,125.000,41.667,330.556,902.778,50.000,N
1678,-0.290,1.915,0.705,144.444,41.667,327.778,819.444,83.333,N
1679,-0.370,1.820,0.595,141.667,44.444,316.667,816.667,2.778,N
1680,-0.415,1.855,0.660,138.889,41.667,330.556,797.222,19.444,N
1681,-0.285,1.960,0.735,161.111,50.000,372.222,836.111,38.889,N
1682,-0.330,1.755,0.860,155.556,47.222,372.222,827.778,8.333,N
1683,-0.210,1.960,0.690,133.333,44.444,344.444,791.667,36.111,N
1684,-0.325,1.865,0.640,141.667,47.222,338.889,744.444,47.222,N
1685,-0.360,1.945,0.645,147.222,44.444,327.778,725.000,19.444,N
1686,-0.310,2.035,0.690,144.444,41.667,330.556,880.556,155.556,N
1687,-0.230,2.065,0.820,141.667,38.889,313.889,780.556,100.000,N
1688,-0.225,2.265,0.725,138.889,36.111,288.889,844.444,63.889,N
1689,-0.245,2.155,0.750,141.667,47.222,372.222,1002.778,158.333,N
1690,-0.200,2.165,0.780,133.333,41.667,338.889,1108.333,105.556,N
1691,-0.190,2.110,0.835,133.333,38.889,294.444,950.000,158.333,N
1692,-0.125,2.170,0.875,136.111,44.444,336.111,791.667,158.333,N
1693,-0.140,2.140,0.820,125.000,38.889,319.444,852.778,61.111,N
1694,-0.150,2.215,0.835,127.778,41.667,327.778,902.778,50.000,N
1695,-0.185,2.180,0.810,138.889,38.889,352.778,961.111,58.333,N
1696,-0.230,1.985,0.815,133.333,41.667,341.667,1025.000,63.889,N
1697,-0.200,2.040,0.825,141.667,47.222,355.556,891.667,133.333,N
1698,-0.245,2.005,0.770,138.889,41.667,344.444,952.778,61.111,N
1699,-0.245,2.105,0.780,113.889,41.667,338.889,1022.222,69.444,N
1700,-0.295,2.050,0.770,133.333,44.444,327.778,1036.111,13.889,N
1701,-0.285,2.035,0.810,138.889,47.222,350.000,908.333,127.778,N
1702,-0.250,2.015,0.775,147.222,44.444,341.667,1105.556,197.222,N
1703,-0.300,1.960,0.750,116.667,44.444,341.667,1052.778,52.778,N
1704,-0.310,1.875,0.790,138.889,44.444,355.556,952.778,100.000,N
1705,-0.290,2.075,0.800,133.333,41.667,325.000,947.222,5.556,N
1706,-0.275,2.040,0.780,116.667,41.667,325.000,983.333,36.111,N
1707,-0.255,1.930,0.815,144.444,50.000,366.667,1061.111,77.778,N
1708,-0.220,2.050,0.895,133.333,44.444,355.556,1138.889,77.778,N
1709,-0.170,2.130,0.905,127.778,38.889,341.667,1127.778,11.111,N
1710,-0.175,2.165,0.880,125.000,44.444,333.333,1080.556,47.222,N
1711,-0.175,2.065,0.905,133.333,44.444,352.778,1041.667,38.889,N
1712,-0.150,2.150,0.890,116.667,44.444,325.000,1066.667,25.000,N
1713,-0.175,2.110,0.860,141.667,47.222,352.778,1075.000,8.333,N
1714,-0.210,2.005,0.875,125.000,44.444,352.778,1080.556,5.556,N
1715,-0.150,2.090,0.920,136.111,41.667,341.667,961.111,119.444,N
1716,-0.170,2.140,0.860,141.667,41.667,333.333,944.444,16.667,N
1717,-0.230,2.080,0.835,127.778,38.889,330.556,963.889,19.444,N
1718,-0.220,2.005,0.820,125.000,36.111,344.444,1016.667,52.778,N
1719,-0.220,1.915,0.785,155.556,50.000,372.222,966.667,50.000,N
1720,-0.300,2.020,0.785,150.000,47.222,344.444,1027.778,61.111,N
1721,-0.280,1.980,0.760,127.778,38.889,311.111,1044.444,16.667,N
1722,-0.285,1.790,0.755,136.111,41.667,336.111,908.333,136.111,N
1723,-0.270,2.025,0.790,127.778,41.667,327.778,908.333,0.000,N
1724,-0.300,2.060,0.780,130.556,41.667,294.444,986.111,77.778,N
1725,-0.260,1.845,0.625,158.333,50.000,375.000,1158.333,172.222,N
1726,-0.300,1.980,0.830,133.333,47.222,344.444,1061.111,97.222,N
1727,-0.270,1.990,0.785,147.222,41.667,316.667,911.111,150.000,N
1728,-0.305,1.945,0.590,144.444,41.667,325.000,933.333,22.222,N
1729,-0.895,1.565,0.845,38.889,38.889,327.778,797.222,136.111,N
1730,-0.170,1.885,0.935,138.889,41.667,322.222,747.222,50.000,N
1731,-0.145,2.140,0.845,122.222,44.444,350.000,683.333,63.889,N
1732,-0.205,2.045,0.765,155.556,44.444,352.778,766.667,83.333,N
1733,-0.185,2.070,0.795,41.667,47.222,352.778,1386.111,619.444,N
1734,-0.160,2.100,0.925,122.222,41.667,333.333,1094.444,291.667,N
1735,-0.130,2.155,0.920,133.333,44.444,341.667,1097.222,2.778,N
1736,-0.160,2.110,0.865,122.222,44.444,336.111,1122.222,25.000,N
1737,-0.210,1.995,0.845,122.222,44.444,361.111,1116.667,5.556,N
1738,-0.170,1.990,0.855,136.111,44.444,341.667,963.889,152.778,N
1739,-0.195,1.975,0.825,144.444,44.444,363.889,941.667,22.222,N
1740,-0.240,2.075,0.815,130.556,41.667,350.000,1086.111,144.444,N
1741,-0.225,2.080,0.815,111.111,41.667,333.333,1047.222,38.889,N
1742,-0.230,2.010,0.830,130.556,38.889,311.111,952.778,94.444,N
1743,-0.195,2.070,0.855,150.000,47.222,361.111,786.111,166.667,N
1744,-0.250,2.045,0.840,158.333,47.222,352.778,1025.000,238.889,N
1745,-0.215,2.110,0.870,136.111,44.444,341.667,1158.333,133.333,N
1746,-0.185,2.110,0.885,138.889,47.222,361.111,1108.333,50.000,N
1747,-0.155,2.155,0.985,113.889,38.889,341.667,988.889,119.444,N
1748,-0.150,2.115,0.945,111.111,41.667,319.444,947.222,41.667,N
1749,-0.165,2.160,0.925,147.222,47.222,350.000,1019.444,72.222,N
1750,-0.195,2.100,0.900,144.444,41.667,352.778,1066.667,47.222,N
1751,-0.175,1.985,0.935,130.556,44.444,338.889,986.111,80.556,N
1752,-0.160,2.075,0.895,141.667,44.444,336.111,875.000,111.111,N
1753,-0.215,2.020,0.845,138.889,44.444,336.111,950.000,75.000,N
1754,-0.165,2.185,0.875,130.556,38.889,327.778,1058.333,108.333,N
1755,-0.190,2.040,0.855,127.778,44.444,361.111,1047.222,11.111,N
1756,-0.210,2.005,0.870,141.667,44.444,350.000,1011.111,36.111,N
1757,-0.220,2.055,0.840,130.556,44.444,344.444,1041.667,30.556,N
1758,-0.215,2.090,0.880,136.111,41.667,336.111,1025.000,16.667,N
1759,-0.150,2.085,0.880,127.778,38.889,325.000,988.889,36.111,N
1760,-0.240,1.900,0.815,127.778,44.444,336.111,875.000,113.889,N
1761,-0.260,1.920,0.715,138.889,38.889,352.778,922.222,47.222,N
1762,-0.290,1.965,0.880,119.444,44.444,355.556,1111.111,188.889,N
1763,-0.145,1.880,0.865,141.667,47.222,352.778,1069.444,41.667,N
1764,-0.230,1.690,0.750,133.333,47.222,352.778,894.444,175.000,N
1765,-0.325,1.855,0.695,133.333,44.444,341.667,913.889,19.444,N
1766,-0.345,1.895,0.710,125.000,41.667,330.556,944.444,30.556,N
1767,-0.300,1.930,0.765,144.444,44.444,363.889,1019.444,75.000,N
1768,-0.200,1.985,0.880,138.889,44.444,350.000,1141.667,122.222,N
1769,-0.125,2.095,0.940,138.889,44.444,333.333,922.222,219.444,N
1770,-0.125,2.180,0.900,133.333,44.444,338.889,863.889,58.333,N
1771,-0.155,2.170,0.845,130.556,41.667,336.111,941.667,77.778,N
1772,-0.155,2.050,0.870,133.333,41.667,338.889,883.333,58.333,N
1773,-0.145,2.085,0.875,97.222,36.111,338.889,816.667,66.667,N
1774,-0.145,2.175,0.880,136.111,44.444,358.333,1005.556,188.889,N
1775,-0.105,2.070,0.880,141.667,50.000,375.000,1105.556,100.000,N
1776,-0.140,2.020,0.890,119.444,41.667,338.889,1011.111,94.444,N
1777,-0.160,2.015,0.870,133.333,44.444,338.889,936.111,75.000,N
1778,-0.205,2.105,0.835,127.778,41.667,330.556,1025.000,88.889,N
1779,-0.175,2.010,0.850,130.556,41.667,361.111,1033.333,8.333,N
1780,-0.185,1.820,0.835,119.444,44.444,350.000,1061.111,27.778,N
1781,-0.190,1.485,0.725,38.889,44.444,347.222,1058.333,2.778,N
1782,-0.195,1.660,0.825,47.222,47.222,361.111,1086.111,27.778,N
1783,-0.175,2.010,0.950,122.222,44.444,341.667,955.556,130.556,N
1784,-0.105,2.105,0.965,122.222,41.667,333.333,816.667,138.889,N
1785,-0.115,2.080,0.910,130.556,38.889,322.222,794.444,22.222,N
1786,-0.150,2.010,0.860,136.111,44.444,372.222,850.000,55.556,N
1787,-0.120,1.945,0.900,147.222,41.667,358.333,930.556,80.556,N
1788,-0.110,2.175,0.955,130.556,44.444,327.778,1250.000,319.444,N
1789,-0.085,2.155,0.955,119.444,44.444,338.889,1155.556,94.444,N
1790,-0.105,2.085,0.995,130.556,44.444,336.111,988.889,166.667,N
1791,-0.115,2.190,0.935,122.222,36.111,313.889,863.889,125.000,N