id,Pamp,Ramp,Tamp,PR,QRS,QT,RRI,dRRI,label
1,-0.220,1.095,-0.170,141.667,77.778,333.333,891.667,16.667,N
2,-0.225,1.100,-0.165,144.444,83.333,347.222,933.333,41.667,N
3,-0.125,1.000,-0.265,150.000,83.333,341.667,955.556,22.222,N
4,-0.290,1.065,-0.280,147.222,102.778,358.333,900.000,55.556,N
5,-0.175,1.375,-0.065,144.444,80.556,319.444,869.444,30.556,N
6,-0.135,1.305,-0.160,144.444,72.222,319.444,869.444,0.000,N
7,-0.175,1.220,-0.105,144.444,83.333,338.889,861.111,8.333,N
8,-0.105,1.145,-0.140,155.556,75.000,347.222,913.889,52.778,N
9,-0.135,1.085,-0.175,152.778,72.222,330.556,916.667,2.778,N
10,-0.135,1.190,-0.100,144.444,72.222,327.778,913.889,2.778,N
11,-0.090,1.215,-0.050,138.889,83.333,322.222,897.222,16.667,N
12,-0.040,1.155,-0.080,144.444,72.222,313.889,905.556,8.333,N
13,-0.100,0.950,-0.295,147.222,80.556,311.111,886.111,19.444,N
14,-0.090,1.155,-0.040,152.778,83.333,322.222,869.444,16.667,N
15,-0.085,1.040,-0.110,155.556,83.333,333.333,911.111,41.667,N
16,-0.105,0.940,-0.280,155.556,86.111,344.444,913.889,2.778,N
17,-0.130,1.110,-0.030,152.778,83.333,316.667,902.778,11.111,N
18,-0.030,1.200,-0.030,138.889,77.778,316.667,847.222,55.556,N
19,-0.065,1.180,-0.105,138.889,72.222,311.111,838.889,8.333,N
20,-0.150,0.955,-0.200,150.000,83.333,330.556,869.444,30.556,N
21,-0.200,0.840,-0.195,147.222,80.556,325.000,888.889,19.444,N
22,-0.175,0.900,-0.195,147.222,83.333,327.778,897.222,8.333,N
23,-0.185,0.900,-0.235,147.222,80.556,319.444,886.111,11.111,N
24,-0.225,1.105,-0.165,147.222,69.444,297.222,858.333,27.778,N
25,-0.110,1.265,-0.085,141.667,80.556,308.333,852.778,5.556,N
26,-0.100,0.995,-0.200,144.444,86.111,316.667,847.222,5.556,N
27,-0.120,1.080,-0.025,144.444,83.333,327.778,819.444,27.778,N
28,-0.045,1.235,0.055,144.444,80.556,322.222,852.778,33.333,N
29,0.015,1.220,-0.020,152.778,83.333,361.111,902.778,50.000,N
30,-0.030,1.035,-0.020,150.000,108.333,366.667,911.111,8.333,N
31,-0.075,1.125,-0.145,144.444,77.778,316.667,858.333,52.778,N
32,-0.205,1.100,-0.250,127.778,75.000,311.111,838.889,19.444,N
33,-0.260,1.245,-0.065,136.111,83.333,322.222,813.889,25.000,N
34,-0.095,1.455,-0.025,144.444,72.222,311.111,791.667,22.222,N
35,-0.150,1.420,0.055,161.111,83.333,327.778,805.556,13.889,N
36,-0.015,1.505,0.075,150.000,97.222,358.333,805.556,0.000,N
37,0.015,1.510,0.020,141.667,80.556,319.444,800.000,5.556,N
38,-0.045,1.495,-0.035,144.444,75.000,333.333,786.111,13.889,N
39,-0.095,1.355,-0.145,147.222,83.333,302.778,805.556,19.444,N
40,-0.100,1.270,-0.160,136.111,86.111,311.111,755.556,50.000,N
41,-0.245,1.235,-0.135,133.333,80.556,311.111,761.111,5.556,N
42,-0.100,1.405,-0.130,147.222,80.556,327.778,786.111,25.000,N
43,-0.095,1.405,0.045,141.667,83.333,322.222,805.556,19.444,N
44,0.080,1.515,0.065,150.000,83.333,327.778,841.667,36.111,N
45,0.000,1.475,0.460,133.333,69.444,311.111,852.778,11.111,N
46,-0.085,1.310,-0.085,138.889,83.333,305.556,786.111,66.667,N
47,-0.090,1.235,-0.125,136.111,75.000,313.889,755.556,30.556,N
48,-0.100,1.180,-0.080,147.222,83.333,322.222,775.000,19.444,N
49,-0.100,1.215,-0.085,136.111,72.222,313.889,794.444,19.444,N
50,-0.140,1.115,-0.165,138.889,83.333,305.556,808.333,13.889,N
51,-0.120,1.095,-0.060,150.000,83.333,322.222,833.333,25.000,N
52,0.015,1.255,0.060,147.222,83.333,327.778,844.444,11.111,N
53,0.040,1.225,0.010,147.222,86.111,333.333,836.111,8.333,N
54,-0.040,1.075,-0.085,144.444,69.444,311.111,816.667,19.444,N
55,-0.105,1.015,-0.080,136.111,66.667,308.333,783.333,33.333,N
56,-0.110,0.985,-0.100,133.333,80.556,308.333,783.333,0.000,N
57,-0.120,1.085,-0.085,138.889,80.556,336.111,791.667,8.333,N
58,-0.105,1.010,-0.075,147.222,83.333,333.333,825.000,33.333,N
59,-0.095,1.050,-0.085,150.000,86.111,336.111,808.333,16.667,N
60,-0.090,0.935,-0.110,141.667,75.000,316.667,805.556,2.778,N
61,-0.125,1.000,-0.195,133.333,83.333,327.778,805.556,0.000,N
62,-0.200,1.040,-0.175,125.000,75.000,305.556,808.333,2.778,N
63,-0.140,1.150,-0.150,141.667,69.444,322.222,838.889,30.556,N
64,-0.220,0.965,-0.265,150.000,83.333,308.333,869.444,30.556,N
65,-0.305,0.960,-0.320,150.000,80.556,322.222,888.889,19.444,N
66,-0.270,0.995,-0.285,150.000,83.333,325.000,913.889,25.000,N
67,-0.260,0.915,-0.250,152.778,83.333,341.667,955.556,41.667,N
68,-0.195,1.080,-0.215,144.444,69.444,311.111,922.222,33.333,N
69,-0.160,1.160,-0.145,136.111,77.778,313.889,861.111,61.111,N
70,-0.140,1.135,-0.180,147.222,83.333,308.333,894.444,33.333,N
71,-0.140,1.080,-0.215,141.667,75.000,330.556,891.667,2.778,N
72,-0.280,0.955,-0.290,155.556,75.000,330.556,919.444,27.778,N
73,-0.215,1.105,-0.170,147.222,83.333,341.667,955.556,36.111,N
74,-0.045,1.195,-0.055,133.333,83.333,322.222,919.444,36.111,N
75,0.020,1.260,0.005,130.556,80.556,325.000,880.556,38.889,N
76,0.075,1.295,0.090,125.000,75.000,311.111,877.778,2.778,N
77,0.150,1.330,0.130,144.444,83.333,311.111,872.222,5.556,N
78,0.110,1.310,0.110,141.667,72.222,311.111,877.778,5.556,N
79,0.060,1.300,-0.015,147.222,72.222,311.111,888.889,11.111,N
80,-0.005,1.110,-0.030,158.333,77.778,319.444,927.778,38.889,N
81,-0.060,1.055,-0.135,150.000,77.778,319.444,916.667,11.111,N
82,-0.185,1.055,-0.195,147.222,83.333,305.556,844.444,72.222,N
83,-0.175,1.060,-0.165,144.444,80.556,322.222,838.889,5.556,N
84,-0.110,1.225,-0.095,147.222,83.333,341.667,908.333,69.444,N
85,-0.075,1.160,-0.130,147.222,80.556,325.000,916.667,8.333,N
86,-0.170,0.985,-0.220,144.444,77.778,325.000,933.333,16.667,N
87,-0.240,1.095,-0.255,144.444,69.444,327.778,883.333,50.000,N
88,-0.200,1.320,-0.160,141.667,66.667,313.889,869.444,13.889,N
89,-0.195,1.255,-0.200,141.667,75.000,300.000,858.333,11.111,N
90,-0.150,1.240,-0.090,141.667,83.333,308.333,877.778,19.444,N
91,-0.115,1.325,-0.125,141.667,77.778,319.444,838.889,38.889,N
92,-0.010,1.170,-0.030,144.444,72.222,333.333,816.667,22.222,N
93,-0.085,1.140,-0.145,152.778,80.556,336.111,866.667,50.000,N
94,-0.125,1.105,-0.195,150.000,83.333,327.778,875.000,8.333,N
95,-0.165,1.025,-0.170,133.333,80.556,308.333,850.000,25.000,N
96,-0.075,0.975,-0.125,141.667,80.556,311.111,830.556,19.444,N
97,-0.065,0.960,-0.135,130.556,80.556,305.556,836.111,5.556,N
98,-0.050,1.045,0.025,138.889,77.778,330.556,825.000,11.111,N
99,0.110,1.190,0.060,150.000,75.000,327.778,902.778,77.778,N
100,-0.005,1.085,-0.080,141.667,72.222,325.000,900.000,2.778,N
101,-0.180,0.940,-0.305,144.444,77.778,327.778,869.444,30.556,N
102,-0.410,0.955,-0.385,147.222,80.556,322.222,875.000,5.556,N
103,-0.385,0.940,-0.320,136.111,66.667,311.111,841.667,33.333,N
104,-0.300,0.990,-0.210,138.889,72.222,305.556,836.111,5.556,N
105,-0.250,1.555,0.405,141.667,72.222,330.556,830.556,5.556,N
106,1.030,2.055,2.055,113.889,-92941.667,22.222,838.889,8.333,N
107,0.995,1.385,0.740,152.778,77.778,333.333,861.111,22.222,N
108,0.305,0.865,0.205,152.778,83.333,325.000,875.000,13.889,N
109,-0.150,0.665,-0.125,147.222,83.333,311.111,830.556,44.444,N
110,-0.440,0.630,-0.380,144.444,80.556,311.111,800.000,30.556,N
111,-0.650,0.685,-0.595,138.889,83.333,325.000,836.111,36.111,N
112,-0.815,0.865,-0.485,141.667,75.000,322.222,855.556,19.444,N
113,-0.530,0.685,-0.620,147.222,83.333,325.000,861.111,5.556,N
114,-0.755,0.495,-0.795,150.000,83.333,333.333,872.222,11.111,N
115,-0.750,0.710,-0.695,150.000,63.889,316.667,847.222,25.000,N
116,-0.610,0.980,-0.485,136.111,80.556,322.222,866.667,19.444,N
117,-0.400,1.030,-0.385,141.667,80.556,302.778,855.556,11.111,N
118,-0.295,0.950,-0.225,147.222,66.667,308.333,844.444,11.111,N
119,-0.145,0.870,-0.165,144.444,83.333,338.889,858.333,13.889,N
120,-0.070,0.960,-0.120,138.889,77.778,358.333,897.222,38.889,N
121,-0.070,1.135,-0.095,150.000,80.556,341.667,905.556,8.333,N
122,-0.095,0.990,-0.205,144.444,69.444,361.111,919.444,13.889,N
123,-0.295,0.835,-0.370,144.444,80.556,311.111,883.333,36.111,N
124,-0.225,0.890,-0.210,130.556,80.556,316.667,863.889,19.444,N
125,-0.150,0.785,-0.215,144.444,77.778,319.444,880.556,16.667,N
126,-0.230,0.695,-0.315,141.667,77.778,338.889,877.778,2.778,N
127,-0.225,1.040,-0.150,138.889,72.222,330.556,891.667,13.889,N
128,-0.120,0.755,-0.060,152.778,83.333,338.889,908.333,16.667,N
129,-0.110,1.085,0.555,141.667,75.000,319.444,911.111,2.778,N
130,0.500,0.435,1.220,194.444,50.000,263.889,600.000,311.111,|
131,0.090,1.065,-0.195,127.778,69.444,327.778,255.556,344.444,N
132,-0.295,0.860,-0.275,144.444,75.000,291.667,802.778,547.222,N
133,-0.175,1.005,-0.205,141.667,69.444,330.556,772.222,30.556,N
134,-0.345,0.965,-0.370,141.667,100.000,341.667,794.444,22.222,N
135,-0.500,0.875,-0.490,141.667,86.111,322.222,825.000,30.556,N
136,-0.315,1.125,-0.165,163.889,72.222,333.333,819.444,5.556,N
137,0.010,1.275,-0.040,152.778,86.111,330.556,813.889,5.556,N
138,0.050,1.370,0.345,141.667,63.889,336.111,766.667,47.222,N
139,0.365,1.535,0.290,150.000,69.444,327.778,772.222,5.556,N
140,0.335,1.480,0.375,138.889,69.444,316.667,772.222,0.000,N
141,0.255,1.325,0.015,147.222,75.000,300.000,750.000,22.222,N
142,-0.270,0.710,-0.670,152.778,83.333,91.667,775.000,25.000,N
143,-0.805,0.505,-0.730,155.556,97.222,352.778,811.111,36.111,N
144,-0.745,0.540,-0.695,155.556,111.111,372.222,802.778,8.333,N
145,-0.705,0.630,-0.610,127.778,88.889,344.444,836.111,33.333,N
146,-0.510,0.730,-0.350,141.667,94.444,350.000,813.889,22.222,N
147,-0.325,1.000,-0.470,141.667,91.667,325.000,786.111,27.778,N
148,-0.450,1.040,-0.425,138.889,80.556,322.222,794.444,8.333,N
149,-0.280,1.290,-0.185,150.000,80.556,327.778,830.556,36.111,N
150,-0.165,1.410,-0.035,147.222,77.778,352.778,838.889,8.333,N
151,0.085,1.560,0.060,150.000,83.333,322.222,861.111,22.222,N
152,0.140,1.625,0.235,144.444,72.222,330.556,861.111,0.000,N
153,0.230,1.505,0.200,138.889,72.222,333.333,830.556,30.556,N
154,0.615,2.145,1.105,133.333,77.778,280.556,822.222,8.333,N
155,0.855,1.995,0.420,138.889,75.000,97.222,802.778,19.444,N
156,0.130,1.485,-0.115,127.778,61.111,69.444,788.889,13.889,N
157,-0.240,0.855,-0.210,119.444,83.333,352.778,802.778,13.889,N
158,-0.020,0.910,-0.020,133.333,86.111,344.444,844.444,41.667,N
159,-0.130,1.235,-0.120,155.556,80.556,344.444,844.444,0.000,N
160,0.045,1.195,-0.145,141.667,66.667,305.556,825.000,19.444,N
161,-0.125,1.065,-0.045,191.667,66.667,308.333,769.444,55.556,N
162,-0.195,1.170,-0.375,127.778,66.667,294.444,775.000,5.556,N
163,-0.460,1.395,-0.055,141.667,83.333,319.444,750.000,25.000,N
164,0.315,1.910,0.495,83.333,105.556,352.778,775.000,25.000,N
165,0.410,1.470,0.005,197.222,80.556,344.444,802.778,27.778,N
166,-0.425,1.130,-0.510,133.333,97.222,347.222,827.778,25.000,N
167,-0.530,0.915,-0.570,147.222,97.222,358.333,794.444,33.333,N
168,-0.310,1.345,-0.090,141.667,91.667,330.556,797.222,2.778,N
169,-0.140,1.525,-0.050,136.111,83.333,313.889,772.222,25.000,N
170,0.030,1.275,0.075,127.778,80.556,294.444,761.111,11.111,N
171,0.215,0.980,-0.180,138.889,80.556,88.889,758.333,2.778,N
172,-0.350,0.635,-0.405,147.222,83.333,319.444,783.333,25.000,N
173,-0.345,0.955,-0.325,133.333,80.556,327.778,813.889,30.556,N
174,-0.215,0.995,-0.270,150.000,83.333,361.111,816.667,2.778,N
175,-0.225,1.010,-0.270,141.667,75.000,347.222,794.444,22.222,N
176,-0.260,0.995,0.220,136.111,83.333,372.222,777.778,16.667,N
177,0.170,1.165,-0.030,141.667,83.333,313.889,761.111,16.667,N
178,-0.195,0.985,-0.310,144.444,83.333,338.889,822.222,61.111,N
179,-0.340,0.825,-0.390,141.667,88.889,344.444,825.000,2.778,N
180,-0.365,1.060,-0.360,141.667,77.778,325.000,813.889,11.111,N
181,-0.415,1.430,-0.060,147.222,66.667,336.111,827.778,13.889,N
182,-0.170,1.270,-0.175,144.444,83.333,327.778,847.222,19.444,N
183,-0.205,1.210,-0.300,147.222,69.444,308.333,836.111,11.111,N
184,-0.200,1.325,-0.155,138.889,83.333,300.000,822.222,13.889,N
185,-0.115,1.395,-0.100,138.889,75.000,308.333,833.333,11.111,N
186,-0.065,1.400,-0.060,141.667,86.111,325.000,863.889,30.556,N
187,-0.115,1.360,-0.100,155.556,86.111,327.778,927.778,63.889,N
188,-0.155,1.200,-0.285,155.556,86.111,341.667,944.444,16.667,N
189,-0.265,1.110,-0.265,147.222,77.778,338.889,933.333,11.111,N
190,-0.210,1.055,-0.305,141.667,83.333,305.556,880.556,52.778,N
191,-0.450,1.020,-0.450,144.444,83.333,325.000,825.000,55.556,N
192,-0.425,1.120,-0.290,141.667,80.556,338.889,841.667,16.667,N
193,-0.230,1.250,-0.210,141.667,80.556,330.556,891.667,50.000,N
194,-0.090,1.200,-0.170,150.000,75.000,325.000,900.000,8.333,N
195,-0.210,1.200,-0.210,152.778,83.333,344.444,922.222,22.222,N
196,-0.190,1.275,-0.230,147.222,75.000,327.778,927.778,5.556,N
197,-0.195,0.990,-0.180,141.667,86.111,308.333,891.667,36.111,N
198,-0.100,1.155,-0.105,141.667,75.000,316.667,852.778,38.889,N
199,-0.055,1.205,-0.150,150.000,77.778,319.444,847.222,5.556,N
200,-0.265,1.170,-0.305,155.556,83.333,327.778,850.000,2.778,N
201,-0.260,1.130,-0.175,152.778,88.889,352.778,922.222,72.222,N
202,-0.070,1.215,-0.055,147.222,86.111,352.778,919.444,2.778,N
203,-0.165,1.300,-0.250,150.000,80.556,311.111,836.111,83.333,N
204,-0.220,1.120,-0.170,144.444,83.333,325.000,869.444,33.333,N
205,-0.185,1.065,-0.490,141.667,83.333,97.222,894.444,25.000,N
206,-0.515,-0.710,-0.345,27.778,58.333,-175266.667,283.333,611.111,|
207,-0.345,-1.870,1.195,175875.000,94.444,402.778,608.333,325.000,N
208,-0.345,0.840,1.320,176150.000,58.333,283.333,275.000,333.333,|
209,1.355,2.395,2.420,150.000,-176730.556,19.444,602.778,327.778,N
210,0.545,1.545,0.305,152.778,80.556,330.556,933.333,330.556,N
211,0.045,1.405,-0.140,158.333,86.111,344.444,902.778,30.556,N
212,-0.235,1.245,-0.285,150.000,69.444,327.778,930.556,27.778,N
213,-0.370,1.185,-0.380,144.444,80.556,305.556,838.889,91.667,N
214,-0.305,1.175,-0.255,147.222,72.222,327.778,877.778,38.889,N
215,-0.225,1.230,-0.240,150.000,86.111,333.333,919.444,41.667,N
216,-0.235,1.315,-0.275,152.778,69.444,336.111,916.667,2.778,N
217,-0.245,1.400,-0.270,150.000,86.111,341.667,886.111,30.556,N
218,-0.175,1.550,-0.180,155.556,75.000,330.556,941.667,55.556,N
219,-0.080,1.530,-0.135,147.222,75.000,333.333,905.556,36.111,N
220,-0.080,1.615,-0.105,138.889,83.333,308.333,855.556,50.000,N
221,-0.050,1.650,-0.080,141.667,80.556,319.444,866.667,11.111,N
222,-0.060,1.535,-0.110,147.222,72.222,330.556,894.444,27.778,N
223,-0.065,1.570,-0.100,155.556,86.111,358.333,922.222,27.778,N
224,-0.050,1.380,-0.095,147.222,83.333,336.111,947.222,25.000,N
225,-0.135,1.435,-0.230,150.000,83.333,322.222,902.778,44.444,N
226,-0.260,1.375,-0.170,147.222,83.333,302.778,850.000,52.778,N
227,-0.140,1.400,-0.135,144.444,80.556,311.111,861.111,11.111,N
228,-0.180,1.400,-0.155,147.222,75.000,316.667,863.889,2.778,N
229,-0.230,1.300,-0.270,150.000,75.000,327.778,902.778,38.889,N
230,-0.255,1.285,-0.310,155.556,80.556,338.889,930.556,27.778,N
231,-0.305,1.200,-0.320,152.778,86.111,336.111,930.556,0.000,N
232,-0.250,1.045,-0.230,155.556,77.778,325.000,933.333,2.778,N
233,-0.275,1.325,-0.250,138.889,77.778,319.444,866.667,66.667,N
234,-0.290,1.340,-0.250,136.111,83.333,308.333,861.111,5.556,N
235,-0.250,1.445,-0.210,147.222,69.444,327.778,863.889,2.778,N
236,-0.220,1.420,-0.140,144.444,75.000,333.333,913.889,50.000,N
237,-0.125,1.420,-0.045,155.556,72.222,347.222,916.667,2.778,N
238,-0.090,1.820,-0.065,150.000,80.556,338.889,894.444,22.222,N
239,-0.100,1.795,-0.030,144.444,83.333,308.333,847.222,47.222,N
240,-0.080,1.880,0.045,144.444,69.444,322.222,813.889,33.333,N
241,0.250,2.175,0.370,150.000,69.444,325.000,866.667,52.778,N
242,0.040,1.740,-0.210,147.222,72.222,330.556,880.556,13.889,N
243,-0.355,1.390,-0.300,155.556,80.556,338.889,908.333,27.778,N
244,-0.200,1.545,-0.045,152.778,75.000,338.889,944.444,36.111,N
245,-0.155,1.635,-0.085,150.000,75.000,336.111,880.556,63.889,N
246,-0.175,1.530,-0.110,150.000,72.222,333.333,900.000,19.444,N
247,-0.160,1.510,-0.145,141.667,77.778,316.667,880.556,19.444,N
248,-0.205,1.545,-0.150,144.444,72.222,313.889,869.444,11.111,N
249,-0.170,1.530,-0.150,150.000,83.333,341.667,905.556,36.111,N
250,-0.100,1.555,-0.035,150.000,77.778,341.667,938.889,33.333,N
251,-0.085,1.595,-0.075,152.778,80.556,327.778,916.667,22.222,N
252,-0.140,1.530,-0.075,155.556,83.333,322.222,936.111,19.444,N
253,-0.090,1.575,-0.040,138.889,63.889,300.000,913.889,22.222,N
254,-0.005,1.810,-0.060,144.444,72.222,313.889,888.889,25.000,N
255,-0.155,1.620,-0.095,147.222,83.333,322.222,908.333,19.444,N
256,-0.155,1.475,-0.070,152.778,72.222,341.667,947.222,38.889,N
257,-0.065,1.680,-0.050,155.556,80.556,352.778,955.556,8.333,N
258,-0.075,1.450,-0.050,158.333,83.333,333.333,991.667,36.111,N
259,-0.070,1.510,-0.035,150.000,77.778,330.556,936.111,55.556,N
260,-0.040,1.575,-0.055,152.778,80.556,311.111,855.556,80.556,N
261,-0.085,1.520,0.050,144.444,72.222,330.556,841.667,13.889,N
262,0.020,1.645,0.010,152.778,75.000,341.667,858.333,16.667,N
263,-0.010,1.630,-0.015,161.111,86.111,347.222,927.778,69.444,N
264,0.010,1.615,-0.040,155.556,80.556,344.444,958.333,30.556,N
265,-0.060,1.430,-0.035,147.222,75.000,336.111,938.889,19.444,N
266,-0.055,1.430,-0.080,150.000,77.778,336.111,897.222,41.667,N
267,-0.095,1.410,-0.145,141.667,83.333,330.556,916.667,19.444,N
268,-0.225,1.275,-0.260,138.889,77.778,319.444,916.667,0.000,N
269,-0.315,1.120,-0.290,152.778,69.444,338.889,927.778,11.111,N
270,-0.235,1.345,-0.145,152.778,77.778,341.667,905.556,22.222,N
271,-0.165,1.255,-0.125,150.000,86.111,352.778,955.556,50.000,N
272,-0.160,1.310,-0.115,144.444,69.444,316.667,947.222,8.333,N
273,-0.200,1.480,-0.190,138.889,80.556,311.111,858.333,88.889,N
274,-0.310,1.360,-0.255,150.000,80.556,333.333,855.556,2.778,N
275,-0.330,1.365,-0.310,152.778,77.778,319.444,936.111,80.556,N
276,-0.280,1.250,-0.240,155.556,83.333,327.778,961.111,25.000,N
277,-0.320,1.205,-0.335,150.000,83.333,341.667,927.778,33.333,N
278,-0.220,1.535,-0.230,141.667,83.333,322.222,877.778,50.000,N
279,-0.385,1.330,-0.215,155.556,77.778,325.000,844.444,33.333,N
280,-0.165,1.680,-0.040,147.222,83.333,325.000,863.889,19.444,N
281,0.075,1.740,0.080,144.444,75.000,327.778,858.333,5.556,N
282,0.045,1.700,0.125,147.222,75.000,341.667,869.444,11.111,N
283,0.135,1.670,0.065,161.111,86.111,363.889,969.444,100.000,N
284,-0.055,1.545,-0.115,150.000,75.000,347.222,961.111,8.333,N
285,-0.130,1.575,-0.110,147.222,69.444,327.778,938.889,22.222,N
286,-0.170,1.525,-0.170,141.667,72.222,313.889,913.889,25.000,N
287,-0.250,1.370,-0.155,147.222,69.444,327.778,922.222,8.333,N
288,-0.230,1.440,-0.165,150.000,75.000,330.556,961.111,38.889,N
289,-0.230,1.320,-0.175,155.556,77.778,347.222,983.333,22.222,N
290,-0.150,1.585,-0.135,152.778,83.333,333.333,1002.778,19.444,N
291,-0.245,1.580,-0.100,155.556,80.556,341.667,941.667,61.111,N
292,-0.225,1.575,-0.160,144.444,72.222,313.889,938.889,2.778,N
293,-0.185,1.530,-0.155,147.222,72.222,308.333,922.222,16.667,N
294,-0.170,1.460,-0.160,141.667,75.000,330.556,911.111,11.111,N
295,-0.165,1.350,-0.135,152.778,83.333,358.333,961.111,50.000,N
296,-0.130,1.595,-0.165,155.556,75.000,350.000,975.000,13.889,N
297,-0.185,1.515,-0.140,150.000,75.000,327.778,983.333,8.333,N
298,-0.235,1.600,-0.090,144.444,83.333,311.111,952.778,30.556,N
299,-0.090,1.435,-0.020,147.222,69.444,336.111,944.444,8.333,N
300,-0.035,1.545,0.010,147.222,80.556,319.444,944.444,0.000,N
301,-0.100,1.470,-0.115,147.222,75.000,327.778,961.111,16.667,N
302,-0.220,1.310,-0.180,152.778,75.000,347.222,944.444,16.667,N
303,-0.285,1.125,-0.245,152.778,80.556,338.889,1000.000,55.556,N
304,-0.310,1.045,-0.355,152.778,86.111,361.111,977.778,22.222,N
305,-0.240,1.215,-0.230,136.111,80.556,322.222,916.667,61.111,N
306,-0.235,1.360,-0.115,138.889,83.333,311.111,913.889,2.778,N
307,-0.140,1.330,-0.065,150.000,86.111,341.667,933.333,19.444,N
308,-0.095,1.295,-0.090,155.556,80.556,333.333,1008.333,75.000,N
309,-0.110,1.175,-0.125,147.222,83.333,327.778,1005.556,2.778,N
310,-0.225,1.170,-0.145,147.222,83.333,338.889,977.778,27.778,N
311,-0.135,1.235,-0.080,141.667,69.444,313.889,952.778,25.000,N
312,-0.140,1.385,-0.160,138.889,86.111,327.778,911.111,41.667,N
313,-0.215,1.255,-0.190,147.222,72.222,330.556,938.889,27.778,N
314,-0.195,1.360,-0.110,150.000,77.778,341.667,944.444,5.556,N
315,-0.105,1.385,-0.100,144.444,77.778,363.889,991.667,47.222,N
316,-0.070,1.260,-0.030,144.444,69.444,336.111,1013.889,22.222,N
317,-0.010,1.330,-0.035,141.667,83.333,319.444,961.111,52.778,N
318,-0.075,1.215,0.005,141.667,83.333,325.000,927.778,33.333,N
319,0.005,1.400,0.000,147.222,80.556,325.000,900.000,27.778,N
320,-0.120,1.235,-0.095,152.778,80.556,352.778,958.333,58.333,N
321,-0.215,1.335,-0.190,141.667,75.000,333.333,1002.778,44.444,N
322,-0.190,1.180,-0.135,155.556,80.556,322.222,1011.111,8.333,N
323,-0.075,1.375,-0.145,147.222,69.444,336.111,944.444,66.667,N
324,-0.230,1.325,-0.185,147.222,80.556,333.333,958.333,13.889,N
325,-0.220,1.295,-0.130,141.667,80.556,316.667,950.000,8.333,N
326,-0.190,1.255,-0.155,150.000,80.556,338.889,952.778,2.778,N
327,-0.175,1.170,-0.095,150.000,83.333,358.333,1025.000,72.222,N
328,-0.140,1.125,-0.125,152.778,77.778,344.444,1033.333,8.333,N
329,-0.105,1.075,-0.025,141.667,66.667,327.778,994.444,38.889,N
330,0.075,1.515,0.000,141.667,83.333,308.333,905.556,88.889,N
331,-0.190,1.195,-0.150,147.222,72.222,330.556,913.889,8.333,N
332,-0.175,1.275,-0.235,147.222,80.556,325.000,938.889,25.000,N
333,-0.280,1.030,-0.160,150.000,86.111,330.556,930.556,8.333,N
334,0.020,1.230,0.040,152.778,83.333,347.222,877.778,52.778,N
335,0.015,1.510,0.130,150.000,83.333,322.222,925.000,47.222,N
336,0.110,1.510,0.120,150.000,80.556,325.000,888.889,36.111,N
337,0.035,1.495,0.040,152.778,75.000,316.667,916.667,27.778,N
338,-0.040,1.355,-0.025,147.222,80.556,316.667,897.222,19.444,N
339,-0.170,1.390,-0.195,150.000,75.000,355.556,936.111,38.889,N
340,-0.215,1.405,-0.180,158.333,80.556,344.444,1016.667,80.556,N
341,-0.250,1.430,-0.150,152.778,83.333,344.444,997.222,19.444,N
342,-0.330,1.245,-0.240,147.222,75.000,327.778,975.000,22.222,N
343,-0.285,1.155,-0.160,144.444,77.778,325.000,930.556,44.444,N
344,-0.165,1.600,-0.130,150.000,83.333,322.222,891.667,38.889,N
345,-0.215,1.610,-0.110,155.556,83.333,338.889,955.556,63.889,N
346,-0.225,1.555,-0.085,158.333,75.000,350.000,988.889,33.333,N
347,-0.190,1.505,-0.095,155.556,80.556,350.000,1000.000,11.111,N
348,-0.210,1.395,-0.100,155.556,83.333,336.111,1011.111,11.111,N
349,-0.205,1.370,-0.115,152.778,80.556,325.000,966.667,44.444,N
350,-0.240,1.320,-0.110,147.222,83.333,311.111,958.333,8.333,N
351,-0.150,1.335,-0.070,152.778,83.333,338.889,988.889,30.556,N
352,-0.050,1.450,0.025,158.333,77.778,350.000,1008.333,19.444,N
353,-0.075,1.560,0.030,152.778,83.333,341.667,1058.333,50.000,N
354,-0.070,1.550,0.060,147.222,75.000,316.667,1038.889,19.444,N
355,-0.035,1.440,0.030,150.000,69.444,327.778,991.667,47.222,N
356,-0.065,1.430,-0.015,147.222,75.000,319.444,994.444,2.778,N
357,-0.175,1.355,-0.085,150.000,80.556,338.889,1013.889,19.444,N
358,-0.140,1.350,-0.120,152.778,83.333,355.556,1027.778,13.889,N
359,-0.105,1.405,-0.115,158.333,75.000,350.000,1027.778,0.000,N
360,-0.195,1.165,-0.265,158.333,86.111,336.111,1025.000,2.778,N
361,-0.435,-2.720,-0.370,47.222,13.889,338.889,908.333,116.667,|
362,-0.435,-0.895,-0.115,113.889,97.222,391.667,66.667,841.667,Q
363,-0.120,0.975,-0.120,136.111,66.667,283.333,991.667,925.000,N
364,0.640,1.640,0.515,136.111,86.111,336.111,1888.889,897.222,N
365,0.245,1.180,-0.110,155.556,75.000,350.000,969.444,919.444,N
366,-0.290,1.000,-0.315,152.778,83.333,338.889,958.333,11.111,N
367,-0.380,1.005,-0.280,144.444,83.333,300.000,925.000,33.333,N
368,-0.220,0.695,-0.330,161.111,88.889,336.111,913.889,11.111,N
369,-0.275,1.015,0.020,136.111,72.222,338.889,930.556,16.667,N
370,-0.015,1.485,0.030,130.556,83.333,344.444,961.111,30.556,N
371,0.025,1.395,0.105,161.111,77.778,363.889,1013.889,52.778,N
372,0.050,1.340,0.065,150.000,86.111,341.667,1022.222,8.333,N
373,-0.020,1.350,-0.095,130.556,72.222,325.000,947.222,75.000,N
374,-0.180,1.265,-0.135,83.333,108.333,350.000,900.000,47.222,N
375,-0.250,1.170,-0.145,144.444,83.333,363.889,930.556,30.556,N
376,0.040,1.590,0.185,152.778,77.778,338.889,925.000,5.556,N
377,-0.275,1.245,-0.330,158.333,77.778,338.889,905.556,19.444,N
378,-0.360,1.360,-0.175,152.778,80.556,330.556,919.444,13.889,N
379,-0.235,1.400,-0.185,147.222,83.333,336.111,891.667,27.778,N
380,-0.210,1.300,-0.020,152.778,75.000,322.222,902.778,11.111,N
381,0.045,1.740,0.095,150.000,77.778,311.111,861.111,41.667,N
382,-0.110,1.590,-0.060,152.778,83.333,330.556,838.889,22.222,N
383,-0.170,1.595,-0.130,155.556,80.556,341.667,919.444,80.556,N
384,-0.205,1.515,-0.170,161.111,80.556,336.111,986.111,66.667,N
385,-0.205,1.660,-0.115,155.556,69.444,327.778,988.889,2.778,N
386,-0.120,1.695,-0.055,150.000,86.111,322.222,952.778,36.111,N
387,-0.115,1.735,0.035,141.667,83.333,325.000,916.667,36.111,N
388,-0.070,1.710,0.025,155.556,86.111,330.556,966.667,50.000,N
389,-0.085,1.590,-0.030,158.333,83.333,338.889,988.889,22.222,N
390,-0.115,1.610,0.000,161.111,86.111,336.111,991.667,2.778,N
391,-0.090,1.610,-0.005,155.556,80.556,338.889,991.667,0.000,N
392,-0.045,1.595,0.135,147.222,77.778,325.000,944.444,47.222,N
393,0.065,1.715,0.085,147.222,72.222,322.222,916.667,27.778,N
394,0.070,1.850,0.100,138.889,86.111,322.222,905.556,11.111,N
395,-0.235,1.500,-0.260,155.556,80.556,352.778,938.889,33.333,N
396,-0.380,1.320,-0.285,161.111,83.333,355.556,1013.889,75.000,N
397,-0.325,1.390,-0.195,158.333,80.556,338.889,1002.778,11.111,N
398,-0.240,1.490,-0.150,150.000,80.556,325.000,958.333,44.444,N
399,-0.215,1.535,-0.070,150.000,80.556,322.222,938.889,19.444,N
400,-0.185,1.460,-0.195,147.222,83.333,330.556,922.222,16.667,N
401,-0.230,1.510,-0.125,152.778,80.556,338.889,894.444,27.778,N
402,-0.265,1.505,-0.170,155.556,86.111,344.444,947.222,52.778,N
403,-0.280,1.400,-0.180,152.778,86.111,358.333,983.333,36.111,N
404,-0.265,1.570,-0.165,155.556,83.333,341.667,1019.444,36.111,N
405,-0.165,1.370,-0.035,150.000,69.444,375.000,950.000,69.444,N
406,-0.050,1.370,-0.050,147.222,80.556,333.333,869.444,80.556,N
407,-0.240,1.180,-0.235,150.000,75.000,333.333,905.556,36.111,N
408,-0.345,1.310,-0.160,155.556,80.556,366.667,877.778,27.778,N
409,-0.155,1.515,0.010,161.111,86.111,344.444,944.444,66.667,N
410,-0.075,1.630,0.040,150.000,83.333,341.667,916.667,27.778,N
411,-0.055,1.570,0.050,150.000,77.778,327.778,911.111,5.556,N
412,-0.065,1.405,-0.020,144.444,83.333,325.000,861.111,50.000,N
413,-0.135,1.330,-0.010,141.667,69.444,330.556,858.333,2.778,N
414,-0.035,1.500,-0.090,147.222,77.778,316.667,861.111,2.778,N
415,-0.160,1.385,-0.085,155.556,77.778,338.889,930.556,69.444,N
416,-0.190,1.365,-0.125,152.778,72.222,347.222,1005.556,75.000,N
417,-0.185,1.320,-0.120,155.556,80.556,338.889,1044.444,38.889,N
418,-0.205,1.200,-0.165,147.222,83.333,330.556,1025.000,19.444,N
419,-0.135,1.445,-0.135,147.222,72.222,316.667,963.889,61.111,N
420,-0.240,1.460,-0.100,155.556,86.111,347.222,988.889,25.000,N
421,-0.175,1.360,0.015,161.111,86.111,361.111,1066.667,77.778,N
422,-0.030,1.390,-0.085,197.222,83.333,336.111,538.889,527.778,A
423,-0.070,1.725,-0.135,141.667,80.556,341.667,1183.333,644.444,N
424,-0.220,1.515,-0.155,138.889,77.778,316.667,1005.556,177.778,N
425,-0.265,1.490,-0.120,147.222,75.000,336.111,963.889,41.667,N
426,-0.170,1.530,-0.095,144.444,83.333,327.778,975.000,11.111,N
427,-0.135,1.465,-0.035,150.000,77.778,347.222,977.778,2.778,N
428,-0.150,1.495,-0.050,155.556,83.333,358.333,1027.778,50.000,N
429,-0.170,1.275,-0.085,155.556,69.444,338.889,1055.556,27.778,N
430,-0.045,1.675,0.010,144.444,83.333,322.222,958.333,97.222,N
431,-0.035,1.685,0.115,147.222,83.333,341.667,969.444,11.111,N
432,0.030,1.675,0.135,147.222,83.333,341.667,980.556,11.111,N
433,0.010,1.520,0.030,158.333,75.000,347.222,1044.444,63.889,N
434,-0.100,1.480,-0.045,155.556,83.333,344.444,1052.778,8.333,N
435,-0.145,1.350,-0.075,152.778,86.111,341.667,1038.889,13.889,N
436,-0.155,1.385,-0.030,152.778,66.667,325.000,1027.778,11.111,N
437,-0.095,1.515,-0.035,147.222,75.000,333.333,950.000,77.778,N
438,-0.180,1.545,-0.045,150.000,83.333,338.889,975.000,25.000,N
439,-0.145,1.505,-0.060,158.333,83.333,341.667,1022.222,47.222,N
440,-0.165,1.370,-0.125,158.333,72.222,347.222,1052.778,30.556,N
441,-0.240,1.300,-0.150,155.556,72.222,327.778,1050.000,2.778,N
442,-0.290,1.125,-0.270,141.667,83.333,319.444,997.222,52.778,N
443,-0.280,1.315,-0.240,147.222,69.444,330.556,938.889,58.333,N
444,-0.340,1.245,-0.195,155.556,77.778,333.333,997.222,58.333,N
445,-0.275,1.390,-0.160,155.556,83.333,344.444,1036.111,38.889,N
446,-0.220,1.320,-0.100,152.778,86.111,341.667,1055.556,19.444,N
447,-0.115,1.370,-0.055,152.778,75.000,336.111,1055.556,0.000,N
448,-0.140,1.390,-0.080,147.222,72.222,341.667,1022.222,33.333,N
449,-0.040,1.595,0.020,141.667,69.444,327.778,966.667,55.556,N
450,-0.110,1.525,0.000,147.222,80.556,338.889,975.000,8.333,N
451,-0.190,1.330,-0.105,163.889,86.111,361.111,1030.556,55.556,N
452,-0.140,1.475,-0.130,152.778,83.333,358.333,1030.556,0.000,N
453,-0.325,1.365,-0.145,150.000,83.333,344.444,986.111,44.444,N
454,-0.280,1.280,-0.105,152.778,80.556,336.111,991.667,5.556,N
455,-0.220,1.260,-0.160,152.778,83.333,322.222,983.333,8.333,N
456,-0.255,1.410,-0.085,158.333,86.111,350.000,988.889,5.556,N
457,-0.250,1.505,-0.100,161.111,83.333,341.667,1055.556,66.667,N
458,-0.210,1.325,-0.120,155.556,86.111,361.111,1066.667,11.111,N
459,-0.135,1.575,-0.125,158.333,77.778,330.556,1044.444,22.222,N
460,-0.255,1.450,-0.155,152.778,83.333,327.778,986.111,58.333,N
461,-0.305,1.390,-0.160,150.000,83.333,322.222,986.111,0.000,N
462,-0.220,1.405,-0.135,147.222,83.333,341.667,1000.000,13.889,N
463,-0.180,1.475,-0.075,152.778,83.333,361.111,1050.000,50.000,N
464,-0.150,1.265,-0.065,150.000,83.333,344.444,1083.333,33.333,N
465,-0.055,1.605,-0.055,144.444,75.000,330.556,1008.333,75.000,N
466,-0.220,1.345,-0.100,144.444,86.111,333.333,986.111,22.222,N
467,-0.130,1.460,0.010,144.444,83.333,338.889,1005.556,19.444,N
468,-0.050,1.485,0.040,141.667,75.000,352.778,1008.333,2.778,N
469,-0.025,1.440,0.040,155.556,80.556,352.778,1050.000,41.667,N
470,-0.105,1.360,-0.075,161.111,75.000,363.889,1086.111,36.111,N
471,-0.160,1.335,-0.070,150.000,83.333,338.889,1061.111,25.000,N
472,-0.145,1.445,-0.040,150.000,77.778,333.333,986.111,75.000,N
473,-0.180,1.445,-0.075,150.000,75.000,330.556,1005.556,19.444,N
474,-0.200,1.335,-0.080,161.111,72.222,347.222,1066.667,61.111,N
475,-0.110,1.520,-0.085,158.333,72.222,344.444,1050.000,16.667,N
476,-0.235,1.425,-0.095,150.000,86.111,344.444,1052.778,2.778,N
477,-0.180,1.340,-0.055,144.444,77.778,336.111,1044.444,8.333,N
478,-0.070,1.510,0.015,144.444,72.222,338.889,1000.000,44.444,N
479,-0.130,1.460,-0.050,147.222,72.222,333.333,972.222,27.778,N
480,-0.210,1.465,-0.110,150.000,80.556,341.667,1022.222,50.000,N
481,-0.220,1.450,-0.080,161.111,86.111,361.111,1080.556,58.333,N
482,-0.115,1.570,0.030,150.000,80.556,352.778,1052.778,27.778,N
483,-0.110,1.595,0.010,152.778,80.556,338.889,969.444,83.333,N
484,-0.205,1.330,-0.035,147.222,77.778,333.333,988.889,19.444,N
485,-0.105,1.535,0.060,155.556,83.333,344.444,991.667,2.778,N
486,0.015,1.570,0.100,161.111,91.667,366.667,1027.778,36.111,N
487,-0.075,1.500,-0.035,158.333,83.333,344.444,1008.333,19.444,N
488,-0.220,1.330,-0.095,155.556,80.556,341.667,1030.556,22.222,N
489,-0.195,1.395,-0.095,150.000,69.444,325.000,1047.222,16.667,N
490,-0.135,1.465,-0.110,155.556,83.333,322.222,972.222,75.000,N
491,-0.285,1.375,-0.170,150.000,83.333,330.556,991.667,19.444,N
492,-0.260,1.215,-0.155,147.222,72.222,347.222,1050.000,58.333,N
493,-0.140,1.445,-0.095,158.333,77.778,355.556,1063.889,13.889,N
494,-0.215,1.320,-0.110,152.778,80.556,336.111,1063.889,0.000,N
495,-0.250,1.230,-0.125,150.000,83.333,322.222,1027.778,36.111,N
496,-0.190,1.350,-0.090,155.556,77.778,338.889,1022.222,5.556,N
497,-0.170,1.370,-0.060,150.000,83.333,352.778,1011.111,11.111,N
498,-0.205,1.285,-0.115,152.778,86.111,355.556,1069.444,58.333,N
499,-0.230,1.295,-0.085,161.111,80.556,358.333,1086.111,16.667,N
500,-0.115,1.450,-0.050,152.778,83.333,338.889,1047.222,38.889,N
501,-0.230,1.390,-0.185,150.000,80.556,338.889,1002.778,44.444,N
502,-0.240,1.405,-0.080,150.000,83.333,330.556,997.222,5.556,N
503,-0.045,1.570,0.085,152.778,86.111,352.778,1002.778,5.556,N
504,-0.005,1.510,0.065,161.111,86.111,344.444,1077.778,75.000,N
505,-0.085,1.500,-0.005,152.778,80.556,338.889,1086.111,8.333,N
506,-0.080,1.385,-0.035,147.222,83.333,341.667,1030.556,55.556,N
507,-0.210,1.325,-0.160,147.222,83.333,327.778,986.111,44.444,N
508,-0.310,1.185,-0.195,147.222,77.778,355.556,1005.556,19.444,N
509,-0.240,1.270,-0.115,155.556,80.556,355.556,1036.111,30.556,N
510,-0.210,1.405,-0.150,152.778,80.556,341.667,1002.778,33.333,N
511,-0.230,1.360,-0.130,155.556,86.111,366.667,1044.444,41.667,N
512,-0.205,1.330,-0.145,150.000,86.111,344.444,997.222,47.222,N
513,-0.220,1.310,-0.025,144.444,80.556,330.556,941.667,55.556,N
514,-0.165,1.535,-0.120,150.000,69.444,341.667,902.778,38.889,N
515,-0.320,1.315,-0.240,152.778,86.111,361.111,938.889,36.111,N
516,-0.350,1.315,-0.225,161.111,80.556,372.222,1036.111,97.222,N
517,-0.225,1.530,-0.120,155.556,83.333,355.556,1011.111,25.000,N
518,-0.190,1.485,-0.060,147.222,83.333,341.667,980.556,30.556,N
519,-0.185,1.355,-0.055,155.556,77.778,338.889,1008.333,27.778,N
520,-0.070,1.630,0.105,141.667,80.556,341.667,966.667,41.667,N
521,-0.025,1.625,0.050,152.778,83.333,355.556,961.111,5.556,N
522,-0.130,1.440,-0.050,158.333,77.778,358.333,1011.111,50.000,N
523,-0.160,1.265,-0.095,158.333,77.778,352.778,1027.778,16.667,N
524,-0.155,1.335,-0.035,152.778,72.222,333.333,1036.111,8.333,N
525,-0.015,1.435,0.085,150.000,83.333,325.000,961.111,75.000,N
526,-0.065,1.390,-0.045,144.444,86.111,333.333,938.889,22.222,N
527,-0.200,1.290,-0.140,152.778,77.778,344.444,1030.556,91.667,N
528,-0.230,1.180,-0.140,158.333,72.222,363.889,1075.000,44.444,N
529,-0.210,1.245,-0.155,155.556,86.111,341.667,1022.222,52.778,N
530,-0.265,1.245,-0.145,141.667,80.556,341.667,1050.000,27.778,N
531,-0.165,1.340,-0.095,147.222,83.333,341.667,997.222,52.778,N
532,-0.220,1.265,-0.125,144.444,72.222,330.556,980.556,16.667,N
533,-0.260,1.230,-0.225,152.778,83.333,336.111,1025.000,44.444,N
534,-0.230,1.255,-0.165,158.333,83.333,361.111,1033.333,8.333,N
535,-0.270,1.250,-0.150,155.556,86.111,355.556,1050.000,16.667,N
536,-0.255,1.210,-0.165,141.667,72.222,333.333,1022.222,27.778,N
537,-0.215,1.305,-0.035,138.889,77.778,341.667,961.111,61.111,N
538,-0.005,1.545,0.070,144.444,77.778,350.000,886.111,75.000,N
539,-0.060,1.500,-0.035,155.556,86.111,363.889,925.000,38.889,N
540,-0.120,1.475,-0.100,155.556,75.000,347.222,994.444,69.444,N
541,-0.115,1.385,0.020,155.556,83.333,338.889,1011.111,16.667,N
542,-0.040,1.355,0.045,158.333,77.778,358.333,1050.000,38.889,N
543,0.015,1.415,0.045,150.000,80.556,319.444,1000.000,50.000,N
544,-0.125,1.345,-0.055,147.222,83.333,341.667,961.111,38.889,N
545,-0.185,1.225,-0.045,158.333,86.111,344.444,1050.000,88.889,N
546,-0.035,1.460,0.100,161.111,86.111,366.667,1063.889,13.889,N
547,-0.040,1.565,0.070,163.889,80.556,333.333,1050.000,13.889,N
548,-0.090,1.555,-0.035,147.222,83.333,327.778,1019.444,30.556,N
549,-0.105,1.375,-0.030,152.778,86.111,344.444,969.444,50.000,N
550,-0.145,1.440,-0.045,144.444,75.000,338.889,975.000,5.556,N
551,-0.045,1.640,-0.025,158.333,83.333,341.667,958.333,16.667,N
552,-0.170,1.560,-0.065,158.333,77.778,350.000,961.111,2.778,N
553,-0.115,1.605,0.040,155.556,77.778,336.111,947.222,13.889,N
554,-0.085,1.685,0.020,152.778,72.222,333.333,975.000,27.778,N
555,-0.110,1.595,-0.085,147.222,80.556,327.778,950.000,25.000,N
556,-0.190,1.405,-0.120,150.000,83.333,322.222,938.889,11.111,N
557,-0.195,1.295,-0.150,147.222,77.778,341.667,952.778,13.889,N
558,-0.015,1.680,0.045,169.444,83.333,363.889,994.444,41.667,N
559,-0.040,1.480,0.065,158.333,75.000,352.778,975.000,19.444,N
560,0.015,1.390,0.190,155.556,75.000,333.333,936.111,38.889,N
561,0.115,1.590,0.165,152.778,80.556,325.000,911.111,25.000,N
562,0.120,1.665,0.125,150.000,77.778,325.000,919.444,8.333,N
563,-0.080,1.500,-0.070,155.556,75.000,333.333,936.111,16.667,N
564,-0.215,1.430,-0.130,152.778,86.111,347.222,988.889,52.778,N
565,-0.195,1.485,-0.110,152.778,86.111,361.111,1000.000,11.111,N
566,-0.040,1.690,0.050,155.556,86.111,352.778,1011.111,11.111,N
567,-0.045,1.635,0.035,147.222,83.333,333.333,902.778,108.333,N
568,-0.155,1.620,-0.060,150.000,83.333,327.778,869.444,33.333,N
569,-0.175,1.510,-0.165,150.000,77.778,327.778,894.444,25.000,N
570,-0.230,1.380,-0.170,155.556,80.556,350.000,916.667,22.222,N
571,-0.130,1.370,-0.150,133.333,116.667,397.222,975.000,58.333,N
572,-0.155,1.500,-0.040,161.111,83.333,344.444,972.222,2.778,N
573,-0.155,1.445,-0.045,144.444,83.333,341.667,941.667,30.556,N
574,-0.275,1.180,-0.230,150.000,83.333,347.222,933.333,8.333,N
575,-0.235,1.230,-0.120,144.444,75.000,322.222,908.333,25.000,N
576,-0.185,1.365,-0.015,141.667,72.222,333.333,886.111,22.222,N
577,-0.170,1.440,-0.035,155.556,83.333,366.667,955.556,69.444,N
578,-0.105,1.460,-0.090,155.556,86.111,363.889,983.333,27.778,N
579,-0.120,1.280,-0.015,155.556,80.556,338.889,988.889,5.556,N
580,0.040,1.485,0.095,141.667,80.556,336.111,908.333,80.556,N
581,-0.025,1.565,0.045,141.667,77.778,319.444,897.222,11.111,N
582,-0.100,1.440,-0.065,147.222,69.444,341.667,922.222,25.000,N
583,-0.145,1.310,-0.065,152.778,83.333,341.667,941.667,19.444,N
584,-0.180,1.310,-0.050,152.778,80.556,336.111,966.667,25.000,N
585,-0.115,1.285,-0.070,152.778,75.000,350.000,955.556,11.111,N
586,-0.130,1.355,0.020,150.000,80.556,338.889,933.333,22.222,N
587,-0.110,1.440,0.015,147.222,75.000,333.333,936.111,2.778,N
588,-0.125,1.465,-0.045,144.444,83.333,330.556,919.444,16.667,N
589,-0.060,1.570,0.025,152.778,83.333,338.889,922.222,2.778,N
590,-0.125,1.465,-0.020,158.333,83.333,358.333,975.000,52.778,N
591,-0.185,1.355,-0.095,161.111,83.333,347.222,1022.222,47.222,N
592,-0.260,1.215,-0.210,144.444,69.444,325.000,1002.778,19.444,N
593,-0.295,1.395,-0.185,147.222,80.556,336.111,936.111,66.667,N
594,-0.310,1.430,-0.160,141.667,77.778,338.889,952.778,16.667,N
595,-0.225,1.370,-0.055,150.000,75.000,358.333,961.111,8.333,N
596,-0.145,1.410,0.005,155.556,86.111,358.333,952.778,8.333,N
597,-0.100,1.510,-0.040,152.778,86.111,319.444,969.444,16.667,N
598,-0.180,1.420,-0.070,158.333,77.778,350.000,972.222,2.778,N
599,-0.220,1.260,-0.140,150.000,80.556,333.333,963.889,8.333,N
600,-0.175,1.345,-0.050,141.667,72.222,313.889,936.111,27.778,N
601,-0.110,1.370,-0.080,147.222,80.556,341.667,944.444,8.333,N
602,-0.155,1.215,-0.100,152.778,83.333,347.222,980.556,36.111,N
603,-0.100,1.325,-0.090,161.111,80.556,361.111,994.444,13.889,N
604,-0.205,1.265,-0.120,150.000,75.000,344.444,988.889,5.556,N
605,-0.215,1.215,-0.105,144.444,66.667,327.778,961.111,27.778,N
606,-0.155,1.280,-0.010,155.556,72.222,347.222,952.778,8.333,N
607,0.025,1.475,0.035,141.667,80.556,327.778,936.111,16.667,N
608,-0.065,1.320,0.060,152.778,86.111,338.889,958.333,22.222,N
609,-0.215,1.380,-0.170,155.556,80.556,358.333,963.889,5.556,N
610,-0.300,1.220,-0.185,155.556,77.778,352.778,988.889,25.000,N
611,-0.340,1.180,-0.245,152.778,75.000,330.556,1005.556,16.667,N
612,-0.285,1.120,-0.070,150.000,86.111,325.000,969.444,36.111,N
613,-0.125,1.220,0.010,144.444,77.778,333.333,941.667,27.778,N
614,-0.055,1.235,-0.015,158.333,77.778,358.333,969.444,27.778,N
615,-0.015,1.490,-0.040,158.333,80.556,352.778,963.889,5.556,N
616,-0.165,1.350,-0.070,150.000,86.111,350.000,958.333,5.556,N
617,-0.175,1.220,-0.095,152.778,80.556,338.889,955.556,2.778,N
618,-0.165,1.290,-0.025,144.444,83.333,333.333,922.222,33.333,N
619,-0.120,1.385,-0.045,150.000,75.000,330.556,922.222,0.000,N
620,-0.130,1.405,-0.035,150.000,80.556,338.889,972.222,50.000,N
621,-0.175,1.175,-0.080,155.556,86.111,341.667,1033.333,61.111,N
622,-0.115,1.365,-0.125,155.556,86.111,361.111,1016.667,16.667,N
623,-0.270,1.120,-0.200,158.333,75.000,336.111,1041.667,25.000,N
624,-0.285,1.220,-0.195,144.444,80.556,330.556,1000.000,41.667,N
625,-0.195,1.205,-0.095,155.556,77.778,338.889,997.222,2.778,N
626,-0.195,1.250,-0.110,158.333,86.111,350.000,988.889,8.333,N
627,-0.235,1.260,-0.175,158.333,83.333,355.556,1077.778,88.889,N
628,-0.280,1.085,-0.205,163.889,77.778,350.000,1088.889,11.111,N
629,-0.140,1.375,-0.135,150.000,83.333,338.889,1005.556,83.333,N
630,-0.245,1.120,-0.135,155.556,86.111,330.556,1025.000,19.444,N
631,-0.195,1.250,-0.065,147.222,83.333,322.222,1008.333,16.667,N
632,-0.100,1.210,-0.015,147.222,83.333,344.444,1011.111,2.778,N
633,-0.145,1.295,-0.080,155.556,83.333,355.556,1041.667,30.556,N
634,-0.150,1.200,-0.115,158.333,77.778,355.556,1086.111,44.444,N
635,-0.165,1.235,-0.080,147.222,83.333,338.889,1061.111,25.000,N
636,-0.070,1.225,-0.090,147.222,83.333,325.000,986.111,75.000,N
637,-0.225,1.255,-0.145,155.556,75.000,347.222,1041.667,55.556,N
638,-0.130,1.335,0.015,152.778,80.556,336.111,1041.667,0.000,N
639,-0.050,1.470,0.090,163.889,88.889,352.778,1025.000,16.667,N
640,-0.060,1.500,-0.025,158.333,86.111,344.444,1019.444,5.556,N
641,-0.120,1.460,-0.045,158.333,83.333,338.889,975.000,44.444,N
642,-0.100,1.450,-0.105,150.000,72.222,325.000,941.667,33.333,N
643,-0.270,1.270,-0.185,155.556,88.889,330.556,955.556,13.889,N
644,-0.245,1.425,-0.130,152.778,75.000,350.000,975.000,19.444,N
645,-0.220,1.400,-0.110,166.667,86.111,358.333,1075.000,100.000,N
646,-0.365,1.375,-0.100,83.333,75.000,338.889,925.000,150.000,A
647,-0.055,1.525,-0.025,144.444,72.222,330.556,1150.000,225.000,N
648,-0.120,1.440,-0.030,144.444,69.444,322.222,988.889,161.111,N
649,-0.145,1.410,-0.115,144.444,75.000,347.222,977.778,11.111,N
650,-0.245,1.395,-0.075,158.333,75.000,347.222,969.444,8.333,N
651,-0.195,1.420,-0.055,155.556,83.333,341.667,975.000,5.556,N
652,-0.190,1.455,-0.035,155.556,86.111,347.222,916.667,58.333,N
653,-0.185,1.400,-0.020,161.111,83.333,327.778,947.222,30.556,N
654,-0.130,1.410,0.005,152.778,83.333,327.778,919.444,27.778,N
655,-0.125,1.415,0.000,152.778,83.333,319.444,891.667,27.778,N
656,-0.130,1.530,0.055,152.778,72.222,330.556,983.333,91.667,N
657,-0.055,1.500,0.085,155.556,75.000,355.556,1044.444,61.111,N
658,0.050,1.645,0.090,155.556,75.000,341.667,1047.222,2.778,N
659,-0.080,1.515,0.005,147.222,72.222,330.556,1011.111,36.111,N
660,-0.135,1.415,-0.025,155.556,72.222,344.444,1016.667,5.556,N
661,-0.125,1.405,-0.095,147.222,83.333,327.778,1019.444,2.778,N
662,-0.250,1.250,-0.115,155.556,80.556,336.111,1013.889,5.556,N
663,-0.200,1.360,-0.070,155.556,88.889,361.111,1075.000,61.111,N
664,-0.220,1.490,-0.075,158.333,75.000,352.778,1027.778,47.222,N
665,-0.145,1.570,-0.125,150.000,80.556,344.444,972.222,55.556,N
666,-0.305,1.505,-0.095,150.000,83.333,325.000,947.222,25.000,N
667,-0.235,1.550,-0.120,144.444,83.333,327.778,930.556,16.667,N
668,-0.265,1.365,-0.215,158.333,75.000,350.000,980.556,50.000,N
669,-0.280,1.110,-0.220,155.556,77.778,369.444,1013.889,33.333,N
670,-0.195,1.445,-0.035,155.556,77.778,352.778,983.333,30.556,N
671,-0.190,1.470,-0.100,150.000,77.778,347.222,969.444,13.889,N
672,-0.220,1.305,-0.070,152.778,83.333,341.667,947.222,22.222,N
673,-0.095,1.370,0.040,150.000,69.444,344.444,958.333,11.111,N
674,-0.135,1.335,-0.050,155.556,83.333,341.667,955.556,2.778,N
675,-0.135,1.380,0.020,158.333,75.000,350.000,1038.889,83.333,N
676,0.010,1.435,-0.020,158.333,80.556,358.333,1047.222,8.333,N
677,-0.210,1.270,-0.105,147.222,83.333,344.444,1022.222,25.000,N
678,-0.200,1.280,-0.120,150.000,83.333,325.000,1005.556,16.667,N
679,-0.205,1.205,-0.130,147.222,86.111,325.000,983.333,22.222,N
680,-0.220,1.215,-0.190,152.778,83.333,336.111,983.333,0.000,N
681,-0.290,1.165,-0.190,158.333,72.222,347.222,1061.111,77.778,N
682,-0.285,1.120,-0.190,152.778,83.333,341.667,1055.556,5.556,N
683,-0.135,1.160,-0.140,152.778,83.333,338.889,1000.000,55.556,N
684,-0.255,1.215,-0.180,147.222,83.333,327.778,1013.889,13.889,N
685,-0.290,1.060,-0.170,141.667,69.444,327.778,997.222,16.667,N
686,-0.100,1.315,-0.100,150.000,83.333,341.667,972.222,25.000,N
687,-0.265,1.210,-0.220,152.778,83.333,358.333,1033.333,61.111,N
688,-0.265,1.195,-0.190,161.111,77.778,363.889,1077.778,44.444,N
689,-0.215,1.260,-0.075,147.222,69.444,327.778,1033.333,44.444,N
690,-0.190,1.315,-0.125,141.667,80.556,330.556,947.222,86.111,N
691,-0.215,1.350,-0.085,152.778,75.000,347.222,1002.778,55.556,N
692,-0.140,1.350,-0.065,155.556,80.556,355.556,1027.778,25.000,N
693,-0.035,1.320,0.015,158.333,80.556,355.556,1033.333,5.556,N
694,-0.170,1.230,-0.125,161.111,83.333,341.667,1047.222,13.889,N
695,-0.220,1.195,-0.100,155.556,80.556,333.333,1041.667,5.556,N
696,-0.090,1.325,0.000,144.444,80.556,325.000,1013.889,27.778,N
697,-0.120,1.320,-0.125,147.222,83.333,325.000,961.111,52.778,N
698,-0.225,1.305,-0.110,161.111,83.333,361.111,1027.778,66.667,N
699,-0.225,1.225,-0.165,158.333,72.222,347.222,1100.000,72.222,N
700,-0.175,1.215,-0.120,150.000,83.333,327.778,1052.778,47.222,N
701,-0.240,1.140,-0.130,152.778,83.333,325.000,1022.222,30.556,N
702,-0.240,1.225,-0.125,152.778,80.556,344.444,1000.000,22.222,N
703,-0.070,1.390,-0.085,158.333,77.778,350.000,1005.556,5.556,N
704,-0.235,1.310,-0.170,163.889,86.111,358.333,1025.000,19.444,N
705,-0.290,1.240,-0.180,158.333,77.778,358.333,1091.667,66.667,N
706,-0.050,1.505,0.015,158.333,80.556,338.889,1080.556,11.111,N
707,-0.365,1.335,-0.190,155.556,80.556,336.111,986.111,94.444,N
708,-0.335,1.330,-0.150,152.778,80.556,322.222,963.889,22.222,N
709,-0.235,1.240,-0.045,155.556,77.778,336.111,986.111,22.222,N
710,-0.035,1.615,-0.030,161.111,86.111,352.778,977.778,8.333,N
711,-0.195,1.565,-0.020,158.333,77.778,350.000,1038.889,61.111,N
712,-0.125,1.485,-0.015,158.333,72.222,333.333,1038.889,0.000,N
713,-0.045,1.545,0.150,150.000,72.222,330.556,963.889,75.000,N
714,-0.100,1.575,-0.005,152.778,80.556,330.556,963.889,0.000,N
715,-0.205,1.445,-0.095,155.556,75.000,322.222,1000.000,36.111,N
716,-0.235,1.395,-0.145,152.778,72.222,344.444,1022.222,22.222,N
717,-0.170,1.370,-0.085,155.556,77.778,352.778,1047.222,25.000,N
718,-0.190,1.525,-0.080,158.333,80.556,341.667,1061.111,13.889,N
719,-0.250,1.320,-0.150,150.000,83.333,341.667,1033.333,27.778,N
720,-0.125,1.410,-0.050,147.222,77.778,316.667,972.222,61.111,N
721,-0.125,1.435,0.005,161.111,80.556,352.778,1016.667,44.444,N
722,-0.170,1.385,-0.040,158.333,80.556,355.556,1077.778,61.111,N
723,-0.165,1.425,-0.075,158.333,83.333,344.444,1077.778,0.000,N
724,-0.230,1.430,-0.065,152.778,77.778,336.111,1041.667,36.111,N
725,-0.230,1.430,-0.040,150.000,75.000,336.111,1016.667,25.000,N
726,-0.165,1.200,-0.030,152.778,80.556,338.889,1030.556,13.889,N
727,-0.075,1.460,0.005,150.000,77.778,336.111,986.111,44.444,N
728,-0.060,1.475,0.065,161.111,72.222,366.667,1055.556,69.444,N
729,-0.080,1.325,-0.020,155.556,77.778,338.889,1097.222,41.667,N
730,-0.125,1.310,-0.005,147.222,80.556,325.000,1027.778,69.444,N
731,-0.110,1.340,0.045,141.667,80.556,336.111,969.444,58.333,N
732,-0.040,1.330,0.060,144.444,72.222,347.222,988.889,19.444,N
733,-0.090,1.170,-0.020,161.111,75.000,358.333,1055.556,66.667,N
734,-0.080,1.325,-0.095,158.333,83.333,355.556,1038.889,16.667,N
735,-0.235,1.285,-0.165,152.778,80.556,344.444,1047.222,8.333,N
736,-0.230,1.195,-0.110,158.333,86.111,347.222,1044.444,2.778,N
737,-0.130,1.330,-0.005,150.000,83.333,336.111,988.889,55.556,N
738,-0.200,1.415,-0.050,144.444,83.333,336.111,938.889,50.000,N
739,-0.195,1.325,-0.080,161.111,77.778,352.778,1002.778,63.889,N
740,-0.140,1.370,-0.005,158.333,75.000,352.778,1044.444,41.667,N
741,-0.125,1.380,-0.115,161.111,77.778,347.222,1008.333,36.111,N
742,-0.250,1.285,-0.115,152.778,83.333,325.000,1005.556,2.778,N
743,-0.245,1.325,-0.125,144.444,75.000,333.333,958.333,47.222,N
744,-0.130,1.420,0.000,150.000,83.333,341.667,975.000,16.667,N
745,-0.145,1.525,0.000,158.333,69.444,344.444,963.889,11.111,N
746,-0.100,1.375,0.010,155.556,80.556,352.778,1025.000,61.111,N
747,-0.155,1.350,-0.075,150.000,72.222,347.222,1055.556,30.556,N
748,-0.115,1.465,-0.020,147.222,80.556,341.667,1002.778,52.778,N
749,-0.085,1.425,-0.010,141.667,77.778,333.333,994.444,8.333,N
750,-0.135,1.265,-0.040,147.222,72.222,330.556,988.889,5.556,N
751,-0.130,1.335,-0.025,158.333,77.778,369.444,1027.778,38.889,N
752,-0.125,1.315,-0.090,158.333,75.000,350.000,1052.778,25.000,N
753,-0.260,1.175,-0.125,147.222,77.778,352.778,1050.000,2.778,N
754,-0.245,1.200,-0.155,152.778,77.778,336.111,1033.333,16.667,N
755,-0.180,1.335,-0.095,147.222,77.778,336.111,963.889,69.444,N
756,-0.180,1.245,-0.070,155.556,80.556,355.556,1016.667,52.778,N
757,-0.220,1.315,-0.070,152.778,86.111,361.111,1044.444,27.778,N
758,-0.110,1.380,-0.125,158.333,80.556,355.556,1055.556,11.111,N
759,-0.305,1.305,-0.180,155.556,80.556,350.000,1083.333,27.778,N
760,-0.315,1.110,-0.175,150.000,83.333,327.778,1047.222,36.111,N
761,-0.240,1.275,-0.190,141.667,77.778,319.444,969.444,77.778,N
762,-0.270,1.305,-0.100,150.000,83.333,338.889,1013.889,44.444,N
763,-0.185,1.335,-0.070,158.333,75.000,355.556,1066.667,52.778,N
764,-0.050,1.550,-0.010,150.000,83.333,355.556,1050.000,16.667,N
765,-0.130,1.360,-0.070,155.556,83.333,338.889,1036.111,13.889,N
766,-0.155,1.350,-0.005,158.333,86.111,350.000,1019.444,16.667,N
767,0.070,1.665,0.195,147.222,80.556,322.222,991.667,27.778,N
768,0.000,1.545,0.080,144.444,75.000,344.444,944.444,47.222,N
769,-0.035,1.340,-0.050,161.111,80.556,372.222,983.333,38.889,N
770,-0.190,1.240,-0.090,161.111,83.333,358.333,1044.444,61.111,N
771,-0.160,1.280,-0.095,158.333,75.000,350.000,1038.889,5.556,N
772,-0.205,1.250,-0.160,152.778,83.333,338.889,977.778,61.111,N
773,-0.300,1.200,-0.160,150.000,86.111,338.889,969.444,8.333,N
774,-0.180,1.375,-0.100,158.333,83.333,361.111,997.222,27.778,N
775,-0.290,1.130,-0.245,161.111,75.000,350.000,1008.333,11.111,N
776,-0.335,1.205,-0.160,161.111,83.333,347.222,1036.111,27.778,N
777,-0.165,1.440,-0.030,155.556,80.556,336.111,1041.667,5.556,N
778,-0.150,1.240,-0.050,155.556,77.778,325.000,969.444,72.222,N
779,-0.065,1.505,0.025,155.556,72.222,325.000,988.889,19.444,N
780,-0.095,1.470,0.025,147.222,83.333,327.778,983.333,5.556,N
781,-0.040,1.550,-0.015,161.111,80.556,352.778,994.444,11.111,N
782,-0.150,1.425,0.000,155.556,80.556,358.333,1063.889,69.444,N
783,-0.035,1.530,0.105,152.778,80.556,336.111,1036.111,27.778,N
784,-0.020,1.450,0.015,144.444,83.333,325.000,963.889,72.222,N
785,-0.085,1.445,0.015,141.667,75.000,330.556,972.222,8.333,N
786,-0.040,1.435,0.090,158.333,80.556,352.778,1016.667,44.444,N
787,0.090,1.580,0.065,155.556,80.556,355.556,1016.667,0.000,N
788,0.020,1.575,0.050,152.778,83.333,341.667,1025.000,8.333,N
789,-0.085,1.435,-0.060,155.556,77.778,352.778,1025.000,0.000,N
790,-0.180,1.300,-0.070,147.222,72.222,330.556,1002.778,22.222,N
791,-0.130,1.345,-0.050,141.667,69.444,333.333,966.667,36.111,N
792,-0.190,1.135,-0.095,158.333,77.778,358.333,966.667,0.000,N
793,-0.260,1.210,-0.140,169.444,83.333,358.333,1047.222,80.556,N
794,-0.195,1.165,-0.065,161.111,86.111,361.111,1058.333,11.111,N
795,-0.195,1.305,-0.110,155.556,80.556,338.889,1005.556,52.778,N
796,-0.225,1.255,-0.155,147.222,83.333,344.444,991.667,13.889,N
797,-0.220,1.245,-0.110,158.333,77.778,333.333,1011.111,19.444,N
798,-0.175,1.215,-0.140,155.556,80.556,338.889,977.778,33.333,N
799,-0.235,1.310,-0.110,158.333,86.111,347.222,1033.333,55.556,N
800,-0.230,1.230,-0.055,161.111,83.333,341.667,1066.667,33.333,N
801,-0.020,1.550,0.030,147.222,77.778,350.000,1008.333,58.333,N
802,-0.085,1.380,0.020,147.222,86.111,333.333,986.111,22.222,N
803,-0.075,1.495,0.075,141.667,75.000,333.333,980.556,5.556,N
804,0.080,1.455,0.260,161.111,86.111,350.000,1008.333,27.778,N
805,0.260,1.605,0.265,161.111,86.111,344.444,1030.556,22.222,N
806,0.085,1.505,0.100,152.778,83.333,341.667,1036.111,5.556,N
807,-0.115,1.140,-0.115,155.556,80.556,352.778,1025.000,11.111,N
808,-0.240,1.120,-0.210,144.444,86.111,338.889,966.667,58.333,N
809,-0.355,1.155,-0.225,152.778,83.333,341.667,991.667,25.000,N
810,-0.335,1.130,-0.245,152.778,72.222,341.667,1016.667,25.000,N
811,-0.260,1.345,-0.175,155.556,86.111,363.889,1000.000,16.667,N
812,-0.300,1.180,-0.135,166.667,83.333,372.222,1058.333,58.333,N
813,-0.245,1.210,-0.135,155.556,83.333,341.667,1044.444,13.889,N
814,-0.160,1.475,-0.060,150.000,83.333,327.778,963.889,80.556,N
815,-0.200,1.270,-0.145,152.778,86.111,325.000,955.556,8.333,N
816,-0.300,1.315,-0.185,163.889,83.333,344.444,1011.111,55.556,N
817,-0.255,1.155,-0.135,161.111,86.111,350.000,1069.444,58.333,N
818,-0.135,1.525,-0.085,155.556,77.778,336.111,1005.556,63.889,N
819,-0.180,1.350,-0.025,152.778,83.333,341.667,997.222,8.333,N
820,-0.100,1.395,-0.005,152.778,83.333,325.000,1019.444,22.222,N
821,-0.030,1.510,0.080,144.444,77.778,322.222,969.444,50.000,N
822,-0.045,1.360,0.065,150.000,75.000,350.000,969.444,0.000,N
823,-0.050,1.420,0.040,158.333,86.111,363.889,1052.778,83.333,N
824,-0.085,1.310,-0.010,161.111,75.000,347.222,1083.333,30.556,N
825,-0.100,1.450,-0.050,150.000,83.333,344.444,1002.778,80.556,N
826,-0.170,1.380,-0.095,150.000,86.111,327.778,986.111,16.667,N
827,-0.265,1.150,-0.150,155.556,83.333,358.333,1013.889,27.778,N
828,-0.190,1.335,-0.085,155.556,86.111,350.000,1019.444,5.556,N
829,-0.195,1.265,-0.040,161.111,88.889,350.000,1030.556,11.111,N
830,-0.125,1.410,-0.040,163.889,77.778,347.222,1061.111,30.556,N
831,-0.135,1.360,-0.040,155.556,75.000,336.111,1027.778,33.333,N
832,-0.115,1.400,-0.055,150.000,69.444,325.000,977.778,50.000,N
833,-0.210,1.220,-0.135,158.333,83.333,327.778,1005.556,27.778,N
834,-0.295,1.240,-0.180,158.333,72.222,361.111,1011.111,5.556,N
835,-0.190,1.410,-0.125,163.889,83.333,344.444,1066.667,55.556,N
836,-0.205,1.305,-0.060,152.778,86.111,330.556,1033.333,33.333,N
837,-0.130,1.290,-0.010,150.000,80.556,330.556,1025.000,8.333,N
838,-0.110,1.375,0.030,144.444,77.778,333.333,983.333,41.667,N
839,-0.005,1.385,0.010,155.556,75.000,350.000,969.444,13.889,N
840,-0.090,1.330,0.035,158.333,80.556,352.778,1033.333,63.889,N
841,-0.090,1.395,0.020,152.778,86.111,341.667,1044.444,11.111,N
842,-0.035,1.535,0.005,161.111,80.556,352.778,1019.444,25.000,N
843,-0.140,1.380,-0.055,152.778,75.000,330.556,1002.778,16.667,N
844,-0.205,1.305,-0.105,141.667,72.222,330.556,983.333,19.444,N
845,-0.195,1.295,-0.105,155.556,83.333,341.667,977.778,5.556,N
846,-0.235,1.215,-0.085,161.111,83.333,372.222,1005.556,27.778,N
847,-0.260,1.210,-0.155,169.444,80.556,355.556,1086.111,80.556,N
848,-0.190,1.330,-0.095,155.556,83.333,338.889,1011.111,75.000,N
849,-0.200,1.450,-0.040,155.556,83.333,330.556,991.667,19.444,N
850,-0.150,1.405,-0.045,152.778,80.556,325.000,1005.556,13.889,N
851,-0.150,1.345,-0.130,161.111,83.333,344.444,961.111,44.444,N
852,-0.285,1.320,-0.170,166.667,86.111,344.444,1000.000,38.889,N
853,-0.195,1.400,-0.050,163.889,75.000,358.333,1052.778,52.778,N
854,-0.050,1.555,0.005,158.333,80.556,344.444,1013.889,38.889,N
855,-0.140,1.315,-0.055,150.000,83.333,327.778,986.111,27.778,N
856,-0.155,1.460,0.020,155.556,75.000,333.333,977.778,8.333,N
857,0.015,1.635,0.205,150.000,69.444,347.222,969.444,8.333,N
858,0.050,1.560,0.085,163.889,80.556,355.556,1013.889,44.444,N
859,-0.055,1.485,0.035,158.333,77.778,347.222,1050.000,36.111,N
860,-0.055,1.410,0.060,155.556,86.111,347.222,1044.444,5.556,N
861,-0.005,1.425,0.030,150.000,75.000,333.333,975.000,69.444,N
862,-0.170,1.295,-0.120,155.556,83.333,338.889,975.000,0.000,N
863,-0.310,1.190,-0.205,155.556,72.222,344.444,991.667,16.667,N
864,-0.235,1.060,-0.105,155.556,83.333,341.667,991.667,0.000,N
865,-0.140,1.485,-0.030,166.667,80.556,361.111,1002.778,11.111,N
866,-0.200,1.405,-0.185,155.556,75.000,347.222,1022.222,19.444,N
867,-0.310,1.230,-0.195,147.222,83.333,327.778,975.000,47.222,N
868,-0.190,1.435,-0.105,150.000,83.333,344.444,961.111,13.889,N
869,-0.155,1.505,-0.015,155.556,77.778,352.778,977.778,16.667,N
870,-0.090,1.470,0.065,166.667,83.333,375.000,1063.889,86.111,N
871,0.095,1.635,0.090,161.111,86.111,350.000,1041.667,22.222,N
872,-0.205,1.415,-0.110,158.333,80.556,341.667,1005.556,36.111,N
873,-0.240,1.380,-0.050,161.111,75.000,333.333,1044.444,38.889,N
874,-0.075,1.485,0.025,152.778,83.333,327.778,986.111,58.333,N
875,-0.125,1.430,-0.040,152.778,83.333,341.667,983.333,2.778,N
876,-0.110,1.360,0.040,141.667,80.556,352.778,1041.667,58.333,N
877,-0.080,1.430,-0.015,155.556,80.556,355.556,994.444,47.222,N
878,-0.210,1.265,-0.085,155.556,72.222,327.778,1011.111,16.667,N
879,-0.170,1.115,-0.060,147.222,69.444,313.889,933.333,77.778,N
880,-0.225,1.030,-0.130,155.556,86.111,341.667,872.222,61.111,N
881,-0.275,1.000,-0.070,158.333,80.556,336.111,919.444,47.222,N
882,-0.040,1.330,-0.020,158.333,77.778,355.556,919.444,0.000,N
883,-0.175,1.315,-0.090,163.889,77.778,350.000,988.889,69.444,N
884,-0.210,1.195,-0.110,163.889,83.333,327.778,1022.222,33.333,N
885,-0.125,1.245,-0.010,155.556,77.778,333.333,1022.222,0.000,N
886,0.000,1.455,-0.010,147.222,83.333,325.000,977.778,44.444,N
887,-0.165,1.310,-0.100,150.000,83.333,333.333,988.889,11.111,N
888,-0.215,1.145,-0.095,158.333,80.556,358.333,1033.333,44.444,N
889,-0.100,1.290,0.000,158.333,77.778,338.889,1080.556,47.222,N
890,-0.110,1.340,0.000,150.000,83.333,325.000,1047.222,33.333,N
891,-0.105,1.290,-0.015,150.000,83.333,338.889,1033.333,13.889,N
892,-0.085,1.300,0.085,150.000,69.444,344.444,1016.667,16.667,N
893,0.170,1.635,0.215,158.333,80.556,338.889,1002.778,13.889,N
894,0.015,1.335,0.060,163.889,80.556,355.556,1019.444,16.667,N
895,-0.105,1.300,-0.050,155.556,83.333,355.556,1044.444,25.000,N
896,-0.135,1.175,-0.065,163.889,72.222,344.444,1083.333,38.889,N
897,-0.165,1.160,-0.065,152.778,69.444,322.222,1002.778,80.556,N
898,-0.160,1.155,-0.035,152.778,83.333,330.556,991.667,11.111,N
899,-0.090,1.290,-0.035,147.222,72.222,311.111,986.111,5.556,N
900,-0.305,1.040,-0.235,155.556,77.778,355.556,1011.111,25.000,N
901,-0.445,-2.475,-0.090,180.556,0.000,300.000,1072.222,61.111,Q
902,-0.070,1.445,0.020,150.000,83.333,341.667,952.778,119.444,N
903,-0.240,1.160,-0.150,155.556,69.444,344.444,952.778,0.000,N
904,-0.220,0.965,-0.010,133.333,72.222,316.667,963.889,11.111,N
905,-0.105,1.355,-0.060,158.333,75.000,316.667,947.222,16.667,N
906,-0.150,1.255,-0.115,158.333,83.333,330.556,1000.000,52.778,N
907,-0.220,1.185,-0.155,161.111,83.333,347.222,1052.778,52.778,N
908,-0.105,1.220,0.035,163.889,75.000,352.778,1050.000,2.778,N
909,-0.020,1.475,0.065,152.778,83.333,327.778,966.667,83.333,N
910,-0.055,1.415,0.060,147.222,83.333,341.667,955.556,11.111,N
911,0.025,1.445,0.130,155.556,77.778,344.444,963.889,8.333,N
912,-0.055,1.315,-0.085,158.333,83.333,361.111,966.667,2.778,N
913,-0.260,1.175,-0.175,152.778,80.556,361.111,1019.444,52.778,N
914,-0.290,1.170,-0.155,155.556,83.333,355.556,1016.667,2.778,N
915,-0.240,1.115,-0.345,152.778,69.444,336.111,952.778,63.889,N
916,-0.480,0.775,-0.300,144.444,86.111,325.000,961.111,8.333,N
917,-0.305,1.075,-0.135,152.778,83.333,344.444,969.444,8.333,N
918,-0.260,1.205,0.025,152.778,83.333,352.778,955.556,13.889,N
919,-0.080,1.445,0.145,163.889,72.222,352.778,1008.333,52.778,N
920,-0.020,1.490,0.040,158.333,83.333,344.444,933.333,75.000,N
921,-0.175,1.395,-0.150,147.222,83.333,325.000,886.111,47.222,N
922,-0.275,1.275,-0.210,152.778,83.333,338.889,852.778,33.333,N
923,-0.250,1.235,-0.170,147.222,83.333,338.889,863.889,11.111,N
924,-0.350,1.215,-0.195,155.556,83.333,344.444,863.889,0.000,N
925,-0.260,1.300,-0.125,158.333,86.111,347.222,916.667,52.778,N
926,-0.290,1.215,-0.075,152.778,80.556,338.889,938.889,22.222,N
927,-0.110,1.420,-0.105,158.333,83.333,347.222,916.667,22.222,N
928,-0.225,1.295,-0.055,150.000,83.333,325.000,980.556,63.889,N
929,-0.145,1.430,-0.025,150.000,83.333,322.222,952.778,27.778,N
930,-0.155,1.235,-0.035,144.444,83.333,333.333,975.000,22.222,N
931,-0.040,1.450,-0.005,147.222,83.333,338.889,991.667,16.667,N
932,-0.070,1.440,-0.025,161.111,83.333,347.222,1061.111,69.444,N
933,-0.210,1.270,-0.115,150.000,75.000,350.000,1061.111,0.000,N
934,-0.205,1.275,-0.060,144.444,77.778,336.111,1000.000,61.111,N
935,-0.155,1.370,-0.115,152.778,80.556,338.889,963.889,36.111,N
936,-0.230,1.180,-0.080,152.778,83.333,341.667,1002.778,38.889,N
937,-0.185,1.355,-0.105,155.556,86.111,361.111,1027.778,25.000,N
938,-0.215,1.180,-0.090,161.111,86.111,361.111,1061.111,33.333,N
939,-0.160,1.335,-0.115,158.333,77.778,352.778,1011.111,50.000,N
940,-0.215,1.340,-0.085,152.778,83.333,336.111,1013.889,2.778,N
941,-0.175,1.265,-0.040,155.556,83.333,330.556,977.778,36.111,N
942,-0.090,1.385,0.020,147.222,80.556,341.667,963.889,13.889,N
943,-0.120,1.405,0.010,163.889,86.111,363.889,1016.667,52.778,N
944,-0.095,1.500,0.015,161.111,77.778,347.222,1050.000,33.333,N
945,-0.070,1.470,0.065,155.556,86.111,327.778,1025.000,25.000,N
946,0.040,1.500,0.210,147.222,77.778,311.111,975.000,50.000,N
947,0.070,1.500,0.160,152.778,83.333,330.556,952.778,22.222,N
948,-0.025,1.400,0.055,152.778,83.333,330.556,1000.000,47.222,N
949,-0.150,1.395,-0.080,155.556,83.333,344.444,1019.444,19.444,N
950,-0.095,1.435,0.030,158.333,72.222,344.444,1013.889,5.556,N
951,-0.140,1.460,0.010,158.333,83.333,330.556,1013.889,0.000,N
952,-0.175,1.400,0.020,150.000,83.333,319.444,958.333,55.556,N
953,-0.090,1.480,0.045,141.667,77.778,333.333,872.222,86.111,N
954,-0.125,1.460,0.015,147.222,69.444,325.000,869.444,2.778,N
955,-0.120,1.375,-0.020,158.333,86.111,336.111,883.333,13.889,N
956,-0.145,1.415,-0.035,161.111,72.222,350.000,980.556,97.222,N
957,-0.160,1.360,-0.035,158.333,77.778,333.333,1002.778,22.222,N
958,-0.060,1.340,0.050,155.556,80.556,338.889,977.778,25.000,N
959,-0.165,1.310,-0.120,158.333,72.222,313.889,972.222,5.556,N
960,-0.260,1.155,-0.170,147.222,83.333,327.778,986.111,13.889,N
961,-0.265,1.255,-0.130,158.333,72.222,344.444,1016.667,30.556,N
962,-0.175,1.270,0.055,152.778,75.000,352.778,1061.111,44.444,N
963,-0.060,1.440,0.010,163.889,80.556,361.111,1025.000,36.111,N
964,-0.120,1.410,-0.010,150.000,75.000,333.333,1041.667,16.667,N
965,-0.100,1.250,-0.005,144.444,83.333,327.778,1002.778,38.889,N
966,-0.070,1.415,0.020,158.333,77.778,350.000,1030.556,27.778,N
967,-0.085,1.370,0.035,158.333,83.333,358.333,1047.222,16.667,N
968,0.015,1.470,0.125,155.556,83.333,358.333,1050.000,2.778,N
969,-0.105,1.330,-0.040,161.111,75.000,347.222,1025.000,25.000,N
970,-0.205,1.170,-0.080,158.333,83.333,336.111,1019.444,5.556,N
971,-0.155,1.205,-0.065,155.556,80.556,325.000,1008.333,11.111,N
972,-0.195,1.250,-0.100,152.778,77.778,333.333,983.333,25.000,N
973,-0.165,1.245,-0.040,158.333,77.778,350.000,936.111,47.222,N
974,-0.205,1.210,-0.075,166.667,88.889,363.889,1022.222,86.111,N
975,-0.060,1.500,0.040,161.111,77.778,347.222,963.889,58.333,N
976,-0.215,1.240,0.015,155.556,80.556,325.000,911.111,52.778,N
977,0.055,1.520,0.020,188.889,72.222,325.000,861.111,50.000,N
978,-0.100,1.375,-0.055,163.889,83.333,330.556,844.444,16.667,N
979,0.015,1.735,0.070,169.444,63.889,338.889,861.111,16.667,N
980,-0.050,1.720,0.055,150.000,86.111,333.333,861.111,0.000,N
981,-0.075,1.200,-0.180,155.556,86.111,352.778,905.556,44.444,N
982,-0.340,1.015,-0.220,158.333,77.778,352.778,900.000,5.556,N
983,-0.295,1.090,-0.120,138.889,77.778,322.222,902.778,2.778,N
984,-0.190,0.950,-0.075,150.000,77.778,305.556,877.778,25.000,N
985,-0.145,1.100,-0.075,136.111,69.444,316.667,872.222,5.556,N
986,-0.135,1.360,0.040,150.000,69.444,330.556,908.333,36.111,N
987,-0.215,1.285,-0.130,161.111,83.333,341.667,969.444,61.111,N
988,-0.255,1.185,-0.115,155.556,86.111,341.667,1000.000,30.556,N
989,-0.225,1.110,-0.080,147.222,86.111,322.222,986.111,13.889,N
990,-0.185,1.165,-0.090,150.000,83.333,341.667,961.111,25.000,N
991,-0.165,1.195,-0.020,141.667,77.778,322.222,1008.333,47.222,N
992,-0.090,1.335,0.005,155.556,80.556,322.222,966.667,41.667,N
993,-0.135,1.300,-0.020,155.556,83.333,352.778,1005.556,38.889,N
994,-0.160,1.175,-0.055,152.778,86.111,344.444,975.000,30.556,N
995,-0.090,1.110,-0.060,152.778,83.333,327.778,916.667,58.333,N
996,-0.180,1.075,-0.055,144.444,83.333,313.889,908.333,8.333,N
997,-0.120,1.335,0.010,147.222,83.333,327.778,919.444,11.111,N
998,-0.130,1.095,-0.065,155.556,83.333,355.556,975.000,55.556,N
999,-0.195,1.200,-0.060,161.111,83.333,344.444,1061.111,86.111,N
1000,-0.175,1.195,-0.045,152.778,75.000,350.000,1061.111,0.000,N
1001,-0.140,1.215,-0.045,150.000,83.333,327.778,1055.556,5.556,N
1002,-0.135,1.145,-0.065,152.778,83.333,341.667,1019.444,36.111,N
1003,-0.180,1.165,-0.080,155.556,80.556,338.889,1033.333,13.889,N
1004,-0.180,1.080,-0.045,158.333,83.333,344.444,1030.556,2.778,N
1005,-0.105,1.270,-0.065,161.111,86.111,347.222,1022.222,8.333,N
1006,-0.215,1.060,-0.120,166.667,86.111,358.333,1050.000,27.778,N
1007,-0.240,1.115,-0.110,161.111,75.000,330.556,1008.333,41.667,N
1008,-0.230,1.135,-0.060,150.000,80.556,322.222,944.444,63.889,N
1009,-0.090,1.315,-0.095,155.556,83.333,327.778,908.333,36.111,N
1010,-0.255,1.230,-0.120,161.111,83.333,341.667,952.778,44.444,N
1011,-0.270,1.030,-0.115,166.667,80.556,355.556,1008.333,55.556,N
1012,-0.085,1.505,0.080,161.111,83.333,333.333,958.333,50.000,N
1013,-0.195,1.340,-0.080,158.333,77.778,336.111,894.444,63.889,N
1014,-0.255,1.200,-0.075,158.333,80.556,338.889,916.667,22.222,N
1015,-0.250,1.220,-0.060,161.111,86.111,325.000,925.000,8.333,N
1016,-0.220,1.355,-0.010,150.000,83.333,327.778,916.667,8.333,N
1017,-0.205,1.340,-0.040,163.889,77.778,347.222,966.667,50.000,N
1018,-0.175,1.380,-0.020,163.889,86.111,350.000,1000.000,33.333,N
1019,-0.150,1.380,-0.040,161.111,83.333,347.222,1013.889,13.889,N
1020,-0.170,1.350,-0.045,152.778,80.556,325.000,936.111,77.778,N
1021,-0.125,1.625,0.070,144.444,77.778,322.222,858.333,77.778,N
1022,-0.250,1.640,-0.050,150.000,58.333,338.889,830.556,27.778,N
1023,-0.275,1.455,-0.125,150.000,86.111,344.444,844.444,13.889,N
1024,-0.250,1.500,-0.055,155.556,86.111,344.444,852.778,8.333,N
1025,-0.235,1.485,-0.145,155.556,86.111,344.444,850.000,2.778,N
1026,-0.150,1.380,-0.135,147.222,83.333,338.889,900.000,50.000,N
1027,-0.225,1.465,-0.095,150.000,72.222,333.333,894.444,5.556,N
1028,-0.170,1.410,-0.085,147.222,77.778,316.667,944.444,50.000,N
1029,-0.185,1.350,-0.090,150.000,86.111,327.778,958.333,13.889,N
1030,-0.155,1.365,-0.085,161.111,83.333,344.444,1013.889,55.556,N
1031,-0.190,1.295,-0.110,161.111,75.000,333.333,1063.889,50.000,N
1032,-0.160,1.390,-0.045,152.778,77.778,322.222,1011.111,52.778,N
1033,-0.135,1.340,-0.060,150.000,80.556,325.000,977.778,33.333,N
1034,-0.175,1.180,-0.070,147.222,83.333,330.556,916.667,61.111,N
1035,-0.215,1.225,-0.085,150.000,83.333,344.444,913.889,2.778,N
1036,-0.130,1.255,-0.030,147.222,72.222,333.333,897.222,16.667,N
1037,-0.125,1.515,0.070,155.556,77.778,352.778,947.222,50.000,N
1038,-0.040,1.515,0.045,163.889,72.222,344.444,991.667,44.444,N
1039,-0.095,1.405,-0.045,150.000,80.556,322.222,1005.556,13.889,N
1040,-0.215,1.305,-0.120,150.000,80.556,305.556,983.333,22.222,N
1041,-0.250,1.220,-0.150,147.222,80.556,338.889,966.667,16.667,N
1042,-0.260,1.290,-0.120,155.556,80.556,350.000,1016.667,50.000,N
1043,-0.215,1.345,-0.070,158.333,86.111,358.333,1066.667,50.000,N
1044,-0.175,1.295,-0.035,155.556,77.778,352.778,1069.444,2.778,N
1045,-0.125,1.380,0.025,150.000,72.222,325.000,1025.000,44.444,N
1046,-0.060,1.365,0.055,155.556,77.778,336.111,1011.111,13.889,N
1047,-0.045,1.420,0.060,155.556,83.333,341.667,994.444,16.667,N
1048,-0.065,1.350,0.015,161.111,86.111,341.667,997.222,2.778,N
1049,-0.135,1.215,-0.010,166.667,83.333,341.667,1055.556,58.333,N
1050,-0.120,1.365,-0.010,161.111,75.000,333.333,1038.889,16.667,N
1051,-0.145,1.130,0.050,155.556,69.444,319.444,1019.444,19.444,N
1052,-0.030,1.540,0.005,150.000,69.444,311.111,919.444,100.000,N
1053,-0.165,1.455,0.010,147.222,83.333,327.778,916.667,2.778,N
1054,-0.085,1.380,0.065,158.333,86.111,341.667,988.889,72.222,N
1055,-0.125,1.430,-0.015,163.889,83.333,344.444,944.444,44.444,N
1056,-0.225,1.215,-0.095,163.889,77.778,338.889,975.000,30.556,N
1057,-0.185,1.510,-0.045,155.556,80.556,319.444,930.556,44.444,N
1058,-0.190,1.700,-0.025,155.556,72.222,338.889,847.222,83.333,N
1059,-0.265,1.615,-0.005,155.556,75.000,327.778,827.778,19.444,N
1060,-0.225,1.545,-0.095,147.222,83.333,341.667,822.222,5.556,N
1061,-0.230,1.445,-0.135,155.556,80.556,341.667,822.222,0.000,N
1062,-0.245,1.405,-0.140,166.667,86.111,347.222,913.889,91.667,N
1063,-0.250,1.380,-0.080,161.111,86.111,333.333,977.778,63.889,N
1064,-0.160,1.370,-0.045,147.222,83.333,322.222,930.556,47.222,N
1065,-0.150,1.395,-0.010,147.222,83.333,325.000,877.778,52.778,N
1066,-0.110,1.395,-0.075,141.667,80.556,325.000,866.667,11.111,N
1067,-0.235,1.360,-0.085,152.778,83.333,355.556,919.444,52.778,N
1068,-0.155,1.460,-0.045,155.556,75.000,350.000,1005.556,86.111,N
1069,-0.145,1.340,-0.065,155.556,72.222,347.222,1050.000,44.444,N
1070,-0.130,1.270,0.010,158.333,77.778,350.000,1063.889,13.889,N
1071,-0.070,1.400,0.065,150.000,77.778,336.111,1047.222,16.667,N
1072,-0.035,1.290,0.045,147.222,72.222,330.556,1025.000,22.222,N
1073,-0.065,1.395,0.045,158.333,80.556,355.556,1038.889,13.889,N
1074,-0.100,1.285,0.005,169.444,83.333,352.778,1091.667,52.778,N
1075,-0.130,1.260,-0.070,161.111,83.333,338.889,1097.222,5.556,N
1076,-0.210,1.170,-0.045,152.778,72.222,316.667,1036.111,61.111,N
1077,-0.190,1.400,-0.080,152.778,83.333,319.444,941.667,94.444,N
1078,-0.210,1.355,-0.075,158.333,77.778,333.333,991.667,50.000,N
1079,-0.220,1.375,-0.065,163.889,83.333,338.889,991.667,0.000,N
1080,-0.185,1.405,-0.010,158.333,75.000,344.444,994.444,2.778,N
1081,-0.210,1.520,-0.065,155.556,77.778,333.333,1011.111,16.667,N
1082,-0.250,1.415,-0.100,150.000,80.556,338.889,994.444,16.667,N
1083,-0.230,1.335,-0.050,150.000,83.333,325.000,980.556,13.889,N
1084,-0.190,1.290,-0.050,144.444,77.778,316.667,958.333,22.222,N
1085,-0.150,1.275,-0.035,161.111,83.333,358.333,980.556,22.222,N
1086,-0.115,1.270,0.025,152.778,83.333,341.667,1047.222,66.667,N
1087,-0.110,1.485,0.085,152.778,83.333,338.889,1000.000,47.222,N
1088,-0.105,1.370,0.035,152.778,86.111,336.111,988.889,11.111,N
1089,-0.110,1.330,0.070,147.222,77.778,330.556,969.444,19.444,N
1090,-0.060,1.450,0.065,158.333,83.333,341.667,991.667,22.222,N
1091,-0.085,1.390,0.010,155.556,80.556,341.667,1002.778,11.111,N
1092,-0.150,1.260,-0.025,163.889,86.111,347.222,1030.556,27.778,N
1093,-0.180,1.255,-0.035,163.889,77.778,366.667,1058.333,27.778,N
1094,-0.090,1.440,0.030,155.556,75.000,338.889,1000.000,58.333,N
1095,-0.125,1.360,0.040,150.000,75.000,330.556,969.444,30.556,N
1096,-0.135,1.415,-0.015,155.556,77.778,333.333,977.778,8.333,N
1097,-0.175,1.315,-0.090,161.111,77.778,338.889,1005.556,27.778,N
1098,-0.145,1.330,-0.075,166.667,86.111,344.444,1025.000,19.444,N
1099,-0.250,1.285,-0.065,163.889,83.333,341.667,1005.556,19.444,N
1100,-0.200,1.405,-0.010,155.556,83.333,338.889,994.444,11.111,N
1101,-0.180,1.325,-0.020,161.111,86.111,330.556,1000.000,5.556,N
1102,-0.140,1.425,-0.060,158.333,75.000,330.556,941.667,58.333,N
1103,-0.205,1.415,-0.050,161.111,75.000,330.556,966.667,25.000,N
1104,-0.200,1.385,-0.045,161.111,72.222,344.444,1036.111,69.444,N
1105,-0.105,1.390,0.055,166.667,72.222,352.778,1041.667,5.556,N
1106,-0.040,1.525,-0.025,152.778,80.556,322.222,983.333,58.333,N
1107,-0.195,1.470,-0.070,152.778,83.333,322.222,944.444,38.889,N
1108,-0.255,1.310,-0.055,152.778,86.111,344.444,950.000,5.556,N
1109,-0.150,1.350,0.005,166.667,86.111,336.111,1008.333,58.333,N
1110,-0.140,1.615,-0.035,155.556,86.111,344.444,961.111,47.222,N
1111,-0.270,1.460,-0.075,155.556,83.333,341.667,916.667,44.444,N
1112,-0.190,1.470,-0.040,150.000,75.000,325.000,961.111,44.444,N
1113,-0.190,1.380,0.015,147.222,83.333,336.111,908.333,52.778,N
1114,-0.110,1.515,-0.005,152.778,83.333,325.000,911.111,2.778,N
1115,-0.180,1.500,-0.015,152.778,83.333,325.000,902.778,8.333,N
1116,-0.175,1.355,-0.055,163.889,86.111,363.889,963.889,61.111,N
1117,-0.160,1.355,-0.065,169.444,83.333,355.556,1044.444,80.556,N
1118,-0.185,1.415,-0.135,158.333,80.556,338.889,977.778,66.667,N
1119,-0.290,1.210,-0.140,155.556,72.222,327.778,975.000,2.778,N
1120,-0.245,1.340,-0.135,144.444,75.000,316.667,963.889,11.111,N
1121,-0.155,1.320,-0.080,150.000,83.333,341.667,972.222,8.333,N
1122,-0.165,1.440,-0.015,152.778,83.333,344.444,1002.778,30.556,N
1123,-0.165,1.380,-0.055,155.556,77.778,352.778,1041.667,38.889,N
1124,-0.190,1.280,-0.105,158.333,77.778,352.778,1047.222,5.556,N
1125,-0.225,1.360,-0.115,147.222,80.556,322.222,994.444,52.778,N
1126,-0.265,1.175,-0.120,147.222,83.333,327.778,980.556,13.889,N
1127,-0.230,1.185,-0.095,155.556,75.000,333.333,980.556,0.000,N
1128,-0.235,1.325,-0.125,158.333,83.333,372.222,961.111,19.444,N
1129,-0.305,1.170,-0.145,161.111,80.556,369.444,1022.222,61.111,N
1130,-0.280,1.305,-0.090,158.333,77.778,352.778,944.444,77.778,N
1131,-0.225,1.165,-0.060,155.556,72.222,327.778,891.667,52.778,N
1132,-0.080,1.450,-0.060,152.778,86.111,333.333,863.889,27.778,N
1133,-0.175,1.470,0.010,150.000,72.222,333.333,902.778,38.889,N
1134,-0.140,1.360,-0.025,152.778,86.111,333.333,936.111,33.333,N
1135,-0.215,1.330,-0.135,152.778,72.222,344.444,966.667,30.556,N
1136,-0.240,1.415,-0.135,161.111,86.111,347.222,969.444,2.778,N
1137,-0.240,1.355,-0.050,158.333,77.778,347.222,991.667,22.222,N
1138,-0.130,1.430,0.030,152.778,83.333,327.778,977.778,13.889,N
1139,-0.120,1.455,-0.030,144.444,80.556,322.222,966.667,11.111,N
1140,-0.155,1.310,-0.070,163.889,86.111,350.000,977.778,11.111,N
1141,-0.190,1.455,-0.025,163.889,83.333,361.111,1052.778,75.000,N
1142,-0.120,1.440,-0.020,152.778,83.333,358.333,1036.111,16.667,N
1143,-0.095,1.560,-0.010,161.111,86.111,341.667,980.556,55.556,N
1144,-0.170,1.410,-0.025,152.778,86.111,333.333,947.222,33.333,N
1145,-0.150,1.560,-0.025,158.333,80.556,336.111,977.778,30.556,N
1146,-0.140,1.440,-0.045,155.556,72.222,344.444,988.889,11.111,N
1147,-0.145,1.365,-0.020,166.667,83.333,361.111,1005.556,16.667,N
1148,-0.150,1.395,-0.005,166.667,83.333,369.444,1061.111,55.556,N
1149,-0.105,1.505,0.065,152.778,80.556,338.889,988.889,72.222,N
1150,-0.080,1.620,0.040,152.778,83.333,327.778,913.889,75.000,N
1151,-0.110,1.575,0.010,155.556,83.333,322.222,952.778,38.889,N
1152,-0.105,1.445,-0.020,155.556,80.556,341.667,972.222,19.444,N
1153,-0.140,1.435,-0.040,163.889,80.556,347.222,1038.889,66.667,N
1154,-0.130,1.385,-0.010,158.333,75.000,350.000,1033.333,5.556,N
1155,-0.145,1.400,-0.025,158.333,72.222,338.889,1027.778,5.556,N
1156,-0.055,1.555,-0.015,150.000,77.778,316.667,986.111,41.667,N
1157,-0.145,1.475,-0.025,150.000,83.333,313.889,952.778,33.333,N
1158,-0.170,1.455,-0.065,147.222,72.222,341.667,969.444,16.667,N
1159,-0.165,1.310,-0.045,152.778,86.111,358.333,1022.222,52.778,N
1160,-0.090,1.530,-0.050,158.333,77.778,355.556,1008.333,13.889,N
1161,-0.180,1.410,-0.065,152.778,72.222,330.556,1016.667,8.333,N
1162,-0.220,1.450,-0.085,141.667,77.778,336.111,980.556,36.111,N
1163,-0.190,1.295,-0.130,152.778,80.556,333.333,966.667,13.889,N
1164,-0.230,1.410,-0.100,147.222,80.556,341.667,938.889,27.778,N
1165,-0.220,1.420,-0.080,158.333,80.556,338.889,975.000,36.111,N
1166,-0.180,1.405,-0.075,152.778,72.222,344.444,961.111,13.889,N
1167,-0.150,1.360,-0.080,155.556,86.111,341.667,952.778,8.333,N
1168,-0.180,1.420,-0.050,147.222,75.000,336.111,938.889,13.889,N
1169,-0.185,1.360,-0.015,152.778,75.000,333.333,969.444,30.556,N
1170,-0.125,1.415,0.005,150.000,77.778,338.889,991.667,22.222,N
1171,-0.095,1.430,0.005,166.667,77.778,369.444,1008.333,16.667,N
1172,-0.120,1.365,-0.005,161.111,75.000,350.000,1069.444,61.111,N
1173,-0.140,1.500,-0.015,152.778,83.333,347.222,1050.000,19.444,N
1174,-0.150,1.380,-0.060,155.556,75.000,325.000,1027.778,22.222,N
1175,-0.165,1.380,-0.125,158.333,77.778,327.778,975.000,52.778,N
1176,-0.280,1.290,-0.120,161.111,80.556,344.444,1025.000,50.000,N
1177,-0.205,1.345,-0.090,166.667,83.333,344.444,1052.778,27.778,N
1178,-0.110,1.460,-0.055,161.111,77.778,352.778,1033.333,19.444,N
1179,-0.205,1.405,-0.075,161.111,77.778,338.889,1066.667,33.333,N
1180,-0.255,1.430,-0.095,147.222,80.556,325.000,1011.111,55.556,N
1181,-0.170,1.335,-0.065,152.778,77.778,325.000,988.889,22.222,N
1182,-0.180,1.465,-0.100,150.000,80.556,344.444,977.778,11.111,N
1183,-0.210,1.460,-0.085,166.667,77.778,366.667,1061.111,83.333,N
1184,-0.185,1.405,-0.070,158.333,75.000,350.000,1077.778,16.667,N
1185,-0.120,1.530,-0.055,152.778,72.222,330.556,1002.778,75.000,N
1186,-0.205,1.380,-0.050,155.556,86.111,341.667,1008.333,5.556,N
1187,-0.115,1.410,-0.025,150.000,80.556,336.111,988.889,19.444,N
1188,-0.130,1.445,-0.010,152.778,77.778,350.000,966.667,22.222,N
1189,-0.155,1.400,-0.055,163.889,75.000,363.889,1038.889,72.222,N
1190,-0.180,1.310,-0.140,166.667,77.778,358.333,1058.333,19.444,N
1191,-0.215,1.300,-0.160,161.111,72.222,327.778,1025.000,33.333,N
1192,-0.255,1.390,-0.145,155.556,83.333,325.000,975.000,50.000,N
1193,-0.240,1.390,-0.105,152.778,72.222,333.333,972.222,2.778,N
1194,-0.180,1.495,-0.105,163.889,80.556,355.556,975.000,2.778,N
1195,-0.220,1.425,-0.090,166.667,80.556,352.778,1044.444,69.444,N
1196,-0.200,1.460,-0.095,163.889,75.000,344.444,1033.333,11.111,N
1197,-0.135,1.550,-0.110,152.778,69.444,336.111,1000.000,33.333,N
1198,-0.215,1.525,-0.065,155.556,72.222,327.778,980.556,19.444,N
1199,-0.150,1.480,-0.065,144.444,69.444,325.000,991.667,11.111,N
1200,-0.110,1.560,-0.075,152.778,75.000,333.333,969.444,22.222,N
1201,-0.215,1.460,-0.090,166.667,83.333,358.333,1013.889,44.444,N
1202,-0.200,1.410,-0.110,166.667,86.111,355.556,1086.111,72.222,N
1203,-0.120,1.560,-0.045,150.000,75.000,319.444,1002.778,83.333,N
1204,-0.160,1.445,-0.030,152.778,77.778,327.778,961.111,41.667,N
1205,-0.130,1.490,-0.035,152.778,86.111,341.667,988.889,27.778,N
1206,-0.145,1.485,-0.105,158.333,83.333,358.333,977.778,11.111,N
1207,-0.295,1.390,-0.175,163.889,77.778,361.111,1033.333,55.556,N
1208,-0.315,1.315,-0.220,158.333,77.778,350.000,1025.000,8.333,N
1209,-0.305,1.500,-0.125,158.333,77.778,352.778,997.222,27.778,N
1210,-0.220,1.575,-0.040,147.222,72.222,336.111,983.333,13.889,N
1211,-0.155,1.515,-0.060,150.000,83.333,338.889,961.111,22.222,N
1212,-0.110,1.520,-0.040,161.111,75.000,344.444,963.889,2.778,N
1213,-0.155,1.555,-0.055,166.667,86.111,361.111,1019.444,55.556,N
1214,-0.170,1.420,-0.060,166.667,83.333,352.778,1055.556,36.111,N
1215,-0.140,1.480,-0.035,155.556,83.333,341.667,980.556,75.000,N
1216,-0.170,1.490,-0.080,152.778,80.556,336.111,969.444,11.111,N
1217,-0.185,1.405,-0.125,155.556,75.000,338.889,988.889,19.444,N
1218,-0.250,1.380,-0.135,163.889,80.556,347.222,969.444,19.444,N
1219,-0.235,1.395,-0.115,158.333,72.222,347.222,1030.556,61.111,N
1220,-0.180,1.490,-0.065,158.333,80.556,338.889,994.444,36.111,N
1221,-0.175,1.425,-0.025,155.556,75.000,338.889,1019.444,25.000,N
1222,-0.140,1.355,-0.070,147.222,83.333,330.556,983.333,36.111,N
1223,-0.240,1.345,-0.155,150.000,83.333,336.111,947.222,36.111,N
1224,-0.250,1.305,-0.185,155.556,86.111,361.111,977.778,30.556,N
1225,-0.295,1.365,-0.125,161.111,77.778,350.000,1025.000,47.222,N
1226,-0.255,1.395,-0.140,158.333,77.778,333.333,1047.222,22.222,N
1227,-0.180,1.445,-0.130,144.444,72.222,344.444,988.889,58.333,N
1228,-0.230,1.525,-0.055,147.222,83.333,338.889,938.889,50.000,N
1229,-0.230,1.500,-0.070,152.778,77.778,338.889,936.111,2.778,N
1230,-0.210,1.350,-0.085,158.333,75.000,347.222,941.667,5.556,N
1231,-0.200,1.455,-0.070,161.111,72.222,341.667,919.444,22.222,N
1232,-0.195,1.355,-0.045,158.333,80.556,369.444,925.000,5.556,N
1233,-0.125,1.510,-0.045,163.889,86.111,338.889,963.889,38.889,N
1234,-0.165,1.320,-0.055,150.000,80.556,316.667,952.778,11.111,N
1235,-0.145,1.460,-0.025,147.222,75.000,333.333,936.111,16.667,N
1236,-0.060,1.570,0.025,147.222,80.556,338.889,958.333,22.222,N
1237,-0.105,1.570,0.005,155.556,83.333,355.556,986.111,27.778,N
1238,-0.125,1.435,0.020,158.333,83.333,355.556,1066.667,80.556,N
1239,-0.095,1.400,0.000,152.778,72.222,333.333,1038.889,27.778,N
1240,-0.125,1.400,-0.100,155.556,69.444,341.667,988.889,50.000,N
1241,-0.275,1.220,-0.155,147.222,86.111,330.556,997.222,8.333,N
1242,-0.270,1.375,-0.200,150.000,83.333,338.889,955.556,41.667,N
1243,-0.295,1.330,-0.175,163.889,75.000,363.889,997.222,41.667,N
1244,-0.315,1.345,-0.200,166.667,80.556,350.000,1047.222,50.000,N
1245,-0.255,1.370,-0.145,163.889,83.333,352.778,1058.333,11.111,N
1246,-0.230,1.365,-0.165,152.778,80.556,319.444,983.333,75.000,N
1247,-0.305,1.270,-0.215,155.556,75.000,330.556,972.222,11.111,N
1248,-0.315,1.360,-0.145,161.111,77.778,352.778,1013.889,41.667,N
1249,-0.165,1.480,-0.115,166.667,77.778,358.333,1000.000,13.889,N
1250,-0.220,1.540,-0.060,169.444,83.333,344.444,1030.556,30.556,N
1251,-0.110,1.600,0.030,158.333,75.000,333.333,1025.000,5.556,N
1252,-0.110,1.525,0.010,161.111,80.556,336.111,961.111,63.889,N
1253,-0.150,1.435,-0.085,152.778,75.000,325.000,963.889,2.778,N
1254,-0.145,1.485,0.045,152.778,69.444,327.778,944.444,19.444,N
1255,0.030,1.635,0.040,161.111,86.111,366.667,930.556,13.889,N
1256,-0.135,1.485,-0.045,166.667,83.333,344.444,1005.556,75.000,N
1257,-0.210,1.330,-0.140,161.111,77.778,338.889,1005.556,0.000,N
1258,-0.270,1.260,-0.130,150.000,66.667,322.222,966.667,38.889,N
1259,-0.210,1.330,-0.150,147.222,80.556,319.444,930.556,36.111,N
1260,-0.255,1.275,-0.125,155.556,83.333,341.667,980.556,50.000,N
1261,-0.225,1.340,-0.135,150.000,72.222,344.444,1016.667,36.111,N
1262,-0.165,1.485,-0.145,158.333,80.556,341.667,1019.444,2.778,N
1263,-0.220,1.400,-0.105,158.333,83.333,355.556,1036.111,16.667,N
1264,-0.200,1.375,-0.130,152.778,72.222,327.778,1038.889,2.778,N
1265,-0.200,1.415,-0.140,136.111,69.444,322.222,955.556,83.333,N
1266,-0.245,1.410,-0.140,152.778,75.000,341.667,952.778,2.778,N
1267,-0.190,1.420,-0.070,163.889,83.333,358.333,1016.667,63.889,N
1268,-0.135,1.370,0.010,166.667,83.333,375.000,1063.889,47.222,N
1269,-0.065,1.550,0.010,155.556,83.333,344.444,1019.444,44.444,N
1270,-0.220,1.560,-0.135,150.000,83.333,344.444,963.889,55.556,N
1271,-0.215,1.425,-0.025,158.333,86.111,344.444,966.667,2.778,N
1272,-0.130,1.405,0.025,155.556,75.000,336.111,961.111,5.556,N
1273,-0.060,1.415,0.055,158.333,86.111,358.333,972.222,11.111,N
1274,-0.080,1.355,0.000,163.889,77.778,350.000,977.778,5.556,N
1275,-0.140,1.410,-0.110,163.889,75.000,347.222,986.111,8.333,N
1276,-0.300,1.255,-0.165,158.333,75.000,336.111,975.000,11.111,N
1277,-0.270,1.265,-0.160,155.556,75.000,316.667,950.000,25.000,N
1278,-0.220,1.335,-0.135,152.778,86.111,341.667,913.889,36.111,N
1279,-0.195,1.335,-0.070,161.111,80.556,366.667,972.222,58.333,N
1280,-0.210,1.435,-0.055,163.889,86.111,372.222,969.444,2.778,N
1281,-0.230,1.300,-0.060,158.333,80.556,358.333,994.444,25.000,N
1282,-0.155,1.490,-0.105,147.222,75.000,336.111,941.667,52.778,N
1283,-0.190,1.585,-0.120,161.111,75.000,333.333,880.556,61.111,N
1284,-0.195,1.375,-0.055,155.556,75.000,327.778,894.444,13.889,N
1285,-0.140,1.500,-0.015,155.556,77.778,347.222,883.333,11.111,N
1286,-0.145,1.570,0.015,147.222,86.111,352.778,922.222,38.889,N
1287,-0.005,1.670,-0.035,158.333,88.889,344.444,997.222,75.000,N
1288,-0.115,1.485,0.015,155.556,75.000,355.556,966.667,30.556,N
1289,-0.090,1.415,0.020,152.778,86.111,319.444,913.889,52.778,N
1290,-0.090,1.480,0.065,155.556,75.000,336.111,919.444,5.556,N
1291,-0.050,1.390,0.040,158.333,75.000,347.222,933.333,13.889,N
1292,-0.095,1.370,-0.015,163.889,86.111,352.778,983.333,50.000,N
1293,-0.175,1.320,-0.120,161.111,77.778,369.444,980.556,2.778,N
1294,-0.285,1.225,-0.190,155.556,83.333,341.667,1011.111,30.556,N
1295,-0.290,1.235,-0.195,155.556,80.556,338.889,1002.778,8.333,N
1296,-0.225,1.325,-0.160,147.222,75.000,333.333,955.556,47.222,N
1297,-0.265,1.310,-0.105,141.667,83.333,338.889,941.667,13.889,N
1298,-0.220,1.410,-0.035,155.556,83.333,355.556,983.333,41.667,N
1299,-0.230,1.460,-0.070,163.889,77.778,363.889,975.000,8.333,N
1300,-0.215,1.495,-0.145,166.667,83.333,355.556,1011.111,36.111,N
1301,-0.230,1.295,-0.125,158.333,77.778,336.111,986.111,25.000,N
1302,-0.225,1.250,-0.140,150.000,83.333,327.778,927.778,58.333,N
1303,-0.230,1.285,-0.165,158.333,83.333,341.667,966.667,38.889,N
1304,-0.220,1.275,-0.010,158.333,80.556,341.667,969.444,2.778,N
1305,-0.010,1.595,-0.015,158.333,77.778,350.000,952.778,16.667,N
1306,-0.195,1.290,-0.025,163.889,80.556,358.333,983.333,30.556,N
1307,-0.010,1.705,0.055,161.111,77.778,347.222,955.556,27.778,N
1308,-0.105,1.555,0.020,155.556,77.778,336.111,958.333,2.778,N
1309,-0.075,1.535,0.050,152.778,77.778,327.778,947.222,11.111,N
1310,-0.075,1.480,0.045,152.778,77.778,355.556,952.778,5.556,N
1311,-0.055,1.545,0.050,163.889,80.556,358.333,1002.778,50.000,N
1312,-0.100,1.575,-0.005,163.889,80.556,347.222,988.889,13.889,N
1313,-0.215,1.540,-0.085,158.333,83.333,344.444,980.556,8.333,N
1314,-0.220,1.480,-0.090,152.778,72.222,327.778,950.000,30.556,N
1315,-0.255,1.415,-0.120,158.333,86.111,333.333,930.556,19.444,N
1316,-0.225,1.420,-0.090,161.111,77.778,333.333,966.667,36.111,N
1317,-0.200,1.410,-0.130,158.333,80.556,355.556,947.222,19.444,N
1318,-0.265,1.315,-0.160,161.111,80.556,366.667,1019.444,72.222,N
1319,-0.250,1.420,-0.145,158.333,83.333,350.000,1016.667,2.778,N
1320,-0.300,1.530,-0.150,158.333,83.333,327.778,972.222,44.444,N
1321,-0.275,1.330,-0.100,152.778,83.333,322.222,922.222,50.000,N
1322,-0.205,1.410,-0.110,158.333,86.111,338.889,933.333,11.111,N
1323,-0.255,1.205,-0.075,166.667,83.333,341.667,963.889,30.556,N
1324,-0.120,1.325,0.045,163.889,83.333,341.667,997.222,33.333,N
1325,-0.010,1.490,0.085,163.889,75.000,341.667,952.778,44.444,N
1326,-0.035,1.420,0.060,155.556,83.333,336.111,952.778,0.000,N
1327,-0.065,1.385,0.030,158.333,72.222,333.333,969.444,16.667,N
1328,-0.020,1.475,0.020,152.778,77.778,319.444,930.556,38.889,N
1329,-0.140,1.340,-0.030,163.889,80.556,338.889,950.000,19.444,N
1330,-0.130,1.330,0.015,163.889,86.111,341.667,1011.111,61.111,N
1331,-0.150,1.335,-0.060,166.667,75.000,355.556,975.000,36.111,N
1332,-0.170,1.340,-0.020,155.556,86.111,327.778,994.444,19.444,N
1333,-0.110,1.465,0.080,147.222,83.333,313.889,958.333,36.111,N
1334,-0.125,1.530,0.000,150.000,86.111,319.444,897.222,61.111,N
1335,-0.130,1.425,-0.075,163.889,86.111,344.444,975.000,77.778,N
1336,-0.220,1.415,-0.070,172.222,80.556,341.667,975.000,0.000,N
1337,-0.180,1.475,-0.150,158.333,75.000,352.778,952.778,22.222,N
1338,-0.280,1.460,-0.085,166.667,86.111,322.222,961.111,8.333,N
1339,-0.205,1.500,-0.040,155.556,86.111,336.111,936.111,25.000,N
1340,-0.145,1.465,-0.050,152.778,83.333,313.889,930.556,5.556,N
1341,-0.180,1.535,-0.010,158.333,83.333,330.556,922.222,8.333,N
1342,-0.170,1.575,0.010,166.667,83.333,358.333,988.889,66.667,N
1343,-0.085,1.580,0.090,158.333,80.556,341.667,1055.556,66.667,N
1344,-0.015,1.565,0.050,161.111,72.222,330.556,988.889,66.667,N
1345,-0.100,1.550,0.005,150.000,83.333,322.222,975.000,13.889,N
1346,-0.065,1.615,-0.045,144.444,72.222,313.889,927.778,47.222,N
1347,-0.215,1.315,-0.105,158.333,86.111,338.889,963.889,36.111,N
1348,-0.245,1.520,-0.090,155.556,72.222,336.111,983.333,19.444,N
1349,-0.225,1.430,-0.070,161.111,80.556,341.667,1011.111,27.778,N
1350,-0.235,1.445,-0.130,158.333,80.556,341.667,983.333,27.778,N
1351,-0.190,1.465,-0.075,155.556,77.778,333.333,936.111,47.222,N
1352,-0.245,1.515,-0.090,150.000,83.333,322.222,897.222,38.889,N
1353,-0.240,1.450,-0.065,150.000,83.333,325.000,911.111,13.889,N
1354,-0.145,1.480,0.015,150.000,83.333,347.222,963.889,52.778,N
1355,-0.160,1.605,-0.045,166.667,80.556,361.111,972.222,8.333,N
1356,-0.230,1.520,-0.090,163.889,83.333,338.889,1000.000,27.778,N
1357,-0.140,1.475,-0.030,147.222,72.222,325.000,961.111,38.889,N
1358,-0.050,1.535,0.050,152.778,77.778,336.111,894.444,66.667,N
1359,-0.115,1.480,-0.030,161.111,83.333,325.000,941.667,47.222,N
1360,-0.215,1.470,-0.080,155.556,83.333,325.000,950.000,8.333,N
1361,-0.210,1.270,-0.095,158.333,80.556,355.556,972.222,22.222,N
1362,-0.235,1.245,-0.135,158.333,83.333,338.889,1013.889,41.667,N
1363,-0.175,1.205,-0.130,161.111,86.111,344.444,980.556,33.333,N
1364,-0.305,1.180,-0.180,147.222,83.333,325.000,975.000,5.556,N
1365,-0.275,1.290,-0.205,150.000,80.556,325.000,941.667,33.333,N
1366,-0.235,1.335,-0.165,161.111,83.333,341.667,950.000,8.333,N
1367,-0.290,1.480,-0.190,161.111,77.778,336.111,1008.333,58.333,N
1368,-0.225,1.445,-0.040,158.333,86.111,333.333,1005.556,2.778,N
1369,-0.085,1.445,-0.015,158.333,86.111,330.556,1000.000,5.556,N
1370,-0.125,1.325,-0.085,150.000,75.000,322.222,975.000,25.000,N
1371,-0.210,1.325,-0.180,152.778,77.778,338.889,980.556,5.556,N
1372,-0.240,1.230,-0.110,155.556,80.556,341.667,983.333,2.778,N
1373,-0.060,1.480,-0.140,158.333,86.111,347.222,944.444,38.889,N
1374,-0.300,1.400,-0.200,163.889,83.333,358.333,1000.000,55.556,N
1375,-0.325,1.160,-0.170,155.556,83.333,341.667,1005.556,5.556,N
1376,-0.220,1.195,-0.110,144.444,75.000,333.333,955.556,50.000,N
1377,-0.160,1.285,-0.110,150.000,83.333,338.889,911.111,44.444,N
1378,-0.220,1.380,-0.065,152.778,83.333,350.000,941.667,30.556,N
1379,-0.170,1.360,-0.020,161.111,80.556,358.333,1008.333,66.667,N
1380,-0.155,1.405,-0.070,163.889,83.333,338.889,1000.000,8.333,N
1381,-0.220,1.205,-0.085,158.333,77.778,347.222,1025.000,25.000,N
1382,-0.180,1.280,-0.085,161.111,75.000,347.222,969.444,55.556,N
1383,-0.220,1.315,-0.120,150.000,86.111,341.667,952.778,16.667,N
1384,-0.245,1.150,-0.115,152.778,83.333,319.444,911.111,41.667,N
1385,-0.310,1.145,-0.195,138.889,69.444,358.333,958.333,47.222,N
1386,-0.335,1.090,-0.090,169.444,83.333,366.667,1005.556,47.222,N
1387,-0.220,1.140,-0.100,141.667,83.333,352.778,1022.222,16.667,N
1388,-0.225,1.360,-0.145,158.333,80.556,322.222,961.111,61.111,N
1389,-0.220,1.275,-0.050,158.333,86.111,327.778,958.333,2.778,N
1390,-0.185,1.325,-0.015,141.667,83.333,347.222,983.333,25.000,N
1391,-0.140,1.390,-0.035,155.556,83.333,327.778,991.667,8.333,N
1392,-0.110,1.390,0.040,138.889,86.111,347.222,988.889,2.778,N
1393,-0.130,1.350,-0.030,166.667,75.000,344.444,1044.444,55.556,N
1394,0.000,1.510,0.120,155.556,83.333,344.444,1005.556,38.889,N
1395,0.065,1.680,0.175,155.556,72.222,327.778,930.556,75.000,N
1396,-0.030,1.485,0.010,152.778,83.333,325.000,941.667,11.111,N
1397,-0.115,1.450,-0.045,163.889,83.333,341.667,947.222,5.556,N
1398,-0.230,1.200,-0.120,169.444,75.000,350.000,1027.778,80.556,N
1399,-0.305,1.250,-0.285,163.889,86.111,338.889,958.333,69.444,N
1400,-0.435,1.120,-0.255,163.889,86.111,325.000,966.667,8.333,N
1401,-0.360,1.240,-0.220,155.556,86.111,311.111,947.222,19.444,N
1402,-0.325,1.185,-0.155,161.111,83.333,319.444,919.444,27.778,N
1403,-0.215,1.315,-0.100,150.000,83.333,338.889,947.222,27.778,N
1404,-0.220,1.485,-0.085,163.889,83.333,338.889,952.778,5.556,N
1405,-0.180,1.330,-0.020,166.667,80.556,355.556,1000.000,47.222,N
1406,-0.130,1.410,0.005,169.444,86.111,330.556,1013.889,13.889,N
1407,-0.185,1.325,-0.065,155.556,83.333,327.778,983.333,30.556,N
1408,-0.175,1.425,-0.055,152.778,86.111,325.000,972.222,11.111,N
1409,-0.160,1.370,-0.035,152.778,83.333,338.889,1002.778,30.556,N
1410,-0.120,1.270,-0.060,163.889,86.111,347.222,1047.222,44.444,N
1411,-0.130,1.400,0.045,155.556,83.333,338.889,1063.889,16.667,N
1412,0.060,1.595,0.070,150.000,72.222,336.111,994.444,69.444,N
1413,-0.065,1.495,0.030,155.556,86.111,327.778,972.222,22.222,N
1414,-0.085,1.480,-0.020,144.444,77.778,338.889,972.222,0.000,N
1415,-0.170,1.150,-0.100,147.222,69.444,333.333,975.000,2.778,N
1416,-0.215,1.160,-0.025,158.333,86.111,361.111,988.889,13.889,N
1417,-0.270,1.155,-0.200,163.889,86.111,366.667,994.444,5.556,N
1418,-0.350,1.030,-0.235,163.889,75.000,355.556,1013.889,19.444,N
1419,-0.315,1.255,-0.065,152.778,72.222,350.000,966.667,47.222,N
1420,-0.200,1.360,-0.080,141.667,69.444,311.111,916.667,50.000,N
1421,-0.235,1.250,-0.115,158.333,83.333,355.556,944.444,27.778,N
1422,-0.200,1.300,-0.100,158.333,72.222,352.778,986.111,41.667,N
1423,-0.180,1.240,-0.060,150.000,83.333,341.667,991.667,5.556,N
1424,-0.185,1.085,-0.080,158.333,77.778,355.556,975.000,16.667,N
1425,-0.040,1.450,-0.075,150.000,75.000,333.333,916.667,58.333,N
1426,-0.245,1.305,-0.115,155.556,75.000,336.111,902.778,13.889,N
1427,-0.185,1.200,-0.055,152.778,83.333,325.000,908.333,5.556,N
1428,-0.155,1.315,0.015,155.556,83.333,336.111,925.000,16.667,N
1429,-0.115,1.435,0.025,169.444,80.556,355.556,944.444,19.444,N
1430,0.020,1.560,0.095,158.333,83.333,352.778,980.556,36.111,N
1431,-0.015,1.485,0.085,147.222,75.000,319.444,938.889,41.667,N
1432,-0.065,1.460,0.020,150.000,80.556,336.111,911.111,27.778,N
1433,-0.100,1.295,-0.020,147.222,83.333,325.000,913.889,2.778,N
1434,-0.105,1.380,-0.020,152.778,83.333,341.667,933.333,19.444,N
1435,-0.215,1.325,-0.115,158.333,83.333,341.667,969.444,36.111,N
1436,-0.245,1.245,-0.145,161.111,86.111,338.889,1002.778,33.333,N
1437,-0.275,1.205,-0.130,158.333,75.000,338.889,1002.778,0.000,N
1438,-0.260,1.205,-0.190,147.222,80.556,313.889,969.444,33.333,N
1439,-0.305,1.220,-0.160,150.000,80.556,313.889,886.111,83.333,N
1440,-0.250,1.215,-0.050,147.222,83.333,330.556,905.556,19.444,N
1441,-0.165,1.455,0.015,152.778,69.444,344.444,925.000,19.444,N
1442,-0.080,1.345,-0.240,166.667,83.333,355.556,941.667,16.667,N
1443,-0.280,1.105,-0.100,158.333,75.000,333.333,927.778,13.889,N
1444,-0.215,1.300,-0.045,158.333,80.556,325.000,875.000,52.778,N
1445,-0.085,1.415,0.100,155.556,80.556,327.778,833.333,41.667,N
1446,0.040,1.520,0.175,163.889,88.889,338.889,886.111,52.778,N
1447,0.015,1.440,0.020,158.333,83.333,347.222,863.889,22.222,N
1448,0.095,1.550,0.090,161.111,77.778,327.778,880.556,16.667,N
1449,-0.015,1.515,0.160,172.222,80.556,338.889,905.556,25.000,N
1450,0.000,1.615,0.215,163.889,86.111,344.444,908.333,2.778,N
1451,-0.045,1.405,-0.110,161.111,77.778,322.222,908.333,0.000,N
1452,-0.340,1.150,-0.215,152.778,86.111,327.778,891.667,16.667,N
1453,-0.340,1.270,-0.225,147.222,69.444,327.778,897.222,5.556,N
1454,-0.300,1.375,-0.140,161.111,83.333,338.889,886.111,11.111,N
1455,-0.280,1.330,-0.185,161.111,72.222,347.222,963.889,77.778,N
1456,-0.250,1.320,-0.175,150.000,80.556,322.222,955.556,8.333,N
1457,-0.210,1.385,-0.120,147.222,69.444,341.667,927.778,27.778,N
1458,-0.155,1.690,-0.005,138.889,61.111,322.222,875.000,52.778,N
1459,-0.225,1.620,-0.095,147.222,69.444,327.778,841.667,33.333,N
1460,-0.170,1.475,-0.090,152.778,80.556,322.222,891.667,50.000,N
1461,-0.225,1.425,-0.160,152.778,72.222,330.556,925.000,33.333,N
1462,-0.200,1.340,-0.100,163.889,83.333,358.333,958.333,33.333,N
1463,-0.200,1.485,-0.060,155.556,77.778,338.889,1016.667,58.333,N
1464,-0.145,1.405,-0.070,152.778,75.000,322.222,969.444,47.222,N
1465,-0.140,1.375,0.030,144.444,66.667,313.889,919.444,50.000,N
1466,0.000,1.690,-0.090,147.222,72.222,330.556,883.333,36.111,N
1467,-0.210,1.350,-0.065,158.333,83.333,341.667,925.000,41.667,N
1468,-0.165,1.450,-0.015,158.333,80.556,338.889,966.667,41.667,N
1469,-0.060,1.390,-0.015,158.333,77.778,333.333,955.556,11.111,N
1470,-0.135,1.360,-0.030,158.333,83.333,338.889,925.000,30.556,N
1471,-0.160,1.405,-0.070,150.000,75.000,311.111,963.889,38.889,N
1472,-0.215,1.340,-0.150,152.778,83.333,311.111,950.000,13.889,N
1473,-0.340,1.230,-0.285,152.778,72.222,327.778,966.667,16.667,N
1474,-0.420,1.140,-0.305,161.111,80.556,341.667,1022.222,55.556,N
1475,-0.395,1.075,-0.260,166.667,75.000,352.778,1061.111,38.889,N
1476,-0.330,1.240,-0.270,147.222,75.000,322.222,1044.444,16.667,N
1477,-0.340,1.330,-0.255,147.222,72.222,316.667,955.556,88.889,N
1478,-0.320,1.225,-0.165,152.778,83.333,338.889,972.222,16.667,N
1479,-0.265,1.250,-0.185,155.556,75.000,330.556,1008.333,36.111,N
1480,-0.285,1.180,-0.220,158.333,75.000,350.000,1033.333,25.000,N
1481,-0.280,1.225,-0.140,155.556,77.778,358.333,1041.667,8.333,N
1482,-0.045,1.525,0.020,155.556,83.333,341.667,1000.000,41.667,N
1483,0.000,1.555,0.110,152.778,83.333,330.556,977.778,22.222,N
1484,0.000,1.520,0.075,152.778,77.778,322.222,958.333,19.444,N
1485,-0.005,1.355,0.045,152.778,83.333,355.556,983.333,25.000,N
1486,-0.070,1.340,0.100,175.000,75.000,363.889,1022.222,38.889,N
1487,0.075,1.645,0.085,163.889,77.778,350.000,1013.889,8.333,N
1488,-0.070,1.315,-0.015,158.333,77.778,327.778,986.111,27.778,N
1489,-0.175,1.270,-0.060,152.778,86.111,327.778,988.889,2.778,N
1490,-0.115,1.380,-0.065,161.111,75.000,327.778,963.889,25.000,N
1491,-0.220,1.260,-0.115,161.111,80.556,338.889,980.556,16.667,N
1492,-0.155,1.400,-0.060,163.889,77.778,352.778,1019.444,38.889,N
1493,-0.165,1.395,-0.110,161.111,83.333,355.556,1030.556,11.111,N
1494,-0.170,1.425,-0.065,158.333,66.667,325.000,1052.778,22.222,N
1495,-0.170,1.255,-0.110,152.778,72.222,311.111,991.667,61.111,N
1496,-0.185,1.210,-0.040,147.222,72.222,327.778,972.222,19.444,N
1497,0.000,1.525,0.015,150.000,69.444,330.556,955.556,16.667,N
1498,-0.160,1.610,-0.040,161.111,77.778,361.111,1025.000,69.444,N
1499,-0.150,1.570,-0.040,161.111,72.222,350.000,1038.889,13.889,N
1500,-0.130,1.505,-0.055,152.778,83.333,322.222,991.667,47.222,N
1501,-0.155,1.420,-0.005,158.333,83.333,338.889,961.111,30.556,N
1502,-0.075,1.415,0.065,147.222,72.222,327.778,977.778,16.667,N
1503,-0.025,1.500,0.085,152.778,83.333,341.667,972.222,5.556,N
1504,0.025,1.480,0.115,161.111,83.333,358.333,1002.778,30.556,N
1505,-0.015,1.460,0.055,163.889,77.778,350.000,1025.000,22.222,N
1506,-0.130,1.415,-0.035,163.889,75.000,341.667,1033.333,8.333,N
1507,-0.195,1.255,-0.080,158.333,80.556,338.889,977.778,55.556,N
1508,-0.200,1.380,-0.080,155.556,77.778,333.333,950.000,27.778,N
1509,-0.205,1.325,-0.030,158.333,80.556,352.778,1002.778,52.778,N
1510,-0.155,1.405,-0.010,166.667,77.778,361.111,1036.111,33.333,N
1511,-0.195,1.455,-0.100,166.667,86.111,347.222,1002.778,33.333,N
1512,-0.200,1.355,0.075,161.111,75.000,330.556,1013.889,11.111,N
1513,-0.275,1.440,-0.180,155.556,75.000,336.111,930.556,83.333,N
1514,-0.335,1.380,-0.195,155.556,80.556,316.667,961.111,30.556,N
1515,-0.260,1.420,-0.075,152.778,75.000,336.111,952.778,8.333,N
1516,-0.115,1.325,0.045,166.667,77.778,355.556,977.778,25.000,N
1517,-0.200,1.370,-0.110,169.444,77.778,347.222,963.889,13.889,N
1518,-0.245,1.385,-0.080,163.889,83.333,338.889,988.889,25.000,N
1519,-0.185,1.270,-0.035,161.111,80.556,322.222,969.444,19.444,N
1520,-0.135,1.375,-0.010,158.333,83.333,322.222,963.889,5.556,N
1521,-0.080,1.510,-0.055,158.333,72.222,327.778,944.444,19.444,N
1522,-0.170,1.420,0.005,166.667,80.556,341.667,1022.222,77.778,N
1523,-0.145,1.320,0.000,166.667,72.222,338.889,1052.778,30.556,N
1524,-0.110,1.425,0.030,163.889,72.222,344.444,1022.222,30.556,N
1525,-0.150,1.470,-0.050,155.556,75.000,327.778,1000.000,22.222,N
1526,-0.210,1.425,-0.060,150.000,69.444,313.889,986.111,13.889,N
1527,-0.010,1.760,0.195,150.000,75.000,333.333,950.000,36.111,N
1528,-0.020,1.740,-0.070,152.778,75.000,338.889,925.000,25.000,N
1529,-0.260,1.525,-0.075,158.333,83.333,361.111,966.667,41.667,N
1530,-0.245,1.530,-0.085,155.556,77.778,333.333,1019.444,52.778,N
1531,-0.255,1.370,-0.095,150.000,83.333,325.000,975.000,44.444,N
1532,-0.180,1.445,-0.025,161.111,83.333,344.444,983.333,8.333,N
1533,-0.180,1.505,-0.045,150.000,72.222,327.778,1011.111,27.778,N
1534,-0.175,1.380,-0.020,155.556,75.000,341.667,1025.000,13.889,N
1535,-0.155,1.475,-0.040,161.111,80.556,355.556,1047.222,22.222,N
1536,-0.185,1.370,-0.090,161.111,83.333,358.333,1050.000,2.778,N
1537,-0.120,1.470,-0.005,155.556,75.000,330.556,1011.111,38.889,N
1538,-0.115,1.460,0.020,155.556,77.778,336.111,963.889,47.222,N
1539,-0.195,1.505,0.000,100.000,83.333,322.222,658.333,305.556,A
1540,-0.130,1.390,-0.110,155.556,77.778,366.667,1275.000,616.667,N
1541,-0.215,1.285,-0.170,163.889,77.778,350.000,1086.111,188.889,N
1542,-0.310,1.160,-0.210,161.111,77.778,338.889,1033.333,52.778,N
1543,-0.285,1.255,-0.140,155.556,83.333,319.444,1005.556,27.778,N
1544,-0.180,1.260,-0.090,155.556,80.556,338.889,988.889,16.667,N
1545,-0.195,1.295,-0.080,155.556,72.222,330.556,1002.778,13.889,N
1546,-0.195,1.320,-0.070,158.333,77.778,350.000,1030.556,27.778,N
1547,-0.160,1.215,-0.030,158.333,86.111,355.556,1030.556,0.000,N
1548,-0.145,1.440,-0.005,158.333,75.000,330.556,1005.556,25.000,N
1549,-0.175,1.405,-0.060,144.444,83.333,311.111,972.222,33.333,N
1550,-0.185,1.290,-0.080,147.222,83.333,325.000,966.667,5.556,N
1551,-0.200,1.350,-0.085,152.778,75.000,352.778,1011.111,44.444,N
1552,-0.150,1.275,-0.060,163.889,77.778,363.889,1086.111,75.000,N
1553,-0.175,1.245,-0.090,166.667,86.111,355.556,1108.333,22.222,N
1554,-0.195,1.190,-0.115,158.333,77.778,336.111,1072.222,36.111,N
1555,-0.185,1.265,-0.105,158.333,77.778,333.333,1063.889,8.333,N
1556,-0.170,1.255,-0.115,152.778,75.000,319.444,1000.000,63.889,N
1557,-0.280,1.220,-0.165,161.111,83.333,336.111,966.667,33.333,N
1558,-0.270,1.190,-0.120,161.111,86.111,341.667,1044.444,77.778,N
1559,-0.185,1.365,-0.065,163.889,75.000,350.000,1058.333,13.889,N
1560,-0.130,1.345,-0.015,152.778,72.222,333.333,1030.556,27.778,N
1561,-0.165,1.415,-0.080,152.778,83.333,319.444,947.222,83.333,N
1562,-0.210,1.340,-0.070,152.778,80.556,341.667,977.778,30.556,N
1563,-0.160,1.420,-0.035,152.778,80.556,338.889,1019.444,41.667,N
1564,-0.115,1.310,-0.045,158.333,75.000,350.000,1025.000,5.556,N
1565,-0.210,1.350,-0.155,161.111,75.000,350.000,1000.000,25.000,N
1566,-0.245,1.400,-0.095,161.111,83.333,344.444,1019.444,19.444,N
1567,-0.220,1.305,-0.130,158.333,75.000,338.889,1013.889,5.556,N
1568,-0.120,1.460,-0.040,147.222,83.333,327.778,952.778,61.111,N
1569,-0.190,1.350,-0.045,155.556,80.556,352.778,961.111,8.333,N
1570,-0.185,1.420,-0.030,166.667,88.889,363.889,1058.333,97.222,N
1571,-0.095,1.365,0.040,169.444,80.556,350.000,1055.556,2.778,N
1572,-0.020,1.565,-0.030,163.889,72.222,327.778,991.667,63.889,N
1573,-0.190,1.330,-0.080,158.333,80.556,322.222,977.778,13.889,N
1574,-0.225,1.385,-0.105,155.556,83.333,338.889,997.222,19.444,N
1575,-0.245,1.275,-0.140,161.111,72.222,344.444,1027.778,30.556,N
1576,-0.315,1.260,-0.150,161.111,75.000,350.000,1030.556,2.778,N
1577,-0.260,1.340,-0.115,166.667,83.333,358.333,1052.778,22.222,N
1578,-0.165,1.330,-0.050,150.000,83.333,327.778,1050.000,2.778,N
1579,-0.210,1.445,-0.200,150.000,77.778,302.778,952.778,97.222,N
1580,-0.335,1.345,-0.115,147.222,83.333,330.556,944.444,8.333,N
1581,-0.245,1.370,-0.120,158.333,77.778,352.778,997.222,52.778,N
1582,-0.210,1.270,-0.115,169.444,80.556,358.333,1061.111,63.889,N
1583,-0.200,1.375,-0.090,158.333,77.778,352.778,1036.111,25.000,N
1584,-0.200,1.420,-0.095,152.778,86.111,336.111,1013.889,22.222,N
1585,-0.200,1.415,-0.110,161.111,75.000,336.111,1019.444,5.556,N
1586,-0.200,1.285,-0.110,158.333,72.222,330.556,1005.556,13.889,N
1587,-0.220,1.395,-0.045,163.889,77.778,338.889,994.444,11.111,N
1588,-0.170,1.425,-0.065,169.444,83.333,347.222,1072.222,77.778,N
1589,-0.190,1.315,-0.095,163.889,75.000,350.000,1066.667,5.556,N
1590,-0.230,1.250,-0.095,155.556,72.222,313.889,1016.667,50.000,N
1591,-0.235,1.360,-0.140,150.000,80.556,322.222,955.556,61.111,N
1592,-0.295,1.315,-0.230,155.556,83.333,341.667,950.000,5.556,N
1593,-0.285,1.295,-0.180,158.333,83.333,341.667,994.444,44.444,N
1594,-0.255,1.320,-0.115,166.667,83.333,341.667,1005.556,11.111,N
1595,-0.195,1.350,-0.055,155.556,77.778,341.667,1019.444,13.889,N
1596,-0.195,1.280,-0.110,150.000,83.333,325.000,1000.000,19.444,N
1597,-0.230,1.295,-0.170,152.778,80.556,338.889,947.222,52.778,N
1598,-0.315,1.290,-0.145,152.778,83.333,325.000,980.556,33.333,N
1599,-0.235,1.220,-0.075,155.556,80.556,338.889,1005.556,25.000,N
1600,-0.125,1.475,-0.080,163.889,83.333,366.667,1022.222,16.667,N
1601,-0.175,1.345,-0.060,155.556,80.556,352.778,1027.778,5.556,N
1602,-0.180,1.420,-0.085,155.556,77.778,333.333,1016.667,11.111,N
1603,-0.145,1.375,0.000,150.000,86.111,338.889,963.889,52.778,N
1604,-0.140,1.500,-0.045,152.778,83.333,344.444,930.556,33.333,N
1605,-0.165,1.475,-0.035,163.889,83.333,352.778,1011.111,80.556,N
1606,-0.170,1.230,-0.085,163.889,80.556,366.667,1038.889,27.778,N
1607,-0.190,1.400,-0.165,155.556,86.111,341.667,1002.778,36.111,N
1608,-0.365,1.250,-0.230,155.556,80.556,355.556,1000.000,2.778,N
1609,-0.340,1.285,-0.195,158.333,83.333,325.000,1000.000,0.000,N
1610,-0.280,1.265,-0.150,150.000,72.222,330.556,975.000,25.000,N
1611,-0.200,1.390,-0.105,163.889,83.333,344.444,983.333,8.333,N
1612,-0.220,1.380,-0.135,161.111,80.556,352.778,1047.222,63.889,N
1613,-0.235,1.335,-0.110,158.333,83.333,344.444,1055.556,8.333,N
1614,-0.135,1.310,-0.095,152.778,75.000,316.667,977.778,77.778,N
1615,-0.215,1.295,-0.125,152.778,69.444,330.556,952.778,25.000,N
1616,-0.225,1.400,-0.175,152.778,80.556,336.111,1008.333,55.556,N
1617,-0.225,1.285,-0.190,152.778,83.333,330.556,994.444,13.889,N
1618,-0.245,1.330,-0.140,163.889,86.111,361.111,1016.667,22.222,N
1619,-0.180,1.400,-0.130,152.778,80.556,355.556,1038.889,22.222,N
1620,-0.240,1.360,-0.105,158.333,75.000,347.222,975.000,63.889,N
1621,-0.170,1.310,0.020,138.889,75.000,333.333,894.444,80.556,N
1622,-0.105,1.430,0.005,144.444,72.222,316.667,852.778,41.667,N
1623,-0.110,1.475,-0.035,163.889,72.222,344.444,905.556,52.778,N
1624,-0.140,1.345,-0.080,163.889,77.778,341.667,1022.222,116.667,N
1625,-0.220,1.175,-0.185,163.889,72.222,330.556,1033.333,11.111,N
1626,-0.290,1.120,-0.220,152.778,77.778,338.889,988.889,44.444,N
1627,-0.285,1.310,-0.155,144.444,72.222,330.556,986.111,2.778,N
1628,-0.205,1.235,-0.100,152.778,80.556,336.111,1011.111,25.000,N
1629,-0.105,1.490,-0.090,152.778,75.000,330.556,986.111,25.000,N
1630,-0.230,1.410,-0.080,158.333,77.778,352.778,1013.889,27.778,N
1631,-0.175,1.360,-0.060,166.667,77.778,363.889,1072.222,58.333,N
1632,-0.170,1.190,-0.075,158.333,80.556,350.000,1061.111,11.111,N
1633,-0.185,1.320,-0.135,147.222,75.000,330.556,969.444,91.667,N
1634,-0.215,1.380,-0.100,155.556,80.556,336.111,994.444,25.000,N
1635,-0.140,1.310,-0.015,169.444,83.333,344.444,1030.556,36.111,N
1636,-0.035,1.460,-0.025,163.889,86.111,341.667,1050.000,19.444,N
1637,-0.150,1.335,-0.035,163.889,86.111,347.222,1030.556,19.444,N
1638,-0.130,1.305,-0.005,158.333,77.778,350.000,1027.778,2.778,N
1639,-0.035,1.350,0.040,152.778,83.333,322.222,1025.000,2.778,N
1640,-0.060,1.435,-0.075,150.000,72.222,311.111,961.111,63.889,N
1641,-0.230,1.280,-0.090,158.333,77.778,347.222,983.333,22.222,N
1642,-0.195,1.345,-0.080,163.889,86.111,358.333,1055.556,72.222,N
1643,-0.160,1.385,-0.020,161.111,83.333,361.111,1052.778,2.778,N
1644,-0.210,1.385,-0.115,155.556,75.000,336.111,986.111,66.667,N
1645,-0.220,1.395,-0.070,144.444,72.222,330.556,972.222,13.889,N
1646,-0.195,1.380,-0.070,161.111,72.222,344.444,1000.000,27.778,N
1647,-0.075,1.470,0.045,158.333,80.556,352.778,1011.111,11.111,N
1648,-0.160,1.315,-0.135,163.889,86.111,358.333,994.444,16.667,N
1649,-0.260,1.405,-0.120,169.444,83.333,355.556,1033.333,38.889,N
1650,-0.205,1.355,-0.020,161.111,83.333,344.444,1016.667,16.667,N
1651,-0.055,1.500,0.035,161.111,86.111,330.556,975.000,41.667,N
1652,-0.100,1.515,-0.015,152.778,83.333,338.889,941.667,33.333,N
1653,-0.150,1.460,-0.020,158.333,83.333,355.556,988.889,47.222,N
1654,-0.130,1.410,0.005,169.444,80.556,361.111,1075.000,86.111,N
1655,-0.020,1.550,0.020,161.111,77.778,350.000,1027.778,47.222,N
1656,-0.120,1.395,0.060,152.778,86.111,325.000,991.667,36.111,N
1657,-0.070,1.530,0.055,150.000,66.667,316.667,972.222,19.444,N
1658,0.000,1.570,0.125,147.222,83.333,330.556,938.889,33.333,N
1659,-0.115,1.440,-0.040,161.111,77.778,350.000,947.222,8.333,N
1660,-0.195,1.435,-0.070,158.333,77.778,350.000,980.556,33.333,N
1661,-0.185,1.455,-0.065,169.444,80.556,352.778,1016.667,36.111,N
1662,-0.125,1.395,-0.030,155.556,83.333,322.222,1013.889,2.778,N
1663,-0.160,1.510,-0.020,155.556,75.000,322.222,950.000,63.889,N
1664,-0.180,1.435,-0.040,147.222,80.556,319.444,966.667,16.667,N
1665,-0.120,1.485,-0.030,158.333,72.222,344.444,1008.333,41.667,N
1666,-0.140,1.405,-0.030,169.444,80.556,369.444,1063.889,55.556,N
1667,-0.135,1.350,-0.015,158.333,77.778,350.000,1066.667,2.778,N
1668,-0.125,1.360,-0.030,152.778,83.333,338.889,1025.000,41.667,N
1669,-0.160,1.265,-0.055,155.556,80.556,336.111,1005.556,19.444,N
1670,-0.150,1.215,0.055,158.333,69.444,341.667,991.667,13.889,N
1671,-0.055,1.470,-0.035,158.333,80.556,352.778,958.333,33.333,N
1672,-0.195,1.225,-0.070,169.444,83.333,355.556,1033.333,75.000,N
1673,-0.185,1.280,-0.060,166.667,86.111,347.222,1058.333,25.000,N
1674,-0.155,1.240,-0.080,155.556,75.000,336.111,1041.667,16.667,N
1675,-0.205,1.265,-0.120,152.778,83.333,327.778,991.667,50.000,N
1676,-0.245,1.090,-0.205,158.333,75.000,338.889,991.667,0.000,N
1677,-0.290,1.140,-0.225,158.333,77.778,350.000,1033.333,41.667,N
1678,-0.285,1.130,-0.105,161.111,80.556,341.667,1050.000,16.667,N
1679,-0.195,1.285,-0.065,158.333,83.333,347.222,1038.889,11.111,N
1680,-0.165,1.240,-0.070,155.556,77.778,336.111,1027.778,11.111,N
1681,-0.180,1.310,-0.130,155.556,75.000,347.222,986.111,41.667,N
1682,-0.235,1.335,-0.115,155.556,83.333,338.889,1011.111,25.000,N
1683,-0.160,1.315,-0.105,155.556,75.000,344.444,991.667,19.444,N
1684,-0.190,1.395,-0.040,166.667,83.333,372.222,1041.667,50.000,N
1685,-0.190,1.345,-0.060,163.889,77.778,352.778,1052.778,11.111,N
1686,-0.150,1.315,0.010,152.778,83.333,341.667,988.889,63.889,N
1687,-0.100,1.375,-0.120,161.111,83.333,325.000,952.778,36.111,N
1688,-0.235,1.270,-0.050,161.111,83.333,330.556,966.667,13.889,N
1689,-0.135,1.425,0.010,163.889,75.000,344.444,1030.556,63.889,N
1690,-0.095,1.340,-0.010,163.889,86.111,338.889,1038.889,8.333,N
1691,-0.140,1.345,-0.045,163.889,80.556,358.333,1016.667,22.222,N
1692,-0.185,1.250,-0.045,161.111,80.556,325.000,1027.778,11.111,N
1693,-0.225,1.195,-0.205,147.222,72.222,319.444,933.333,94.444,N
1694,-0.265,1.330,-0.125,152.778,83.333,341.667,955.556,22.222,N
1695,-0.245,1.350,-0.050,150.000,83.333,344.444,997.222,41.667,N
1696,-0.120,1.335,0.005,163.889,83.333,358.333,1052.778,55.556,N
1697,-0.105,1.360,-0.115,155.556,72.222,330.556,1011.111,41.667,N
1698,-0.240,1.260,-0.130,155.556,86.111,325.000,988.889,22.222,N
1699,-0.280,1.155,-0.155,155.556,86.111,344.444,980.556,8.333,N
1700,-0.255,1.175,-0.125,150.000,80.556,338.889,988.889,8.333,N
1701,-0.215,1.370,-0.120,152.778,83.333,341.667,977.778,11.111,N
1702,-0.200,1.360,-0.035,158.333,75.000,363.889,1027.778,50.000,N
1703,-0.110,1.325,0.095,166.667,75.000,347.222,1036.111,8.333,N
1704,-0.125,1.300,-0.045,155.556,80.556,338.889,941.667,94.444,N
1705,-0.195,1.305,-0.045,155.556,80.556,338.889,919.444,22.222,N
1706,-0.165,1.425,0.070,150.000,72.222,327.778,922.222,2.778,N
1707,0.075,1.530,0.110,158.333,80.556,369.444,911.111,11.111,N
1708,-0.150,1.340,-0.075,163.889,88.889,352.778,955.556,44.444,N
1709,-0.305,1.190,-0.235,155.556,80.556,336.111,938.889,16.667,N
1710,-0.360,1.205,-0.230,150.000,83.333,333.333,927.778,11.111,N
1711,-0.300,1.145,-0.170,152.778,83.333,322.222,938.889,11.111,N
1712,-0.245,1.285,-0.115,155.556,80.556,338.889,933.333,5.556,N
1713,-0.190,1.265,-0.050,158.333,86.111,344.444,983.333,50.000,N
1714,-0.185,1.390,-0.095,158.333,86.111,347.222,994.444,11.111,N
1715,-0.305,1.250,-0.190,169.444,83.333,358.333,1038.889,44.444,N
1716,-0.275,1.295,-0.180,155.556,80.556,344.444,1047.222,8.333,N
1717,-0.250,1.240,-0.155,147.222,83.333,330.556,980.556,66.667,N
1718,-0.215,1.325,-0.130,155.556,80.556,338.889,972.222,8.333,N
1719,-0.215,1.225,-0.105,163.889,77.778,352.778,1005.556,33.333,N
1720,-0.180,1.220,-0.120,177.778,86.111,358.333,1075.000,69.444,N
1721,-0.155,1.345,-0.115,161.111,86.111,344.444,1030.556,44.444,N
1722,-0.195,1.180,-0.100,161.111,83.333,336.111,1025.000,5.556,N
1723,-0.075,1.405,0.105,155.556,80.556,316.667,1016.667,8.333,N
1724,-0.095,1.440,-0.025,152.778,72.222,327.778,941.667,75.000,N
1725,-0.165,1.235,-0.110,161.111,75.000,333.333,963.889,22.222,N
1726,-0.240,1.210,-0.135,155.556,72.222,344.444,1019.444,55.556,N
1727,-0.175,1.320,-0.160,158.333,77.778,352.778,1011.111,8.333,N
1728,-0.295,1.065,-0.185,152.778,86.111,338.889,997.222,13.889,N
1729,-0.290,1.035,-0.180,150.000,86.111,330.556,958.333,38.889,N
1730,-0.230,1.220,-0.130,152.778,83.333,341.667,969.444,11.111,N
1731,-0.190,1.335,-0.150,158.333,83.333,341.667,980.556,11.111,N
1732,-0.265,1.110,-0.130,158.333,86.111,341.667,1019.444,38.889,N
1733,-0.110,1.405,-0.120,158.333,86.111,361.111,1011.111,8.333,N
1734,-0.210,1.360,-0.090,155.556,83.333,355.556,991.667,19.444,N
1735,-0.195,1.395,-0.080,155.556,72.222,336.111,980.556,11.111,N
1736,-0.090,1.330,-0.080,150.000,80.556,338.889,933.333,47.222,N
1737,-0.265,1.315,-0.180,158.333,86.111,347.222,927.778,5.556,N
1738,-0.320,1.250,-0.080,161.111,86.111,383.333,994.444,66.667,N
1739,-0.145,1.370,0.000,161.111,86.111,344.444,1011.111,16.667,N
1740,-0.035,1.450,-0.030,158.333,77.778,330.556,955.556,55.556,N
1741,-0.125,1.305,-0.015,155.556,86.111,341.667,930.556,25.000,N
1742,-0.175,1.200,-0.040,152.778,80.556,338.889,950.000,19.444,N
1743,-0.155,1.315,-0.185,158.333,75.000,347.222,922.222,27.778,N
1744,-0.355,1.195,-0.235,163.889,77.778,366.667,986.111,63.889,N
1745,-0.340,1.265,-0.200,158.333,80.556,352.778,1011.111,25.000,N
1746,-0.225,1.205,-0.080,163.889,80.556,358.333,1038.889,27.778,N
1747,-0.235,1.345,-0.205,150.000,83.333,327.778,952.778,86.111,N
1748,-0.315,1.300,-0.210,147.222,72.222,327.778,930.556,22.222,N
1749,-0.290,1.285,-0.235,155.556,80.556,341.667,925.000,5.556,N
1750,-0.320,1.245,-0.235,158.333,83.333,355.556,916.667,8.333,N
1751,-0.300,1.260,-0.210,169.444,77.778,369.444,950.000,33.333,N
1752,-0.260,1.130,-0.165,158.333,80.556,355.556,983.333,33.333,N
1753,-0.130,1.235,-0.035,150.000,86.111,327.778,963.889,19.444,N
1754,-0.205,1.275,-0.165,158.333,75.000,352.778,941.667,22.222,N
1755,-0.225,1.185,-0.150,152.778,83.333,341.667,980.556,38.889,N
1756,-0.210,1.230,-0.120,155.556,83.333,358.333,1008.333,27.778,N
1757,-0.170,1.240,-0.125,166.667,77.778,358.333,1072.222,63.889,N
1758,-0.155,1.335,-0.035,163.889,80.556,344.444,1058.333,13.889,N
1759,-0.070,1.285,-0.045,155.556,75.000,322.222,1061.111,2.778,N
1760,-0.040,1.285,-0.070,155.556,75.000,316.667,983.333,77.778,N
1761,-0.210,1.215,-0.110,155.556,75.000,347.222,972.222,11.111,N
1762,-0.140,1.410,-0.105,158.333,80.556,344.444,1036.111,63.889,N
1763,-0.240,1.455,-0.100,158.333,83.333,358.333,1025.000,11.111,N
1764,-0.190,1.460,-0.120,155.556,77.778,338.889,997.222,27.778,N
1765,-0.235,1.395,-0.130,144.444,75.000,336.111,986.111,11.111,N
1766,-0.250,1.295,-0.210,152.778,83.333,338.889,977.778,8.333,N
1767,-0.285,1.230,-0.175,150.000,86.111,344.444,980.556,2.778,N
1768,-0.215,1.255,-0.150,152.778,77.778,347.222,1005.556,25.000,N
1769,-0.210,1.235,-0.180,166.667,77.778,347.222,1008.333,2.778,N
1770,-0.270,1.285,-0.145,158.333,72.222,344.444,1047.222,38.889,N
1771,-0.255,1.165,-0.145,147.222,72.222,330.556,1000.000,47.222,N
1772,-0.220,1.175,-0.135,150.000,83.333,336.111,958.333,41.667,N
1773,-0.260,1.210,-0.105,155.556,80.556,341.667,983.333,25.000,N
1774,-0.215,1.295,-0.095,161.111,80.556,355.556,1019.444,36.111,N
1775,-0.145,1.265,-0.025,161.111,77.778,350.000,1052.778,33.333,N
1776,-0.160,1.340,-0.100,155.556,83.333,355.556,994.444,58.333,N
1777,-0.235,1.320,-0.105,161.111,75.000,341.667,1030.556,36.111,N
1778,-0.235,1.315,-0.075,152.778,77.778,330.556,988.889,41.667,N
1779,-0.150,1.285,-0.035,155.556,77.778,333.333,969.444,19.444,N
1780,-0.235,1.300,-0.095,161.111,86.111,341.667,988.889,19.444,N
1781,-0.210,1.375,-0.105,158.333,83.333,361.111,1041.667,52.778,N
1782,-0.270,1.230,-0.180,152.778,75.000,341.667,1066.667,25.000,N
1783,-0.245,1.260,-0.200,155.556,75.000,319.444,986.111,80.556,N
1784,-0.350,1.310,-0.195,152.778,80.556,341.667,955.556,30.556,N
1785,-0.350,1.230,-0.175,155.556,72.222,330.556,1013.889,58.333,N
1786,-0.225,1.375,-0.095,152.778,77.778,352.778,1008.333,5.556,N
1787,-0.145,1.485,-0.055,163.889,86.111,363.889,1025.000,16.667,N
1788,-0.205,1.370,-0.100,158.333,80.556,366.667,1030.556,5.556,N
1789,-0.220,1.260,-0.115,158.333,77.778,352.778,1033.333,2.778,N
1790,-0.140,1.510,-0.110,147.222,83.333,330.556,936.111,97.222,N
1791,-0.290,1.435,-0.120,152.778,80.556,341.667,938.889,2.778,N
1792,-0.235,1.295,-0.045,163.889,83.333,369.444,1011.111,72.222,N
1793,-0.195,1.395,-0.010,166.667,86.111,363.889,1019.444,8.333,N
1794,-0.220,1.430,-0.105,155.556,83.333,344.444,952.778,66.667,N
1795,-0.255,1.355,-0.105,163.889,83.333,325.000,952.778,0.000,N
1796,-0.230,1.260,-0.095,158.333,72.222,347.222,938.889,13.889,N
1797,-0.095,1.665,-0.075,161.111,80.556,341.667,938.889,0.000,N
1798,-0.235,1.415,-0.080,155.556,83.333,355.556,938.889,0.000,N
1799,-0.220,1.445,-0.100,163.889,80.556,366.667,1005.556,66.667,N
1800,-0.210,1.315,-0.095,169.444,86.111,361.111,1058.333,52.778,N
1801,-0.200,1.390,-0.170,155.556,86.111,338.889,1000.000,58.333,N
1802,-0.215,1.355,-0.085,152.778,86.111,322.222,952.778,47.222,N
1803,-0.210,1.380,-0.085,155.556,80.556,336.111,966.667,13.889,N
1804,-0.070,1.395,-0.045,158.333,80.556,341.667,975.000,8.333,N
1805,-0.205,1.390,-0.080,166.667,80.556,338.889,977.778,2.778,N
1806,-0.155,1.345,-0.030,163.889,75.000,330.556,988.889,11.111,N
1807,-0.145,1.370,-0.050,155.556,77.778,336.111,977.778,11.111,N
1808,-0.060,1.375,-0.075,161.111,80.556,327.778,975.000,2.778,N
1809,-0.180,1.390,-0.130,155.556,69.444,311.111,961.111,13.889,N
1810,-0.200,1.390,-0.150,158.333,75.000,347.222,983.333,22.222,N
1811,-0.170,1.340,-0.130,158.333,75.000,347.222,1050.000,66.667,N
1812,-0.215,1.260,-0.145,163.889,80.556,355.556,1061.111,11.111,N
1813,-0.205,1.220,-0.155,152.778,72.222,327.778,1058.333,2.778,N
1814,-0.200,1.175,-0.150,150.000,77.778,319.444,991.667,66.667,N
1815,-0.160,1.305,-0.080,152.778,83.333,355.556,994.444,2.778,N
1816,-0.180,1.280,-0.225,161.111,86.111,341.667,986.111,8.333,N
1817,-0.295,1.225,-0.205,158.333,77.778,369.444,1025.000,38.889,N
1818,-0.280,1.310,-0.225,163.889,83.333,358.333,1055.556,30.556,N
1819,-0.265,1.295,-0.185,163.889,77.778,344.444,1022.222,33.333,N
1820,-0.140,1.390,-0.115,155.556,77.778,336.111,1000.000,22.222,N
1821,-0.130,1.385,-0.060,155.556,80.556,333.333,983.333,16.667,N
1822,-0.135,1.430,-0.075,158.333,83.333,361.111,1008.333,25.000,N
1823,-0.130,1.335,-0.040,163.889,75.000,344.444,1080.556,72.222,N
1824,-0.130,1.355,-0.020,158.333,80.556,341.667,1027.778,52.778,N
1825,-0.115,1.405,-0.035,152.778,80.556,319.444,1002.778,25.000,N
1826,-0.105,1.420,-0.030,144.444,66.667,325.000,988.889,13.889,N
1827,-0.160,1.270,-0.110,155.556,77.778,338.889,1008.333,19.444,N
1828,-0.210,1.235,-0.105,152.778,77.778,355.556,1030.556,22.222,N
1829,-0.190,1.245,-0.080,163.889,83.333,358.333,1063.889,33.333,N
1830,-0.090,1.400,-0.095,161.111,83.333,375.000,1038.889,25.000,N
1831,-0.170,1.405,0.000,155.556,83.333,338.889,1000.000,38.889,N
1832,-0.090,1.285,-0.065,147.222,80.556,327.778,941.667,58.333,N
1833,-0.170,1.385,-0.085,161.111,75.000,336.111,947.222,5.556,N
1834,-0.210,1.380,-0.100,161.111,77.778,363.889,952.778,5.556,N
1835,-0.185,1.315,-0.095,169.444,83.333,355.556,972.222,19.444,N
1836,-0.210,1.345,-0.120,163.889,83.333,358.333,913.889,58.333,N
1837,-0.225,1.270,-0.145,150.000,83.333,325.000,933.333,19.444,N
1838,-0.210,1.365,-0.070,161.111,72.222,344.444,944.444,11.111,N
1839,-0.120,1.245,-0.025,152.778,83.333,338.889,977.778,33.333,N
1840,-0.105,1.490,-0.075,152.778,80.556,341.667,947.222,30.556,N
1841,-0.155,1.465,-0.020,163.889,83.333,369.444,1005.556,58.333,N
1842,-0.075,1.540,0.030,166.667,80.556,358.333,1041.667,36.111,N
1843,-0.085,1.395,-0.015,158.333,83.333,341.667,1033.333,8.333,N
1844,-0.125,1.465,-0.085,152.778,72.222,330.556,947.222,86.111,N
1845,-0.205,1.415,-0.080,147.222,72.222,330.556,930.556,16.667,N
1846,-0.195,1.300,-0.080,172.222,80.556,358.333,1013.889,83.333,N
1847,-0.140,1.390,-0.065,166.667,72.222,341.667,1041.667,27.778,N
1848,-0.100,1.395,-0.065,166.667,86.111,350.000,1013.889,27.778,N
1849,-0.170,1.470,-0.050,161.111,72.222,327.778,1013.889,0.000,N
1850,-0.145,1.430,-0.030,155.556,77.778,336.111,994.444,19.444,N
1851,-0.150,1.400,-0.040,152.778,83.333,316.667,1019.444,25.000,N
1852,-0.135,1.410,-0.030,150.000,72.222,344.444,1005.556,13.889,N
1853,-0.120,1.335,-0.025,169.444,77.778,363.889,1066.667,61.111,N
1854,-0.040,1.535,0.025,158.333,77.778,333.333,1061.111,5.556,N
1855,-0.105,1.515,0.015,155.556,77.778,319.444,983.333,77.778,N
1856,-0.090,1.410,0.000,155.556,75.000,327.778,972.222,11.111,N
1857,-0.105,1.360,-0.020,155.556,77.778,352.778,977.778,5.556,N
1858,-0.110,1.410,-0.020,166.667,80.556,358.333,1027.778,50.000,N
1859,-0.085,1.385,0.030,161.111,77.778,352.778,1038.889,11.111,N
1860,-0.050,1.365,-0.005,158.333,83.333,344.444,1038.889,0.000,N
1861,-0.115,1.435,-0.020,161.111,75.000,347.222,1013.889,25.000,N
1862,-0.155,1.435,-0.045,155.556,77.778,338.889,991.667,22.222,N
1863,-0.165,1.340,-0.080,158.333,69.444,336.111,988.889,2.778,N
1864,-0.120,1.440,-0.080,163.889,83.333,338.889,991.667,2.778,N
