id,Pamp,Ramp,Tamp,PR,QRS,QT,RRI,dRRI,label
1,-0.375,0.715,-0.325,138.889,50.000,313.889,661.111,5.556,N
2,-0.365,0.765,-0.285,141.667,47.222,330.556,677.778,16.667,N
3,-0.330,0.710,-0.260,130.556,41.667,319.444,672.222,5.556,N
4,-0.340,0.855,-0.310,138.889,50.000,297.222,669.444,2.778,N
5,-0.350,0.755,-0.285,133.333,47.222,319.444,641.667,27.778,N
6,-0.290,0.730,-0.215,138.889,50.000,344.444,675.000,33.333,N
7,-0.270,0.760,-0.230,136.111,47.222,319.444,688.889,13.889,N
8,-0.290,0.755,-0.260,138.889,50.000,316.667,675.000,13.889,N
9,-0.300,0.850,-0.270,133.333,47.222,322.222,658.333,16.667,N
10,-0.335,0.930,-0.285,136.111,47.222,322.222,666.667,8.333,N
11,-0.305,0.900,-0.235,136.111,44.444,316.667,669.444,2.778,N
12,-0.270,0.830,-0.210,138.889,47.222,319.444,666.667,2.778,N
13,-0.275,0.845,-0.235,141.667,50.000,336.111,683.333,16.667,N
14,-0.265,0.895,-0.265,133.333,44.444,316.667,677.778,5.556,N
15,-0.315,0.835,-0.300,136.111,47.222,330.556,666.667,11.111,N
16,-0.330,0.830,-0.270,136.111,47.222,330.556,658.333,8.333,N
17,-0.275,0.820,-0.265,141.667,50.000,347.222,680.556,22.222,N
18,-0.260,0.865,-0.230,136.111,47.222,316.667,702.778,22.222,N
19,-0.270,0.750,-0.200,138.889,50.000,316.667,675.000,27.778,N
20,-0.255,0.830,-0.215,141.667,86.111,319.444,669.444,5.556,N
21,-0.265,0.875,-0.230,141.667,86.111,313.889,666.667,2.778,N
22,-0.260,0.860,-0.190,127.778,47.222,311.111,669.444,2.778,N
23,-0.240,0.885,-0.190,133.333,47.222,330.556,672.222,2.778,N
24,-0.215,0.830,-0.210,141.667,52.778,319.444,686.111,13.889,N
25,-0.235,0.905,-0.200,138.889,47.222,319.444,666.667,19.444,N
26,-0.235,0.885,-0.200,130.556,47.222,319.444,661.111,5.556,N
27,-0.255,0.920,-0.225,136.111,50.000,327.778,658.333,2.778,N
28,-0.285,0.935,-0.275,136.111,50.000,327.778,675.000,16.667,N
29,-0.305,0.945,-0.275,133.333,47.222,325.000,661.111,13.889,N
30,-0.295,0.850,-0.255,136.111,44.444,302.778,663.889,2.778,N
31,-0.265,0.830,-0.235,138.889,47.222,319.444,647.222,16.667,N
32,-0.265,0.830,-0.230,138.889,47.222,325.000,663.889,16.667,N
33,-0.280,0.795,-0.235,127.778,50.000,338.889,650.000,13.889,N
34,-0.265,0.930,-0.220,138.889,47.222,327.778,680.556,30.556,N
35,-0.255,0.955,-0.245,141.667,50.000,325.000,669.444,11.111,N
36,-0.270,0.875,-0.225,133.333,47.222,336.111,652.778,16.667,N
37,-0.250,0.870,-0.235,136.111,44.444,316.667,655.556,2.778,N
38,-0.255,0.860,-0.240,141.667,47.222,322.222,666.667,11.111,N
39,-0.275,0.785,-0.245,141.667,47.222,330.556,683.333,16.667,N
40,-0.280,0.815,-0.255,130.556,47.222,330.556,669.444,13.889,N
41,-0.310,0.855,-0.265,130.556,47.222,308.333,658.333,11.111,N
42,-0.310,0.940,-0.270,133.333,44.444,322.222,652.778,5.556,N
43,-0.295,0.820,-0.255,136.111,50.000,336.111,650.000,2.778,N
44,-0.275,0.855,-0.245,136.111,47.222,325.000,652.778,2.778,N
45,-0.270,0.835,-0.220,136.111,44.444,319.444,669.444,16.667,N
46,-0.265,0.790,-0.235,133.333,47.222,300.000,686.111,16.667,N
47,-0.270,0.895,-0.235,133.333,47.222,319.444,647.222,38.889,N
48,-0.285,0.900,-0.285,133.333,47.222,319.444,658.333,11.111,N
49,-0.320,0.855,-0.280,136.111,47.222,333.333,661.111,2.778,N
50,-0.290,0.810,-0.260,141.667,50.000,319.444,686.111,25.000,N
51,-0.295,0.785,-0.275,136.111,47.222,319.444,663.889,22.222,N
52,-0.325,0.655,-0.275,133.333,50.000,316.667,672.222,8.333,N
53,-0.325,0.740,-0.290,133.333,47.222,311.111,663.889,8.333,N
54,-0.340,0.840,-0.275,141.667,50.000,305.556,677.778,13.889,N
55,-0.305,0.850,-0.285,147.222,50.000,338.889,663.889,13.889,N
56,-0.315,0.780,-0.280,133.333,44.444,58.333,680.556,16.667,N
57,-0.325,0.780,-0.285,136.111,47.222,333.333,694.444,13.889,N
58,-0.305,0.840,-0.290,138.889,47.222,325.000,675.000,19.444,N
59,-0.330,0.875,-0.285,133.333,47.222,330.556,663.889,11.111,N
60,-0.335,0.790,-0.300,138.889,50.000,322.222,677.778,13.889,N
61,-0.320,0.780,-0.275,136.111,50.000,63.889,688.889,11.111,N
62,-0.300,0.775,-0.260,141.667,47.222,316.667,683.333,5.556,N
63,-0.295,0.745,-0.265,130.556,50.000,322.222,658.333,25.000,N
64,-0.320,0.825,-0.270,136.111,47.222,316.667,669.444,11.111,N
65,-0.310,0.885,-0.320,136.111,47.222,300.000,663.889,5.556,N
66,-0.335,0.780,-0.275,138.889,50.000,325.000,669.444,5.556,N
67,-0.305,0.735,-0.290,147.222,88.889,350.000,680.556,11.111,N
68,-0.330,0.685,-0.320,130.556,41.667,325.000,680.556,0.000,N
69,-0.360,0.785,-0.325,136.111,44.444,302.778,661.111,19.444,N
70,-0.340,0.855,-0.300,138.889,50.000,316.667,655.556,5.556,N
71,-0.335,0.725,-0.270,144.444,47.222,336.111,672.222,16.667,N
72,-0.295,0.750,-0.260,136.111,44.444,58.333,683.333,11.111,N
73,-0.295,0.740,-0.275,138.889,44.444,313.889,675.000,8.333,N
74,-0.325,0.725,-0.255,138.889,47.222,325.000,661.111,13.889,N
75,-0.300,0.855,-0.295,136.111,80.556,322.222,663.889,2.778,N
76,-0.320,0.790,-0.280,130.556,47.222,330.556,663.889,0.000,N
77,-0.285,0.770,-0.255,138.889,47.222,61.111,672.222,8.333,N
78,-0.315,0.730,-0.280,144.444,47.222,333.333,691.667,19.444,N
79,-0.300,0.815,-0.270,136.111,50.000,341.667,661.111,30.556,N
80,-0.310,0.875,-0.285,136.111,50.000,300.000,675.000,13.889,N
81,-0.340,0.765,-0.290,141.667,47.222,338.889,658.333,16.667,N
82,-0.290,0.745,-0.250,138.889,47.222,327.778,683.333,25.000,N
83,-0.290,0.710,-0.270,141.667,47.222,319.444,680.556,2.778,N
84,-0.320,0.780,-0.255,133.333,50.000,305.556,677.778,2.778,N
85,-0.330,0.830,-0.270,141.667,50.000,311.111,663.889,13.889,N
86,-0.310,0.800,-0.235,138.889,47.222,325.000,675.000,11.111,N
87,-0.270,0.730,-0.230,138.889,50.000,333.333,666.667,8.333,N
88,-0.260,0.735,-0.225,133.333,44.444,327.778,700.000,33.333,N
89,-0.285,0.655,-0.245,136.111,50.000,311.111,691.667,8.333,N
90,-0.315,0.715,-0.280,138.889,80.556,322.222,677.778,13.889,N
91,-0.320,0.775,-0.305,136.111,47.222,327.778,663.889,13.889,N
92,-0.320,0.695,-0.285,136.111,47.222,327.778,675.000,11.111,N
93,-0.295,0.685,-0.250,144.444,50.000,333.333,688.889,13.889,N
94,-0.260,0.720,-0.225,136.111,47.222,325.000,675.000,13.889,N
95,-0.280,0.705,-0.265,130.556,77.778,333.333,661.111,13.889,N
96,-0.310,0.745,-0.280,133.333,47.222,302.778,666.667,5.556,N
97,-0.335,0.775,-0.305,141.667,86.111,308.333,663.889,2.778,N
98,-0.320,0.635,-0.295,138.889,83.333,316.667,655.556,8.333,N
99,-0.335,0.625,-0.295,138.889,47.222,341.667,675.000,19.444,N
100,-0.320,0.605,-0.310,133.333,47.222,58.333,683.333,8.333,N
101,-0.345,0.545,-0.295,138.889,83.333,308.333,652.778,30.556,N
102,-0.325,0.660,-0.265,133.333,77.778,319.444,655.556,2.778,N
103,-0.310,0.695,-0.310,141.667,75.000,322.222,666.667,11.111,N
104,-0.355,0.690,-0.285,138.889,50.000,311.111,680.556,13.889,N
105,-0.290,0.695,-0.270,141.667,47.222,316.667,658.333,22.222,N
106,-0.325,0.675,-0.310,133.333,47.222,58.333,663.889,5.556,N
107,-0.345,0.595,-0.295,130.556,47.222,327.778,658.333,5.556,N
108,-0.340,0.685,-0.310,133.333,75.000,316.667,669.444,11.111,N
109,-0.355,0.740,-0.290,144.444,86.111,330.556,663.889,5.556,N
110,-0.305,0.840,-0.280,141.667,50.000,322.222,672.222,8.333,N
111,-0.280,0.765,-0.235,138.889,44.444,316.667,669.444,2.778,N
112,-0.255,0.760,-0.230,133.333,47.222,58.333,661.111,8.333,N
113,-0.260,0.750,-0.225,136.111,47.222,325.000,666.667,5.556,N
114,-0.275,0.730,-0.250,144.444,88.889,325.000,680.556,13.889,N
115,-0.290,0.845,-0.290,138.889,47.222,319.444,691.667,11.111,N
116,-0.320,0.895,-0.275,136.111,47.222,319.444,666.667,25.000,N
117,-0.305,0.785,-0.260,130.556,47.222,336.111,650.000,16.667,N
118,-0.310,0.750,-0.255,125.000,44.444,313.889,658.333,8.333,N
119,-0.310,0.745,-0.235,133.333,44.444,311.111,672.222,13.889,N
120,-0.310,0.830,-0.260,144.444,50.000,311.111,672.222,0.000,N
121,-0.310,0.840,-0.295,133.333,50.000,338.889,669.444,2.778,N
122,-0.335,0.810,-0.300,130.556,47.222,333.333,666.667,2.778,N
123,-0.320,0.700,-0.280,141.667,47.222,311.111,661.111,5.556,N
124,-0.305,0.745,-0.270,133.333,47.222,338.889,672.222,11.111,N
125,-0.310,0.720,-0.250,138.889,47.222,327.778,680.556,8.333,N
126,-0.290,0.775,-0.260,130.556,47.222,308.333,686.111,5.556,N
127,-0.305,0.880,-0.290,138.889,47.222,322.222,677.778,8.333,N
128,-0.360,0.880,-0.335,133.333,47.222,336.111,655.556,22.222,N
129,-0.360,0.790,-0.345,141.667,47.222,316.667,658.333,2.778,N
130,-0.360,0.745,-0.305,130.556,44.444,316.667,661.111,2.778,N
131,-0.325,0.695,-0.305,138.889,50.000,319.444,675.000,13.889,N
132,-0.340,0.760,-0.310,136.111,47.222,333.333,677.778,2.778,N
133,-0.355,0.860,-0.320,133.333,50.000,330.556,666.667,11.111,N
134,-0.365,0.850,-0.320,130.556,47.222,308.333,666.667,0.000,N
135,-0.300,0.850,-0.265,136.111,47.222,327.778,647.222,19.444,N
136,-0.280,0.805,-0.250,138.889,47.222,325.000,669.444,22.222,N
137,-0.290,0.795,-0.260,138.889,47.222,313.889,672.222,2.778,N
138,-0.305,0.795,-0.255,133.333,44.444,316.667,663.889,8.333,N
139,-0.315,0.915,-0.290,138.889,86.111,311.111,650.000,13.889,N
140,-0.335,0.900,-0.305,138.889,50.000,319.444,652.778,2.778,N
141,-0.315,0.810,-0.245,130.556,44.444,322.222,655.556,2.778,N
142,-0.280,0.865,-0.245,136.111,44.444,316.667,672.222,16.667,N
143,-0.245,0.825,-0.240,141.667,50.000,341.667,677.778,5.556,N
144,-0.270,0.850,-0.225,136.111,47.222,319.444,666.667,11.111,N
145,-0.285,0.940,-0.255,136.111,80.556,316.667,663.889,2.778,N
146,-0.300,0.955,-0.270,136.111,47.222,319.444,655.556,8.333,N
147,-0.275,0.870,-0.240,144.444,50.000,327.778,672.222,16.667,N
148,-0.230,0.860,-0.185,136.111,47.222,316.667,672.222,0.000,N
149,-0.205,0.890,-0.185,136.111,47.222,313.889,666.667,5.556,N
150,-0.250,0.890,-0.215,138.889,47.222,300.000,650.000,16.667,N
151,-0.260,0.905,-0.270,138.889,50.000,325.000,652.778,2.778,N
152,-0.265,0.800,-0.190,130.556,47.222,325.000,658.333,5.556,N
153,-0.220,0.830,-0.200,138.889,47.222,61.111,666.667,8.333,N
154,-0.225,0.800,-0.185,136.111,47.222,322.222,672.222,5.556,N
155,-0.225,0.795,-0.210,133.333,47.222,338.889,650.000,22.222,N
156,-0.280,0.900,-0.220,127.778,47.222,308.333,663.889,13.889,N
157,-0.255,0.960,-0.205,136.111,47.222,327.778,644.444,19.444,N
158,-0.220,0.870,-0.195,138.889,44.444,327.778,672.222,27.778,N
159,-0.205,0.890,-0.185,130.556,44.444,327.778,658.333,13.889,N
160,-0.225,0.900,-0.170,130.556,47.222,308.333,663.889,5.556,N
161,-0.230,0.955,-0.225,136.111,47.222,311.111,647.222,16.667,N
162,-0.260,0.900,-0.250,138.889,47.222,330.556,647.222,0.000,N
163,-0.270,0.875,-0.200,133.333,47.222,325.000,655.556,8.333,N
164,-0.210,0.900,-0.180,141.667,47.222,319.444,672.222,16.667,N
165,-0.210,0.935,-0.185,136.111,47.222,322.222,663.889,8.333,N
166,-0.205,0.885,-0.200,133.333,47.222,327.778,658.333,5.556,N
167,-0.245,0.950,-0.225,138.889,50.000,305.556,655.556,2.778,N
168,-0.275,1.010,-0.255,138.889,47.222,325.000,652.778,2.778,N
169,-0.295,0.875,-0.250,141.667,47.222,336.111,661.111,8.333,N
170,-0.260,0.855,-0.260,130.556,47.222,61.111,661.111,0.000,N
171,-0.310,0.840,-0.245,138.889,47.222,308.333,666.667,5.556,N
172,-0.290,0.815,-0.280,133.333,47.222,322.222,638.889,27.778,N
173,-0.290,0.885,-0.270,130.556,47.222,325.000,638.889,0.000,N
174,-0.310,0.935,-0.265,127.778,47.222,311.111,652.778,13.889,N
175,-0.260,0.865,-0.230,138.889,47.222,316.667,658.333,5.556,N
176,-0.255,0.870,-0.240,138.889,47.222,61.111,663.889,5.556,N
177,-0.280,0.835,-0.250,130.556,47.222,333.333,650.000,13.889,N
178,-0.275,0.800,-0.255,127.778,83.333,308.333,658.333,8.333,N
179,-0.305,0.930,-0.270,133.333,47.222,330.556,647.222,11.111,N
180,-0.310,0.850,-0.255,136.111,47.222,330.556,669.444,22.222,N
181,-0.255,0.865,-0.225,133.333,50.000,322.222,672.222,2.778,N
182,-0.260,0.805,-0.210,138.889,47.222,313.889,672.222,0.000,N
183,-0.250,0.800,-0.225,130.556,47.222,325.000,652.778,19.444,N
184,-0.275,0.870,-0.255,138.889,80.556,330.556,669.444,16.667,N
185,-0.290,0.970,-0.270,133.333,47.222,333.333,663.889,5.556,N
186,-0.280,0.885,-0.235,138.889,47.222,322.222,683.333,19.444,N
187,-0.240,0.875,-0.235,136.111,50.000,308.333,683.333,0.000,N
188,-0.260,0.835,-0.240,133.333,50.000,330.556,663.889,19.444,N
189,-0.285,0.770,-0.255,133.333,47.222,330.556,669.444,5.556,N
190,-0.305,0.840,-0.260,130.556,50.000,336.111,669.444,0.000,N
191,-0.300,0.915,-0.270,141.667,50.000,319.444,683.333,13.889,N
192,-0.300,0.825,-0.240,136.111,47.222,319.444,669.444,13.889,N
193,-0.275,0.780,-0.250,133.333,47.222,316.667,666.667,2.778,N
194,-0.295,0.780,-0.280,138.889,44.444,316.667,663.889,2.778,N
195,-0.310,0.730,-0.275,136.111,47.222,322.222,661.111,2.778,N
196,-0.325,0.825,-0.315,136.111,47.222,330.556,663.889,2.778,N
197,-0.350,0.805,-0.345,136.111,47.222,327.778,666.667,2.778,N
198,-0.380,0.705,-0.330,133.333,44.444,316.667,680.556,13.889,N
199,-0.375,0.705,-0.340,138.889,50.000,327.778,658.333,22.222,N
200,-0.355,0.670,-0.325,136.111,47.222,322.222,669.444,11.111,N
201,-0.375,0.605,-0.305,138.889,50.000,344.444,675.000,5.556,N
202,-0.355,0.720,-0.340,141.667,50.000,316.667,694.444,19.444,N
203,-0.365,0.835,-0.340,136.111,50.000,327.778,658.333,36.111,N
204,-0.380,0.800,-0.350,130.556,44.444,327.778,663.889,5.556,N
205,-0.380,0.715,-0.340,127.778,47.222,311.111,658.333,5.556,N
206,-0.345,0.715,-0.320,133.333,44.444,58.333,680.556,22.222,N
207,-0.365,0.715,-0.295,136.111,50.000,336.111,661.111,19.444,N
208,-0.320,0.770,-0.290,138.889,47.222,325.000,680.556,19.444,N
209,-0.340,0.860,-0.295,125.000,47.222,325.000,661.111,19.444,N
210,-0.330,0.835,-0.320,136.111,47.222,316.667,669.444,8.333,N
211,-0.345,0.775,-0.320,133.333,47.222,61.111,650.000,19.444,N
212,-0.345,0.765,-0.315,141.667,50.000,61.111,672.222,22.222,N
213,-0.350,0.720,-0.320,136.111,47.222,322.222,677.778,5.556,N
214,-0.335,0.780,-0.310,138.889,50.000,319.444,666.667,11.111,N
215,-0.360,0.770,-0.345,136.111,86.111,305.556,650.000,16.667,N
216,-0.380,0.805,-0.325,136.111,47.222,322.222,658.333,8.333,N
217,-0.340,0.760,-0.295,133.333,47.222,319.444,666.667,8.333,N
218,-0.320,0.760,-0.315,144.444,50.000,61.111,680.556,13.889,N
219,-0.320,0.700,-0.295,136.111,47.222,316.667,686.111,5.556,N
220,-0.355,0.720,-0.335,127.778,86.111,305.556,677.778,8.333,N
221,-0.380,0.750,-0.325,141.667,50.000,313.889,669.444,8.333,N
222,-0.355,0.750,-0.290,138.889,47.222,319.444,652.778,16.667,N
223,-0.315,0.725,-0.280,136.111,47.222,325.000,666.667,13.889,N
224,-0.290,0.695,-0.270,130.556,50.000,305.556,688.889,22.222,N
225,-0.300,0.735,-0.265,136.111,47.222,302.778,666.667,22.222,N
226,-0.325,0.695,-0.330,136.111,47.222,316.667,650.000,16.667,N
227,-0.370,0.735,-0.320,133.333,50.000,336.111,647.222,2.778,N
228,-0.375,0.765,-0.340,127.778,47.222,308.333,663.889,16.667,N
229,-0.370,0.675,-0.310,141.667,83.333,308.333,663.889,0.000,N
230,-0.340,0.675,-0.335,144.444,88.889,313.889,672.222,8.333,N
231,-0.390,0.630,-0.330,130.556,50.000,313.889,663.889,8.333,N
232,-0.395,0.610,-0.320,130.556,47.222,311.111,669.444,5.556,N
233,-0.370,0.680,-0.345,138.889,88.889,322.222,658.333,11.111,N
234,-0.400,0.750,-0.325,138.889,86.111,336.111,680.556,22.222,N
235,-0.355,0.755,-0.305,138.889,47.222,327.778,677.778,2.778,N
236,-0.300,0.685,-0.280,138.889,83.333,313.889,675.000,2.778,N
237,-0.290,0.735,-0.245,138.889,47.222,322.222,663.889,11.111,N
238,-0.290,0.645,-0.270,141.667,50.000,316.667,672.222,8.333,N
239,-0.320,0.700,-0.275,136.111,80.556,325.000,661.111,11.111,N
240,-0.325,0.805,-0.240,136.111,52.778,313.889,677.778,16.667,N
241,-0.300,0.740,-0.250,138.889,50.000,333.333,672.222,5.556,N
242,-0.260,0.740,-0.230,136.111,47.222,61.111,658.333,13.889,N
243,-0.270,0.735,-0.205,130.556,44.444,316.667,658.333,0.000,N
244,-0.250,0.730,-0.205,136.111,47.222,330.556,661.111,2.778,N
245,-0.240,0.840,-0.205,136.111,83.333,322.222,666.667,5.556,N
246,-0.235,0.865,-0.195,133.333,44.444,327.778,663.889,2.778,N
247,-0.265,0.760,-0.240,133.333,44.444,308.333,652.778,11.111,N
248,-0.270,0.730,-0.240,136.111,80.556,302.778,650.000,2.778,N
249,-0.295,0.640,-0.255,138.889,86.111,308.333,655.556,5.556,N
250,-0.295,0.645,-0.275,136.111,50.000,319.444,655.556,0.000,N
251,-0.335,0.690,-0.260,141.667,86.111,313.889,672.222,16.667,N
252,-0.310,0.775,-0.240,144.444,88.889,313.889,672.222,0.000,N
253,-0.305,0.700,-0.295,136.111,47.222,319.444,652.778,19.444,N
254,-0.310,0.675,-0.300,133.333,77.778,325.000,661.111,8.333,N
255,-0.365,0.575,-0.320,133.333,50.000,333.333,658.333,2.778,N
256,-0.365,0.635,-0.300,144.444,86.111,313.889,694.444,36.111,N
257,-0.355,0.730,-0.300,133.333,86.111,336.111,666.667,27.778,N
258,-0.330,0.795,-0.260,138.889,83.333,308.333,666.667,0.000,N
259,-0.290,0.775,-0.225,133.333,47.222,300.000,647.222,19.444,N
260,-0.265,0.655,-0.205,141.667,86.111,305.556,655.556,8.333,N
261,-0.240,0.690,-0.200,136.111,77.778,330.556,652.778,2.778,N
262,-0.265,0.755,-0.205,136.111,77.778,316.667,672.222,19.444,N
263,-0.275,0.795,-0.230,133.333,50.000,313.889,672.222,0.000,N
264,-0.275,0.745,-0.225,133.333,47.222,333.333,647.222,25.000,N
265,-0.275,0.655,-0.210,138.889,77.778,313.889,650.000,2.778,N
266,-0.245,0.700,-0.195,138.889,47.222,319.444,666.667,16.667,N
267,-0.255,0.820,-0.210,144.444,80.556,327.778,686.111,19.444,N
268,-0.265,0.825,-0.185,136.111,47.222,330.556,666.667,19.444,N
269,-0.215,0.800,-0.165,127.778,47.222,300.000,663.889,2.778,N
270,-0.235,0.775,-0.200,136.111,44.444,330.556,663.889,0.000,N
271,-0.285,0.830,-0.265,144.444,50.000,308.333,663.889,0.000,N
272,-0.305,0.785,-0.210,144.444,50.000,336.111,666.667,2.778,N
273,-0.245,0.775,-0.195,136.111,47.222,333.333,669.444,2.778,N
274,-0.230,0.765,-0.195,138.889,44.444,316.667,680.556,11.111,N
275,-0.275,0.775,-0.230,133.333,47.222,330.556,652.778,27.778,N
276,-0.300,0.815,-0.285,136.111,47.222,316.667,655.556,2.778,N
277,-0.325,0.750,-0.220,133.333,47.222,327.778,652.778,2.778,N
278,-0.250,0.755,-0.260,141.667,44.444,313.889,680.556,27.778,N
279,-0.305,0.730,-0.285,136.111,47.222,330.556,655.556,25.000,N
280,-0.345,0.750,-0.320,130.556,47.222,311.111,650.000,5.556,N
281,-0.425,0.755,-0.370,127.778,47.222,311.111,641.667,8.333,N
282,-0.380,0.690,-0.320,141.667,47.222,319.444,652.778,11.111,N
283,-0.375,0.620,-0.315,138.889,47.222,336.111,641.667,11.111,N
284,-0.360,0.610,-0.345,138.889,47.222,344.444,663.889,22.222,N
285,-0.395,0.670,-0.305,138.889,47.222,308.333,672.222,8.333,N
286,-0.355,0.830,-0.320,141.667,47.222,322.222,655.556,16.667,N
287,-0.420,0.745,-0.335,127.778,50.000,311.111,647.222,8.333,N
288,-0.370,0.685,-0.335,138.889,47.222,322.222,652.778,5.556,N
289,-0.375,0.640,-0.320,144.444,50.000,336.111,683.333,30.556,N
290,-0.370,0.655,-0.325,138.889,47.222,338.889,666.667,16.667,N
291,-0.380,0.635,-0.300,125.000,44.444,311.111,661.111,5.556,N
292,-0.350,0.835,-0.330,138.889,47.222,319.444,658.333,2.778,N
293,-0.395,0.835,-0.340,144.444,47.222,327.778,652.778,5.556,N
294,-0.360,0.715,-0.310,136.111,50.000,322.222,647.222,5.556,N
295,-0.350,0.690,-0.300,133.333,47.222,319.444,663.889,16.667,N
296,-0.350,0.695,-0.295,138.889,47.222,308.333,680.556,16.667,N
297,-0.340,0.700,-0.280,136.111,50.000,327.778,650.000,30.556,N
298,-0.330,0.735,-0.265,136.111,47.222,316.667,644.444,5.556,N
299,-0.325,0.850,-0.280,133.333,88.889,341.667,647.222,2.778,N
300,-0.385,0.685,-0.305,144.444,88.889,336.111,669.444,22.222,N
301,-0.355,0.495,-0.265,127.778,88.889,347.222,655.556,13.889,N
302,-0.320,0.560,-0.265,136.111,72.222,316.667,661.111,5.556,N
303,-0.335,0.340,-0.270,130.556,100.000,316.667,650.000,11.111,N
304,-0.330,0.300,-0.270,147.222,113.889,338.889,658.333,8.333,N
305,-0.310,0.330,-0.260,133.333,102.778,344.444,655.556,2.778,N
306,-0.315,0.685,-0.255,133.333,77.778,322.222,663.889,8.333,N
307,-0.300,0.720,-0.245,138.889,47.222,313.889,675.000,11.111,N
308,-0.315,0.700,-0.255,138.889,83.333,336.111,652.778,22.222,N
309,-0.310,0.660,-0.250,127.778,44.444,305.556,658.333,5.556,N
310,-0.315,0.730,-0.255,138.889,50.000,338.889,663.889,5.556,N
311,-0.305,0.830,-0.235,141.667,47.222,319.444,688.889,25.000,N
312,-0.315,0.890,-0.260,133.333,47.222,325.000,661.111,27.778,N
313,-0.320,0.865,-0.235,127.778,44.444,302.778,658.333,2.778,N
314,-0.310,0.750,-0.255,141.667,47.222,313.889,658.333,0.000,N
315,-0.345,0.745,-0.280,141.667,47.222,308.333,669.444,11.111,N
316,-0.375,0.715,-0.280,133.333,50.000,338.889,672.222,2.778,N
317,-0.345,0.715,-0.285,133.333,47.222,325.000,677.778,5.556,N
318,-0.345,0.810,-0.245,130.556,47.222,311.111,686.111,8.333,N
319,-0.330,0.910,-0.265,136.111,47.222,305.556,672.222,13.889,N
320,-0.335,0.790,-0.275,133.333,50.000,316.667,658.333,13.889,N
321,-0.345,0.750,-0.245,136.111,47.222,330.556,675.000,16.667,N
322,-0.335,0.825,-0.280,138.889,50.000,313.889,700.000,25.000,N
323,-0.330,0.795,-0.265,136.111,50.000,327.778,672.222,27.778,N
324,-0.310,0.800,-0.245,133.333,47.222,322.222,666.667,5.556,N
325,-0.280,0.925,-0.230,130.556,47.222,330.556,666.667,0.000,N
326,-0.275,0.930,-0.225,136.111,47.222,319.444,675.000,8.333,N
327,-0.265,0.815,-0.215,138.889,50.000,319.444,669.444,5.556,N
328,-0.310,0.595,-0.230,144.444,88.889,319.444,675.000,5.556,N
329,-0.285,0.745,-0.225,130.556,50.000,327.778,680.556,5.556,N
330,-0.260,0.780,-0.225,136.111,44.444,319.444,675.000,5.556,N
331,-0.290,0.915,-0.225,133.333,47.222,327.778,658.333,16.667,N
332,-0.285,0.955,-0.230,138.889,50.000,327.778,677.778,19.444,N
333,-0.300,0.840,-0.235,136.111,47.222,302.778,688.889,11.111,N
334,-0.280,0.870,-0.235,141.667,47.222,300.000,677.778,11.111,N
335,-0.280,0.840,-0.235,130.556,47.222,302.778,658.333,19.444,N
336,-0.295,0.815,-0.235,141.667,47.222,325.000,675.000,16.667,N
337,-0.285,0.780,-0.195,136.111,50.000,313.889,680.556,5.556,N
338,-0.265,0.885,-0.175,133.333,47.222,322.222,686.111,5.556,N
339,-0.265,0.970,-0.205,147.222,47.222,311.111,691.667,5.556,N
340,-0.275,0.925,-0.185,136.111,50.000,333.333,666.667,25.000,N
341,-0.235,0.870,-0.195,130.556,47.222,302.778,669.444,2.778,N
342,-0.245,0.785,-0.185,133.333,47.222,325.000,669.444,0.000,N
343,-0.270,0.670,-0.215,138.889,50.000,325.000,705.556,36.111,N
344,-0.280,0.670,-0.235,136.111,83.333,319.444,677.778,27.778,N
345,-0.275,0.795,-0.195,130.556,47.222,305.556,677.778,0.000,N
346,-0.280,0.860,-0.200,141.667,50.000,308.333,661.111,16.667,N
347,-0.265,0.895,-0.240,138.889,47.222,316.667,658.333,2.778,N
348,-0.285,0.795,-0.265,136.111,44.444,322.222,658.333,0.000,N
349,-0.310,0.710,-0.250,136.111,44.444,319.444,669.444,11.111,N
350,-0.305,0.745,-0.255,133.333,50.000,313.889,688.889,19.444,N
351,-0.305,0.750,-0.245,138.889,47.222,308.333,663.889,25.000,N
352,-0.325,0.840,-0.240,136.111,47.222,316.667,658.333,5.556,N
353,-0.315,0.815,-0.225,144.444,86.111,338.889,675.000,16.667,N
354,-0.255,0.825,-0.225,141.667,50.000,316.667,688.889,13.889,N
355,-0.275,0.795,-0.235,141.667,47.222,322.222,669.444,19.444,N
356,-0.285,0.745,-0.225,130.556,47.222,316.667,663.889,5.556,N
357,-0.275,0.795,-0.230,133.333,44.444,316.667,666.667,2.778,N
358,-0.300,0.840,-0.270,138.889,47.222,311.111,677.778,11.111,N
359,-0.325,0.810,-0.270,144.444,47.222,319.444,661.111,16.667,N
360,-0.340,0.705,-0.260,141.667,50.000,338.889,675.000,13.889,N
361,-0.310,0.735,-0.250,133.333,50.000,338.889,675.000,0.000,N
362,-0.290,0.745,-0.240,138.889,47.222,319.444,680.556,5.556,N
363,-0.315,0.830,-0.280,127.778,47.222,308.333,650.000,30.556,N
364,-0.345,0.860,-0.270,141.667,50.000,338.889,669.444,19.444,N
365,-0.290,0.845,-0.270,136.111,47.222,319.444,677.778,8.333,N
366,-0.330,0.765,-0.280,141.667,47.222,319.444,666.667,11.111,N
367,-0.335,0.705,-0.280,133.333,50.000,313.889,644.444,22.222,N
368,-0.120,-1.910,0.480,30.556,0.000,225.000,466.667,177.778,V
369,-0.335,0.860,-0.210,133.333,47.222,330.556,852.778,386.111,N
370,-0.305,0.720,-0.265,138.889,47.222,325.000,666.667,186.111,N
371,-0.290,0.760,-0.245,144.444,47.222,333.333,663.889,2.778,N
372,-0.295,0.740,-0.225,133.333,44.444,308.333,663.889,0.000,N
373,-0.280,0.805,-0.240,138.889,47.222,313.889,655.556,8.333,N
374,-0.310,0.790,-0.295,136.111,50.000,313.889,641.667,13.889,N
375,-0.335,0.705,-0.280,141.667,50.000,333.333,666.667,25.000,N
376,-0.315,0.705,-0.270,133.333,47.222,302.778,675.000,8.333,N
377,-0.330,0.760,-0.285,141.667,47.222,311.111,655.556,19.444,N
378,-0.345,0.700,-0.270,133.333,47.222,338.889,636.111,19.444,N
379,-0.275,0.660,-0.220,133.333,47.222,325.000,644.444,8.333,N
380,-0.215,0.730,-0.220,130.556,44.444,58.333,669.444,25.000,N
381,-0.235,0.690,-0.220,138.889,47.222,322.222,669.444,0.000,N
382,-0.275,0.755,-0.250,138.889,80.556,327.778,666.667,2.778,N
383,-0.300,0.710,-0.275,133.333,50.000,330.556,658.333,8.333,N
384,-0.310,0.670,-0.250,130.556,47.222,313.889,652.778,5.556,N
385,-0.285,0.640,-0.250,133.333,50.000,325.000,655.556,2.778,N
386,-0.270,0.650,-0.275,144.444,50.000,347.222,677.778,22.222,N
387,-0.315,0.670,-0.245,133.333,47.222,308.333,677.778,0.000,N
388,-0.285,0.645,-0.255,133.333,50.000,311.111,652.778,25.000,N
389,-0.300,0.795,-0.275,141.667,50.000,313.889,641.667,11.111,N
390,-0.330,0.710,-0.280,136.111,47.222,327.778,647.222,5.556,N
391,-0.330,0.635,-0.295,125.000,47.222,311.111,655.556,8.333,N
392,-0.335,0.685,-0.310,136.111,80.556,319.444,655.556,0.000,N
393,-0.330,0.680,-0.290,136.111,47.222,322.222,661.111,5.556,N
394,-0.305,0.655,-0.280,136.111,47.222,325.000,641.667,19.444,N
395,-0.305,0.660,-0.255,127.778,44.444,302.778,655.556,13.889,N
396,-0.290,0.610,-0.240,133.333,44.444,319.444,641.667,13.889,N
397,-0.280,0.685,-0.230,136.111,50.000,311.111,677.778,36.111,N
398,-0.295,0.745,-0.260,136.111,47.222,316.667,666.667,11.111,N
399,-0.310,0.680,-0.300,136.111,41.667,316.667,661.111,5.556,N
400,-0.370,0.590,-0.345,141.667,47.222,313.889,644.444,16.667,N
401,-0.390,0.565,-0.305,133.333,47.222,316.667,647.222,2.778,N
402,-0.360,0.715,-0.295,138.889,47.222,311.111,652.778,5.556,N
403,-0.315,0.690,-0.310,138.889,50.000,319.444,655.556,2.778,N
404,-0.365,0.685,-0.245,138.889,52.778,336.111,661.111,5.556,N
405,-0.320,0.665,-0.275,138.889,50.000,313.889,650.000,11.111,N
406,-0.315,0.640,-0.275,133.333,47.222,300.000,641.667,8.333,N
407,-0.415,0.415,-0.445,138.889,86.111,308.333,627.778,13.889,N
408,-0.475,0.560,-0.355,136.111,80.556,325.000,647.222,19.444,N
409,-0.380,0.695,-0.230,127.778,47.222,302.778,663.889,16.667,N
410,-0.245,0.885,-0.165,136.111,86.111,327.778,638.889,25.000,N
411,-0.225,0.875,-0.215,130.556,86.111,322.222,630.556,8.333,N
412,-0.245,0.800,-0.220,136.111,47.222,61.111,630.556,0.000,N
413,-0.255,0.820,-0.210,141.667,47.222,313.889,650.000,19.444,N
414,-0.270,0.720,-0.265,133.333,47.222,325.000,625.000,25.000,N
415,-0.365,0.725,-0.300,125.000,50.000,316.667,650.000,25.000,N
416,-0.335,0.690,-0.270,125.000,41.667,327.778,641.667,8.333,N
417,-0.340,0.690,-0.275,130.556,50.000,336.111,636.111,5.556,N
418,-0.355,0.720,-0.280,130.556,50.000,313.889,622.222,13.889,N
419,-0.380,0.685,-0.275,127.778,86.111,336.111,636.111,13.889,N
420,-0.355,0.680,-0.245,136.111,86.111,322.222,652.778,16.667,N
421,-0.345,0.775,-0.160,100.000,50.000,327.778,630.556,22.222,N
422,-0.295,1.035,-0.155,116.667,47.222,300.000,625.000,5.556,N
423,-0.240,0.810,-0.195,133.333,44.444,305.556,619.444,5.556,N
424,-0.255,0.850,-0.190,130.556,47.222,311.111,616.667,2.778,N
425,-0.255,0.860,-0.120,122.222,44.444,313.889,611.111,5.556,N
426,-0.205,0.900,-0.155,127.778,55.556,302.778,622.222,11.111,N
427,-0.210,0.880,-0.150,144.444,50.000,316.667,619.444,2.778,N
428,-0.215,0.870,-0.135,130.556,50.000,305.556,611.111,8.333,N
429,-0.245,0.990,-0.175,125.000,44.444,288.889,608.333,2.778,N
430,-0.260,0.885,-0.225,130.556,47.222,325.000,602.778,5.556,N
431,-0.300,0.815,-0.240,150.000,44.444,311.111,622.222,19.444,N
432,-0.325,0.935,-0.230,125.000,44.444,305.556,633.333,11.111,N
433,-0.320,0.860,-0.260,130.556,50.000,305.556,605.556,27.778,N
434,-0.325,0.785,-0.250,125.000,47.222,300.000,602.778,2.778,N
435,-0.395,0.810,-0.290,141.667,47.222,308.333,619.444,16.667,N
436,-0.375,0.880,-0.280,141.667,47.222,308.333,630.556,11.111,N
437,-0.365,0.785,-0.280,133.333,44.444,330.556,613.889,16.667,N
438,-0.375,0.780,-0.285,127.778,52.778,333.333,633.333,19.444,N
439,-0.345,0.900,-0.265,133.333,44.444,322.222,644.444,11.111,N
440,-0.360,0.885,-0.250,127.778,47.222,333.333,625.000,19.444,N
441,-0.345,0.790,-0.285,130.556,50.000,311.111,630.556,5.556,N
442,-0.375,0.895,-0.265,133.333,47.222,322.222,625.000,5.556,N
443,-0.350,0.925,-0.215,136.111,50.000,333.333,650.000,25.000,N
444,-0.285,0.855,-0.240,130.556,41.667,305.556,638.889,11.111,N
445,-0.270,0.870,-0.190,138.889,47.222,366.667,638.889,0.000,N
446,-0.190,-1.680,0.505,36.111,0.000,219.444,375.000,263.889,V
447,-0.285,0.940,-0.135,127.778,47.222,344.444,869.444,494.444,N
448,-0.135,0.720,-0.190,183.333,41.667,52.778,505.556,363.889,A
449,-0.220,-1.710,0.550,38.889,2.778,230.556,347.222,158.333,V
450,0.550,-1.315,0.330,88.889,2.778,213.889,319.444,27.778,V
451,0.330,-1.475,0.490,77.778,2.778,211.111,297.222,22.222,V
452,0.490,-1.390,0.395,136.111,8.333,211.111,347.222,50.000,V
453,0.395,-1.545,0.530,122.222,2.778,211.111,352.778,5.556,V
454,0.530,-1.415,0.380,119.444,2.778,208.333,333.333,19.444,V
455,0.380,-1.425,0.440,102.778,0.000,194.444,313.889,19.444,V
456,0.440,-1.415,0.475,147.222,0.000,202.778,352.778,38.889,V
457,-0.340,0.565,-0.245,138.889,50.000,319.444,594.444,241.667,N
458,-0.335,0.645,-0.225,127.778,97.222,344.444,647.222,52.778,N
459,-0.165,-0.695,0.045,33.333,2.778,202.778,669.444,22.222,F
460,0.045,-1.850,0.660,94.444,2.778,202.778,297.222,372.222,V
461,0.660,-1.425,0.460,136.111,0.000,208.333,341.667,44.444,V
462,0.460,-1.425,0.465,91.667,5.556,191.667,300.000,41.667,V
463,0.465,-1.430,0.215,111.111,2.778,194.444,302.778,2.778,V
464,0.215,-1.670,0.510,102.778,5.556,202.778,297.222,5.556,V
465,0.510,-1.255,0.230,55.556,5.556,175.000,263.889,33.333,V
466,0.230,-1.425,0.500,113.889,0.000,205.556,291.667,27.778,V
467,0.500,-1.330,0.235,105.556,8.333,205.556,311.111,19.444,V
468,0.235,-1.450,0.425,88.889,2.778,197.222,294.444,16.667,V
469,-0.135,0.645,-0.315,197.222,47.222,319.444,483.333,188.889,N
470,-0.350,0.845,-0.155,141.667,50.000,308.333,611.111,127.778,N
471,-0.300,0.965,-0.235,138.889,47.222,297.222,647.222,36.111,N
472,-0.280,0.790,-0.215,141.667,47.222,311.111,616.667,30.556,N
473,-0.250,0.865,-0.185,133.333,44.444,308.333,625.000,8.333,N
474,-0.225,0.880,-0.175,133.333,47.222,313.889,627.778,2.778,N
475,-0.220,0.950,-0.175,144.444,47.222,308.333,655.556,27.778,N
476,-0.200,1.015,-0.195,127.778,47.222,294.444,636.111,19.444,N
477,-0.240,0.840,-0.215,136.111,47.222,58.333,641.667,5.556,N
478,-0.285,0.700,-0.260,133.333,47.222,288.889,630.556,11.111,N
479,-0.305,0.620,-0.300,141.667,47.222,316.667,647.222,16.667,N
480,-0.330,0.560,-0.270,125.000,44.444,311.111,636.111,11.111,N
481,-0.260,0.695,-0.250,138.889,44.444,313.889,658.333,22.222,N
482,-0.295,0.785,-0.245,136.111,47.222,294.444,661.111,2.778,N
483,-0.310,0.985,-0.345,138.889,116.667,341.667,647.222,13.889,N
484,-0.345,0.760,-0.165,127.778,47.222,325.000,641.667,5.556,N
485,-0.165,-1.655,0.420,33.333,0.000,211.111,336.111,305.556,V
486,-0.365,0.760,-0.245,141.667,50.000,338.889,958.333,622.222,N
487,-0.375,0.880,-0.390,136.111,47.222,302.778,658.333,300.000,N
488,-0.405,0.735,-0.340,133.333,47.222,308.333,641.667,16.667,N
489,-0.390,0.650,-0.325,133.333,47.222,322.222,627.778,13.889,N
490,-0.350,0.640,-0.305,127.778,47.222,311.111,638.889,11.111,N
491,-0.335,0.665,-0.275,122.222,44.444,302.778,638.889,0.000,N
492,-0.280,0.775,-0.225,133.333,44.444,294.444,647.222,8.333,N
493,-0.225,0.795,-0.240,141.667,55.556,311.111,647.222,0.000,N
494,-0.275,0.885,-0.280,133.333,47.222,280.556,641.667,5.556,N
495,-0.335,0.930,-0.305,144.444,47.222,308.333,636.111,5.556,N
496,-0.300,0.775,-0.185,136.111,47.222,313.889,622.222,13.889,N
497,-0.200,0.925,-0.175,133.333,50.000,322.222,647.222,25.000,N
498,-0.190,0.855,-0.165,136.111,47.222,302.778,663.889,16.667,N
499,-0.195,1.035,-0.110,138.889,50.000,300.000,644.444,19.444,N
500,-0.200,0.970,-0.160,133.333,44.444,302.778,633.333,11.111,N
501,-0.175,0.930,-0.120,136.111,47.222,313.889,644.444,11.111,N
502,-0.175,0.915,-0.170,130.556,47.222,58.333,661.111,16.667,N
503,-0.240,0.930,-0.155,138.889,50.000,316.667,647.222,13.889,N
504,-0.225,0.965,-0.205,138.889,50.000,322.222,658.333,11.111,N
505,-0.220,0.850,-0.210,133.333,44.444,300.000,652.778,5.556,N
506,-0.220,0.840,-0.240,138.889,47.222,288.889,650.000,2.778,N
507,-0.285,0.725,-0.270,141.667,47.222,311.111,633.333,16.667,N
508,-0.340,0.805,-0.300,141.667,50.000,302.778,661.111,27.778,N
509,-0.305,0.840,-0.270,130.556,44.444,291.667,661.111,0.000,N
510,-0.260,0.735,-0.290,141.667,50.000,63.889,644.444,16.667,N
511,-0.395,0.600,-0.415,133.333,44.444,58.333,630.556,13.889,N
512,-0.530,0.625,-0.495,127.778,47.222,300.000,641.667,11.111,N
513,-0.515,0.585,-0.440,133.333,47.222,291.667,652.778,11.111,N
514,-0.435,0.650,-0.380,141.667,47.222,305.556,647.222,5.556,N
515,-0.365,0.675,-0.305,136.111,50.000,325.000,655.556,8.333,N
516,-0.320,0.870,-0.230,133.333,44.444,294.444,661.111,5.556,N
517,-0.275,0.895,-0.215,141.667,50.000,288.889,650.000,11.111,N
518,-0.225,0.845,-0.170,141.667,47.222,305.556,641.667,8.333,N
519,-0.190,0.860,-0.145,138.889,52.778,336.111,672.222,30.556,N
520,-0.170,0.955,-0.160,144.444,47.222,283.333,686.111,13.889,N
521,-0.215,0.935,-0.190,136.111,50.000,297.222,655.556,30.556,N
522,-0.225,0.810,-0.165,130.556,47.222,316.667,644.444,11.111,N
523,-0.195,0.820,-0.190,130.556,47.222,294.444,655.556,11.111,N
524,-0.205,0.810,-0.190,130.556,44.444,302.778,663.889,8.333,N
525,-0.250,0.885,-0.210,138.889,50.000,308.333,658.333,5.556,N
526,-0.265,0.825,-0.230,141.667,50.000,316.667,661.111,2.778,N
527,-0.250,0.785,-0.220,130.556,44.444,288.889,658.333,2.778,N
528,-0.235,0.740,-0.235,136.111,44.444,294.444,658.333,0.000,N
529,-0.260,0.835,-0.255,133.333,44.444,286.111,644.444,13.889,N
530,-0.290,0.810,-0.245,136.111,50.000,330.556,658.333,13.889,N
531,-0.255,0.720,-0.250,138.889,44.444,288.889,675.000,16.667,N
532,-0.250,0.775,-0.200,136.111,50.000,300.000,658.333,16.667,N
533,-0.250,0.740,-0.185,136.111,47.222,311.111,652.778,5.556,N
534,-0.230,0.875,-0.195,133.333,44.444,311.111,658.333,5.556,N
535,-0.230,0.850,-0.180,130.556,44.444,291.667,663.889,5.556,N
536,-0.200,0.790,-0.190,138.889,47.222,319.444,669.444,5.556,N
537,-0.215,0.775,-0.180,144.444,50.000,313.889,680.556,11.111,N
538,-0.220,0.810,-0.160,136.111,47.222,322.222,683.333,2.778,N
539,-0.200,0.920,-0.180,138.889,44.444,283.333,672.222,11.111,N
540,-0.220,0.825,-0.140,136.111,47.222,327.778,658.333,13.889,N
541,-0.155,0.815,-0.150,144.444,47.222,313.889,680.556,22.222,N
542,-0.155,0.815,-0.155,136.111,47.222,297.222,688.889,8.333,N
543,-0.190,0.850,-0.180,141.667,44.444,311.111,675.000,13.889,N
544,-0.245,0.815,-0.255,141.667,50.000,311.111,669.444,5.556,N
545,-0.320,0.690,-0.265,141.667,47.222,313.889,666.667,2.778,N
546,-0.295,0.685,-0.280,136.111,50.000,313.889,666.667,0.000,N
547,-0.310,0.635,-0.290,130.556,47.222,302.778,683.333,16.667,N
548,-0.320,0.685,-0.285,144.444,50.000,311.111,694.444,11.111,N
549,-0.370,0.675,-0.310,127.778,47.222,300.000,669.444,25.000,N
550,-0.345,0.650,-0.310,136.111,50.000,305.556,669.444,0.000,N
551,-0.325,0.595,-0.305,141.667,50.000,316.667,686.111,16.667,N
552,-0.335,0.655,-0.300,144.444,50.000,322.222,702.778,16.667,N
553,-0.380,0.730,-0.335,136.111,50.000,305.556,677.778,25.000,N
554,-0.365,0.700,-0.300,136.111,44.444,300.000,669.444,8.333,N
555,-0.315,0.735,-0.260,133.333,44.444,300.000,666.667,2.778,N
556,-0.100,-1.855,0.465,33.333,0.000,225.000,486.111,180.556,V
557,-0.310,0.750,-0.195,138.889,80.556,327.778,861.111,375.000,N
558,-0.255,0.710,-0.270,138.889,50.000,61.111,672.222,188.889,N
559,-0.270,0.765,-0.205,136.111,47.222,311.111,669.444,2.778,N
560,-0.250,0.805,-0.240,136.111,80.556,300.000,652.778,16.667,N
561,-0.280,0.850,-0.245,138.889,47.222,311.111,641.667,11.111,N
562,-0.270,0.775,-0.245,138.889,50.000,333.333,652.778,11.111,N
563,-0.260,0.815,-0.215,136.111,47.222,61.111,669.444,16.667,N
564,-0.245,0.760,-0.210,141.667,47.222,322.222,647.222,22.222,N
565,-0.255,0.890,-0.250,130.556,47.222,297.222,650.000,2.778,N
566,-0.320,0.850,-0.270,133.333,44.444,316.667,647.222,2.778,N
567,-0.300,0.740,-0.300,136.111,50.000,302.778,658.333,11.111,N
568,-0.345,0.685,-0.340,144.444,47.222,313.889,650.000,8.333,N
569,-0.400,0.645,-0.340,138.889,50.000,305.556,675.000,25.000,N
570,-0.375,0.810,-0.330,136.111,44.444,297.222,680.556,5.556,N
571,-0.380,0.710,-0.325,138.889,47.222,305.556,652.778,27.778,N
572,-0.315,0.675,-0.305,133.333,44.444,316.667,650.000,2.778,N
573,-0.310,0.680,-0.295,136.111,50.000,319.444,669.444,19.444,N
574,-0.310,0.845,-0.245,138.889,50.000,302.778,691.667,22.222,N
575,-0.320,0.845,-0.265,136.111,52.778,311.111,661.111,30.556,N
576,-0.280,0.795,-0.250,133.333,44.444,316.667,650.000,11.111,N
577,-0.270,0.645,-0.225,125.000,86.111,313.889,647.222,2.778,N
578,-0.240,0.710,-0.215,138.889,47.222,308.333,661.111,13.889,N
579,-0.265,0.870,-0.215,138.889,47.222,302.778,647.222,13.889,N
580,-0.245,0.895,-0.230,138.889,50.000,336.111,661.111,13.889,N
581,-0.245,0.750,-0.205,133.333,47.222,308.333,661.111,0.000,N
582,-0.225,0.800,-0.190,133.333,50.000,302.778,641.667,19.444,N
583,-0.195,0.800,-0.205,127.778,44.444,302.778,638.889,2.778,N
584,-0.260,0.810,-0.200,141.667,50.000,316.667,652.778,13.889,N
585,-0.230,0.730,-0.205,141.667,47.222,305.556,672.222,19.444,N
586,-0.240,0.755,-0.185,133.333,50.000,327.778,644.444,27.778,N
587,-0.230,0.730,-0.215,133.333,47.222,311.111,647.222,2.778,N
588,-0.265,0.805,-0.225,133.333,47.222,311.111,644.444,2.778,N
589,-0.245,0.830,-0.235,141.667,47.222,294.444,652.778,8.333,N
590,-0.240,0.740,-0.175,136.111,50.000,322.222,636.111,16.667,N
591,-0.210,0.715,-0.220,136.111,47.222,316.667,663.889,27.778,N
592,-0.255,0.690,-0.220,133.333,47.222,297.222,663.889,0.000,N
593,-0.275,0.795,-0.210,138.889,50.000,308.333,652.778,11.111,N
594,-0.260,0.750,-0.225,130.556,47.222,302.778,638.889,13.889,N
595,-0.215,0.665,-0.175,133.333,50.000,322.222,650.000,11.111,N
596,-0.190,0.695,-0.180,141.667,52.778,319.444,672.222,22.222,N
597,-0.225,0.705,-0.180,133.333,50.000,302.778,647.222,25.000,N
598,-0.215,0.760,-0.135,133.333,75.000,316.667,650.000,2.778,N
599,-0.180,0.805,-0.120,130.556,86.111,305.556,650.000,0.000,N
600,-0.140,0.740,-0.125,138.889,80.556,313.889,647.222,2.778,N
601,-0.175,0.680,-0.140,136.111,86.111,316.667,641.667,5.556,N
602,-0.165,0.690,-0.140,133.333,75.000,322.222,661.111,19.444,N
603,-0.170,0.755,-0.140,144.444,80.556,313.889,675.000,13.889,N
604,-0.200,0.805,-0.140,125.000,86.111,305.556,641.667,33.333,N
605,-0.125,0.775,-0.120,136.111,77.778,313.889,650.000,8.333,N
606,-0.170,0.690,-0.105,133.333,83.333,313.889,647.222,2.778,N
607,-0.130,0.770,-0.110,138.889,86.111,327.778,677.778,30.556,N
608,-0.145,0.765,-0.120,133.333,77.778,319.444,647.222,30.556,N
609,-0.160,0.875,-0.130,136.111,77.778,288.889,661.111,13.889,N
610,-0.175,0.765,-0.160,144.444,88.889,313.889,647.222,13.889,N
611,-0.195,0.735,-0.170,141.667,80.556,322.222,652.778,5.556,N
612,-0.195,0.715,-0.180,138.889,80.556,311.111,644.444,8.333,N
613,-0.205,0.780,-0.175,138.889,47.222,313.889,669.444,25.000,N
614,-0.215,0.970,-0.155,144.444,50.000,302.778,675.000,5.556,N
615,-0.185,0.885,-0.165,138.889,47.222,322.222,641.667,33.333,N
616,-0.190,0.825,-0.165,138.889,47.222,311.111,650.000,8.333,N
617,-0.205,0.845,-0.180,133.333,50.000,327.778,652.778,2.778,N
618,-0.220,0.800,-0.200,141.667,50.000,316.667,675.000,22.222,N
619,-0.240,0.975,-0.180,136.111,80.556,319.444,655.556,19.444,N
620,-0.240,0.900,-0.215,136.111,47.222,283.333,647.222,8.333,N
621,-0.250,0.720,-0.180,138.889,88.889,311.111,641.667,5.556,N
622,-0.195,0.720,-0.180,133.333,97.222,322.222,647.222,5.556,N
623,-0.205,0.660,-0.180,141.667,86.111,316.667,647.222,0.000,N
624,-0.220,0.780,-0.170,130.556,86.111,316.667,663.889,16.667,N
625,-0.205,0.870,-0.195,141.667,80.556,322.222,663.889,0.000,N
626,-0.230,0.650,-0.220,144.444,83.333,311.111,641.667,22.222,N
627,-0.250,0.565,-0.210,133.333,105.556,325.000,647.222,5.556,N
628,-0.225,0.535,-0.195,138.889,108.333,350.000,650.000,2.778,N
629,-0.245,0.660,-0.210,147.222,91.667,316.667,675.000,25.000,N
630,-0.240,0.725,-0.210,133.333,102.778,350.000,650.000,25.000,N
631,-0.220,0.640,-0.215,133.333,88.889,313.889,647.222,2.778,N
632,-0.245,0.575,-0.215,144.444,91.667,313.889,641.667,5.556,N
633,-0.255,0.530,-0.210,138.889,100.000,344.444,644.444,2.778,N
634,-0.255,0.555,-0.220,136.111,116.667,341.667,647.222,2.778,N
635,-0.235,0.645,-0.215,136.111,105.556,350.000,652.778,5.556,N
636,-0.240,0.625,-0.200,136.111,80.556,305.556,661.111,8.333,N
637,-0.220,0.615,-0.210,136.111,100.000,341.667,638.889,22.222,N
638,-0.220,0.575,-0.185,136.111,72.222,313.889,644.444,5.556,N
639,-0.190,0.645,-0.110,141.667,113.889,344.444,638.889,5.556,N
640,-0.130,0.855,-0.125,144.444,80.556,327.778,661.111,22.222,N
641,-0.165,0.820,-0.115,130.556,50.000,305.556,647.222,13.889,N
642,-0.140,0.795,-0.125,136.111,47.222,58.333,652.778,5.556,N
643,-0.145,0.765,-0.155,136.111,77.778,319.444,630.556,22.222,N
644,-0.180,0.780,-0.155,138.889,88.889,313.889,647.222,16.667,N
645,-0.195,0.845,-0.160,127.778,50.000,305.556,638.889,8.333,N
646,-0.165,0.730,-0.145,141.667,47.222,313.889,655.556,16.667,N
647,-0.185,0.755,-0.140,136.111,86.111,333.333,652.778,2.778,N
648,-0.175,0.730,-0.145,133.333,50.000,313.889,647.222,5.556,N
649,-0.205,0.745,-0.155,130.556,86.111,302.778,647.222,0.000,N
650,-0.205,0.785,-0.180,136.111,91.667,313.889,636.111,11.111,N
651,-0.225,0.770,-0.200,138.889,50.000,325.000,650.000,13.889,N
652,-0.230,0.715,-0.195,136.111,47.222,300.000,661.111,11.111,N
653,-0.225,0.675,-0.185,141.667,50.000,308.333,647.222,13.889,N
654,-0.235,0.730,-0.175,136.111,86.111,308.333,633.333,13.889,N
655,-0.215,0.805,-0.190,130.556,88.889,313.889,638.889,5.556,N
656,-0.235,0.745,-0.230,130.556,47.222,300.000,641.667,2.778,N
657,-0.245,0.670,-0.225,136.111,83.333,322.222,641.667,0.000,N
658,-0.245,0.640,-0.215,138.889,88.889,341.667,650.000,8.333,N
659,-0.225,0.575,-0.210,127.778,105.556,325.000,644.444,5.556,N
660,-0.245,0.585,-0.225,133.333,111.111,316.667,644.444,0.000,N
661,-0.245,0.410,-0.220,136.111,108.333,319.444,630.556,13.889,N
662,-0.230,0.330,-0.195,141.667,102.778,350.000,652.778,22.222,N
663,-0.220,0.430,-0.200,147.222,88.889,316.667,661.111,8.333,N
664,-0.240,0.415,-0.195,150.000,102.778,322.222,644.444,16.667,N
665,-0.225,0.035,-0.240,127.778,102.778,350.000,636.111,8.333,N
666,-0.270,-0.090,-0.235,136.111,100.000,352.778,644.444,8.333,N
667,-0.250,0.310,-0.225,136.111,102.778,327.778,658.333,13.889,N
668,-0.215,0.650,-0.220,147.222,50.000,313.889,650.000,8.333,N
669,-0.245,0.620,-0.220,136.111,47.222,319.444,655.556,5.556,N
670,-0.255,0.750,-0.240,125.000,47.222,305.556,650.000,5.556,N
671,-0.275,0.835,-0.240,136.111,50.000,305.556,647.222,2.778,N
672,-0.235,0.715,-0.240,133.333,47.222,61.111,630.556,16.667,N
673,-0.260,0.645,-0.240,144.444,50.000,338.889,658.333,27.778,N
674,-0.245,0.630,-0.210,136.111,50.000,316.667,658.333,0.000,N
675,-0.240,0.810,-0.205,141.667,50.000,305.556,644.444,13.889,N
676,-0.275,0.790,-0.230,125.000,44.444,311.111,625.000,19.444,N
677,-0.280,0.645,-0.250,125.000,44.444,305.556,638.889,13.889,N
678,-0.270,0.675,-0.225,130.556,44.444,294.444,644.444,5.556,N
679,-0.250,0.675,-0.230,138.889,47.222,322.222,638.889,5.556,N
680,-0.275,0.735,-0.230,141.667,50.000,313.889,644.444,5.556,N
681,-0.250,0.800,-0.225,136.111,47.222,300.000,652.778,8.333,N
682,-0.245,0.710,-0.225,133.333,44.444,302.778,627.778,25.000,N
683,-0.275,0.680,-0.235,130.556,47.222,302.778,630.556,2.778,N
684,-0.260,0.635,-0.220,138.889,47.222,325.000,644.444,13.889,N
685,-0.245,0.730,-0.225,141.667,50.000,297.222,666.667,22.222,N
686,-0.250,0.815,-0.255,133.333,47.222,330.556,633.333,33.333,N
687,-0.275,0.705,-0.250,133.333,44.444,316.667,641.667,8.333,N
688,-0.290,0.600,-0.280,138.889,47.222,308.333,638.889,2.778,N
689,-0.295,0.540,-0.260,138.889,52.778,308.333,641.667,2.778,N
690,-0.300,0.660,-0.270,133.333,52.778,322.222,636.111,5.556,N
691,-0.265,0.735,-0.260,138.889,50.000,322.222,652.778,16.667,N
692,-0.260,0.690,-0.265,138.889,44.444,58.333,663.889,11.111,N
693,-0.270,0.605,-0.265,133.333,44.444,55.556,625.000,38.889,N
694,-0.265,0.590,-0.255,130.556,41.667,319.444,636.111,11.111,N
695,-0.270,0.735,-0.245,138.889,47.222,325.000,636.111,0.000,N
696,-0.305,0.725,-0.265,136.111,50.000,327.778,658.333,22.222,N
697,-0.265,0.650,-0.250,133.333,47.222,61.111,638.889,19.444,N
698,-0.275,0.645,-0.270,133.333,47.222,305.556,647.222,8.333,N
699,-0.265,0.600,-0.265,136.111,47.222,308.333,627.778,19.444,N
700,-0.295,0.670,-0.275,133.333,47.222,322.222,633.333,5.556,N
701,-0.290,0.770,-0.245,133.333,44.444,322.222,630.556,2.778,N
702,-0.290,0.660,-0.235,130.556,47.222,311.111,650.000,19.444,N
703,-0.260,0.635,-0.250,141.667,50.000,316.667,655.556,5.556,N
704,-0.255,0.655,-0.250,141.667,47.222,313.889,641.667,13.889,N
705,-0.270,0.690,-0.230,127.778,44.444,305.556,641.667,0.000,N
706,-0.260,0.750,-0.235,138.889,50.000,327.778,641.667,0.000,N
707,-0.270,0.705,-0.265,144.444,47.222,336.111,658.333,16.667,N
708,-0.270,0.610,-0.285,133.333,44.444,61.111,652.778,5.556,N
709,-0.315,0.605,-0.280,133.333,47.222,302.778,652.778,0.000,N
710,-0.335,0.620,-0.295,138.889,55.556,305.556,636.111,16.667,N
711,-0.315,0.690,-0.315,138.889,47.222,322.222,641.667,5.556,N
712,-0.335,0.670,-0.295,133.333,44.444,311.111,641.667,0.000,N
713,-0.305,0.625,-0.265,138.889,47.222,302.778,650.000,8.333,N
714,-0.280,0.605,-0.265,144.444,50.000,313.889,655.556,5.556,N
715,-0.295,0.595,-0.230,127.778,52.778,316.667,638.889,16.667,N
716,-0.255,0.765,-0.255,133.333,47.222,297.222,644.444,5.556,N
717,-0.300,0.690,-0.285,127.778,47.222,308.333,627.778,16.667,N
718,-0.300,0.610,-0.270,141.667,50.000,322.222,652.778,25.000,N
719,-0.265,0.670,-0.275,133.333,44.444,294.444,655.556,2.778,N
720,-0.290,0.630,-0.265,141.667,50.000,313.889,647.222,8.333,N
721,-0.320,0.745,-0.285,138.889,47.222,313.889,636.111,11.111,N
722,-0.350,0.770,-0.320,133.333,47.222,308.333,641.667,5.556,N
723,-0.330,0.650,-0.315,138.889,41.667,55.556,652.778,11.111,N
724,-0.350,0.645,-0.290,141.667,50.000,308.333,647.222,5.556,N
725,-0.310,0.645,-0.290,138.889,47.222,316.667,658.333,11.111,N
726,-0.335,0.800,-0.305,127.778,44.444,300.000,647.222,11.111,N
727,-0.310,0.780,-0.310,136.111,47.222,325.000,644.444,2.778,N
728,-0.315,0.690,-0.280,133.333,47.222,322.222,633.333,11.111,N
729,-0.315,0.675,-0.270,136.111,50.000,327.778,652.778,19.444,N
730,-0.305,0.670,-0.265,136.111,47.222,313.889,661.111,8.333,N
731,-0.330,0.825,-0.305,138.889,50.000,300.000,647.222,13.889,N
732,-0.330,0.810,-0.310,127.778,44.444,300.000,625.000,22.222,N
733,-0.305,0.750,-0.285,127.778,47.222,305.556,636.111,11.111,N
734,-0.295,0.735,-0.290,133.333,47.222,291.667,641.667,5.556,N
735,-0.290,0.720,-0.280,136.111,47.222,322.222,638.889,2.778,N
736,-0.320,0.760,-0.290,138.889,50.000,311.111,650.000,11.111,N
737,-0.320,0.915,-0.310,133.333,44.444,319.444,652.778,2.778,N
738,-0.305,0.805,-0.285,136.111,44.444,316.667,633.333,19.444,N
739,-0.315,0.715,-0.295,138.889,47.222,313.889,638.889,5.556,N
740,-0.335,0.690,-0.285,138.889,47.222,333.333,652.778,13.889,N
741,-0.345,0.835,-0.300,136.111,50.000,327.778,675.000,22.222,N
742,-0.335,0.825,-0.310,138.889,50.000,316.667,644.444,30.556,N
743,-0.330,0.755,-0.300,133.333,50.000,302.778,650.000,5.556,N
744,-0.300,0.670,-0.285,136.111,47.222,319.444,641.667,8.333,N
745,-0.300,0.650,-0.270,141.667,50.000,313.889,647.222,5.556,N
746,-0.320,0.920,-0.235,136.111,47.222,327.778,647.222,0.000,N
747,-0.280,0.880,-0.245,136.111,47.222,311.111,652.778,5.556,N
748,-0.270,0.775,-0.255,138.889,44.444,311.111,661.111,8.333,N
749,-0.275,0.800,-0.250,138.889,47.222,319.444,633.333,27.778,N
750,-0.305,0.835,-0.245,130.556,44.444,311.111,638.889,5.556,N
751,-0.290,0.975,-0.240,133.333,47.222,302.778,644.444,5.556,N
752,-0.290,0.925,-0.250,136.111,47.222,313.889,658.333,13.889,N
753,-0.280,0.880,-0.240,136.111,47.222,330.556,641.667,16.667,N
754,-0.265,0.825,-0.250,133.333,44.444,58.333,650.000,8.333,N
755,-0.285,0.765,-0.260,138.889,47.222,311.111,638.889,11.111,N
756,-0.320,0.950,-0.285,141.667,50.000,308.333,644.444,5.556,N
757,-0.310,0.885,-0.280,133.333,47.222,333.333,636.111,8.333,N
758,-0.320,0.800,-0.275,136.111,47.222,313.889,658.333,22.222,N
759,-0.290,0.760,-0.255,138.889,47.222,311.111,663.889,5.556,N
760,-0.290,0.915,-0.250,136.111,50.000,327.778,647.222,16.667,N
761,-0.255,1.055,-0.245,136.111,47.222,316.667,647.222,0.000,N
762,-0.250,0.880,-0.230,141.667,50.000,316.667,638.889,8.333,N
763,-0.265,0.830,-0.265,141.667,47.222,322.222,658.333,19.444,N
764,-0.320,0.735,-0.315,133.333,47.222,336.111,652.778,5.556,N
765,-0.340,0.690,-0.325,133.333,50.000,300.000,647.222,5.556,N
766,-0.355,0.730,-0.330,138.889,77.778,316.667,633.333,13.889,N
767,-0.320,0.690,-0.280,130.556,50.000,327.778,625.000,8.333,N
768,-0.300,0.705,-0.240,125.000,47.222,305.556,633.333,8.333,N
769,-0.250,0.665,-0.230,136.111,47.222,325.000,641.667,8.333,N
770,-0.235,0.730,-0.240,144.444,88.889,313.889,647.222,5.556,N
771,-0.295,0.755,-0.255,133.333,44.444,308.333,633.333,13.889,N
772,-0.275,0.745,-0.225,138.889,52.778,311.111,644.444,11.111,N
773,-0.255,0.710,-0.220,138.889,47.222,316.667,622.222,22.222,N
774,-0.260,0.750,-0.210,138.889,47.222,327.778,650.000,27.778,N
775,-0.235,0.895,-0.185,138.889,50.000,302.778,658.333,8.333,N
776,-0.235,1.040,-0.220,133.333,47.222,305.556,638.889,19.444,N
777,-0.230,0.980,-0.205,130.556,47.222,338.889,627.778,11.111,N
778,-0.235,0.885,-0.205,133.333,47.222,308.333,636.111,8.333,N
779,-0.215,0.860,-0.215,130.556,44.444,322.222,647.222,11.111,N
780,-0.235,0.955,-0.225,138.889,50.000,319.444,641.667,5.556,N
781,-0.270,0.975,-0.230,130.556,47.222,327.778,644.444,2.778,N
782,-0.245,0.920,-0.225,133.333,47.222,325.000,647.222,2.778,N
783,-0.240,0.845,-0.220,138.889,47.222,61.111,638.889,8.333,N
784,-0.235,0.845,-0.230,130.556,44.444,330.556,625.000,13.889,N
785,-0.255,0.870,-0.235,138.889,50.000,316.667,650.000,25.000,N
786,-0.265,1.010,-0.260,144.444,44.444,313.889,661.111,11.111,N
787,-0.280,0.935,-0.230,138.889,44.444,322.222,630.556,30.556,N
788,-0.250,0.890,-0.255,130.556,44.444,58.333,630.556,0.000,N
789,-0.300,0.850,-0.275,136.111,47.222,313.889,644.444,13.889,N
790,-0.310,0.790,-0.275,138.889,50.000,305.556,644.444,0.000,N
791,-0.305,0.950,-0.280,136.111,47.222,322.222,647.222,2.778,N
792,-0.355,0.970,-0.330,130.556,50.000,336.111,652.778,5.556,N
793,-0.355,0.890,-0.290,138.889,47.222,302.778,666.667,13.889,N
794,-0.360,0.800,-0.355,158.333,50.000,333.333,638.889,27.778,N
795,-0.370,0.790,-0.330,127.778,44.444,319.444,641.667,2.778,N
796,-0.410,0.735,-0.345,138.889,50.000,319.444,647.222,5.556,N
797,-0.380,0.665,-0.355,144.444,52.778,322.222,666.667,19.444,N
798,-0.385,0.735,-0.325,133.333,44.444,336.111,644.444,22.222,N
799,-0.345,0.820,-0.300,133.333,44.444,322.222,650.000,5.556,N
800,-0.335,0.790,-0.290,133.333,44.444,316.667,630.556,19.444,N
801,-0.320,0.775,-0.260,136.111,47.222,313.889,636.111,5.556,N
802,-0.305,0.790,-0.230,133.333,50.000,327.778,630.556,5.556,N
803,-0.305,1.005,-0.210,133.333,47.222,311.111,650.000,19.444,N
804,-0.265,0.975,-0.200,136.111,50.000,302.778,641.667,8.333,N
805,-0.190,0.920,-0.155,133.333,47.222,313.889,619.444,22.222,N
806,-0.195,0.955,-0.160,133.333,44.444,286.111,625.000,5.556,N
807,-0.220,0.915,-0.165,133.333,50.000,311.111,613.889,11.111,N
808,-0.230,0.915,-0.195,133.333,86.111,313.889,638.889,25.000,N
809,-0.235,0.950,-0.210,130.556,86.111,305.556,636.111,2.778,N
810,-0.275,1.005,-0.290,138.889,50.000,302.778,636.111,0.000,N
811,-0.280,0.855,-0.225,130.556,50.000,322.222,605.556,30.556,N
812,-0.235,0.865,-0.180,125.000,47.222,311.111,616.667,11.111,N
813,-0.225,0.875,-0.175,138.889,47.222,316.667,627.778,11.111,N
814,-0.255,0.950,-0.210,136.111,47.222,322.222,627.778,0.000,N
815,-0.230,0.895,-0.205,136.111,44.444,319.444,633.333,5.556,N
816,-0.245,0.825,-0.245,136.111,41.667,55.556,636.111,2.778,N
817,-0.325,0.890,-0.290,130.556,47.222,302.778,616.667,19.444,N
818,-0.330,0.920,-0.295,130.556,47.222,300.000,611.111,5.556,N
819,-0.330,0.755,-0.260,138.889,47.222,327.778,627.778,16.667,N
820,-0.265,0.810,-0.220,136.111,47.222,319.444,644.444,16.667,N
821,-0.255,0.765,-0.240,130.556,47.222,305.556,619.444,25.000,N
822,-0.290,0.940,-0.250,122.222,47.222,308.333,625.000,5.556,N
823,-0.285,0.925,-0.255,133.333,44.444,297.222,622.222,2.778,N
824,-0.290,0.770,-0.245,136.111,50.000,308.333,619.444,2.778,N
825,-0.315,0.715,-0.270,138.889,47.222,311.111,627.778,8.333,N
826,-0.305,0.815,-0.305,130.556,50.000,333.333,641.667,13.889,N
827,-0.350,0.850,-0.305,138.889,44.444,313.889,652.778,11.111,N
828,-0.320,0.810,-0.265,138.889,47.222,325.000,627.778,25.000,N
829,-0.315,0.740,-0.260,136.111,44.444,316.667,638.889,11.111,N
830,-0.310,0.755,-0.245,136.111,47.222,316.667,641.667,2.778,N
831,-0.290,0.860,-0.260,144.444,50.000,319.444,663.889,22.222,N
832,-0.325,0.870,-0.285,136.111,47.222,330.556,647.222,16.667,N
833,-0.300,0.760,-0.270,136.111,47.222,58.333,650.000,2.778,N
834,-0.300,0.670,-0.250,138.889,47.222,311.111,638.889,11.111,N
835,-0.280,0.735,-0.270,130.556,50.000,333.333,644.444,5.556,N
836,-0.295,0.705,-0.245,130.556,47.222,322.222,638.889,5.556,N
837,-0.280,0.665,-0.255,138.889,47.222,313.889,655.556,16.667,N
838,-0.240,0.810,-0.240,133.333,47.222,322.222,650.000,5.556,N
839,-0.285,0.845,-0.260,138.889,44.444,322.222,636.111,13.889,N
840,-0.285,0.685,-0.250,136.111,47.222,311.111,641.667,5.556,N
841,-0.275,0.655,-0.225,141.667,47.222,311.111,638.889,2.778,N
842,-0.240,0.715,-0.220,141.667,50.000,325.000,658.333,19.444,N
843,-0.265,0.850,-0.215,136.111,50.000,302.778,652.778,5.556,N
844,-0.255,0.880,-0.225,138.889,44.444,313.889,650.000,2.778,N
845,-0.215,0.730,-0.185,141.667,50.000,313.889,636.111,13.889,N
846,-0.205,0.685,-0.195,133.333,47.222,336.111,641.667,5.556,N
847,-0.230,0.700,-0.230,136.111,86.111,322.222,655.556,13.889,N
848,-0.290,0.770,-0.280,138.889,44.444,319.444,666.667,11.111,N
849,-0.290,0.660,-0.270,141.667,47.222,319.444,666.667,0.000,N
850,-0.315,0.600,-0.300,136.111,50.000,311.111,647.222,19.444,N
851,-0.315,0.610,-0.305,138.889,47.222,313.889,658.333,11.111,N
852,-0.330,0.730,-0.295,133.333,50.000,327.778,655.556,2.778,N
853,-0.320,0.705,-0.265,138.889,50.000,325.000,669.444,13.889,N
854,-0.280,0.670,-0.265,133.333,47.222,61.111,663.889,5.556,N
855,-0.275,0.665,-0.265,136.111,44.444,58.333,669.444,5.556,N
856,-0.265,0.730,-0.230,136.111,86.111,313.889,644.444,25.000,N
857,-0.290,0.830,-0.245,138.889,50.000,330.556,647.222,2.778,N
858,-0.010,-1.730,0.470,30.556,0.000,216.667,463.889,183.333,V
859,-0.240,0.740,-0.170,136.111,47.222,327.778,841.667,377.778,N
860,-0.240,0.700,-0.215,136.111,47.222,58.333,669.444,172.222,N
861,-0.270,0.720,-0.240,136.111,47.222,327.778,636.111,33.333,N
862,-0.300,0.785,-0.270,130.556,50.000,313.889,647.222,11.111,N
863,-0.295,0.630,-0.255,141.667,47.222,308.333,636.111,11.111,N
864,-0.260,0.635,-0.230,138.889,50.000,325.000,655.556,19.444,N
865,-0.260,0.640,-0.245,136.111,50.000,63.889,652.778,2.778,N
866,-0.280,0.710,-0.225,136.111,47.222,300.000,663.889,11.111,N
867,-0.285,0.790,-0.225,138.889,47.222,305.556,638.889,25.000,N
868,-0.230,0.720,-0.215,138.889,47.222,319.444,644.444,5.556,N
869,-0.245,0.645,-0.195,133.333,47.222,311.111,647.222,2.778,N
870,-0.250,0.630,-0.205,138.889,47.222,308.333,669.444,22.222,N
871,-0.255,0.650,-0.210,141.667,50.000,305.556,669.444,0.000,N
872,-0.230,0.775,-0.175,141.667,86.111,311.111,658.333,11.111,N
873,-0.205,0.765,-0.180,136.111,47.222,297.222,650.000,8.333,N
874,-0.195,0.655,-0.190,138.889,50.000,316.667,647.222,2.778,N
875,-0.225,0.670,-0.195,138.889,47.222,325.000,663.889,16.667,N
876,-0.210,0.675,-0.210,138.889,47.222,322.222,666.667,2.778,N
877,-0.230,0.815,-0.210,133.333,47.222,305.556,655.556,11.111,N
878,-0.220,0.755,-0.195,138.889,47.222,316.667,644.444,11.111,N
879,-0.210,0.660,-0.185,138.889,47.222,319.444,638.889,5.556,N
880,-0.210,0.615,-0.190,130.556,44.444,297.222,650.000,11.111,N
881,-0.225,0.580,-0.180,138.889,47.222,313.889,652.778,2.778,N
882,-0.225,0.715,-0.210,136.111,83.333,327.778,658.333,5.556,N
883,-0.265,0.760,-0.225,138.889,47.222,316.667,641.667,16.667,N
884,-0.225,0.645,-0.190,133.333,50.000,308.333,644.444,2.778,N
885,-0.220,0.725,-0.170,133.333,47.222,330.556,641.667,2.778,N
886,-0.195,0.715,-0.150,136.111,47.222,333.333,658.333,16.667,N
887,-0.180,0.815,-0.135,130.556,47.222,311.111,661.111,2.778,N
888,-0.160,0.860,-0.155,141.667,50.000,316.667,661.111,0.000,N
889,-0.175,0.770,-0.140,141.667,47.222,311.111,636.111,25.000,N
890,-0.180,0.725,-0.150,133.333,47.222,330.556,644.444,8.333,N
891,-0.190,0.720,-0.155,133.333,47.222,308.333,658.333,13.889,N
892,-0.170,0.760,-0.165,138.889,44.444,313.889,661.111,2.778,N
893,-0.170,0.940,-0.150,144.444,47.222,313.889,669.444,8.333,N
894,-0.190,0.865,-0.150,133.333,47.222,325.000,650.000,19.444,N
895,-0.170,0.835,-0.110,138.889,47.222,308.333,655.556,5.556,N
896,-0.135,0.810,-0.130,136.111,47.222,325.000,650.000,5.556,N
897,-0.155,0.790,-0.155,138.889,47.222,319.444,672.222,22.222,N
898,-0.185,0.810,-0.155,138.889,50.000,316.667,675.000,2.778,N
899,-0.200,0.995,-0.190,136.111,47.222,286.111,658.333,16.667,N
900,-0.215,0.910,-0.175,138.889,47.222,322.222,636.111,22.222,N
901,-0.210,0.800,-0.185,136.111,50.000,316.667,644.444,8.333,N
902,-0.210,0.780,-0.170,133.333,47.222,319.444,655.556,11.111,N
903,-0.190,0.835,-0.150,136.111,44.444,316.667,666.667,11.111,N
904,-0.175,1.010,-0.160,136.111,50.000,322.222,663.889,2.778,N
905,-0.210,0.965,-0.170,133.333,44.444,316.667,644.444,19.444,N
906,-0.195,0.855,-0.170,136.111,44.444,55.556,655.556,11.111,N
907,-0.200,0.770,-0.165,136.111,47.222,308.333,647.222,8.333,N
908,-0.195,0.805,-0.195,144.444,50.000,347.222,669.444,22.222,N
909,-0.230,0.895,-0.200,133.333,47.222,300.000,672.222,2.778,N
910,-0.245,0.950,-0.190,141.667,47.222,308.333,661.111,11.111,N
911,-0.200,0.840,-0.165,130.556,50.000,311.111,636.111,25.000,N
912,-0.175,0.820,-0.150,136.111,47.222,327.778,647.222,11.111,N
913,-0.190,0.880,-0.180,125.000,41.667,297.222,661.111,13.889,N
914,-0.205,0.975,-0.185,141.667,50.000,308.333,661.111,0.000,N
915,-0.235,1.040,-0.205,147.222,47.222,311.111,663.889,2.778,N
916,-0.200,0.930,-0.175,130.556,47.222,330.556,641.667,22.222,N
917,-0.205,0.865,-0.160,136.111,47.222,308.333,655.556,13.889,N
918,-0.200,0.805,-0.175,136.111,50.000,311.111,636.111,19.444,N
919,-0.210,0.830,-0.215,141.667,86.111,319.444,661.111,25.000,N
920,-0.230,0.865,-0.235,138.889,47.222,316.667,663.889,2.778,N
921,-0.275,0.725,-0.225,136.111,47.222,300.000,655.556,8.333,N
922,-0.245,0.690,-0.225,133.333,50.000,327.778,630.556,25.000,N
923,-0.240,0.695,-0.205,138.889,47.222,319.444,644.444,13.889,N
924,-0.250,0.890,-0.200,130.556,50.000,305.556,650.000,5.556,N
925,-0.245,0.945,-0.200,138.889,50.000,322.222,652.778,2.778,N
926,-0.220,0.845,-0.175,138.889,50.000,330.556,655.556,2.778,N
927,-0.200,0.765,-0.145,133.333,47.222,311.111,655.556,0.000,N
928,-0.165,0.845,-0.175,136.111,47.222,311.111,652.778,2.778,N
929,-0.200,1.010,-0.155,138.889,47.222,313.889,641.667,11.111,N
930,-0.185,1.040,-0.145,136.111,47.222,333.333,650.000,8.333,N
931,-0.170,1.015,-0.135,138.889,47.222,61.111,675.000,25.000,N
932,-0.150,0.920,-0.150,141.667,47.222,316.667,644.444,30.556,N
933,-0.195,0.855,-0.160,127.778,47.222,311.111,641.667,2.778,N
934,-0.220,0.950,-0.185,130.556,47.222,300.000,638.889,2.778,N
935,-0.230,1.020,-0.215,136.111,44.444,308.333,655.556,16.667,N
936,-0.260,0.890,-0.225,141.667,50.000,305.556,641.667,13.889,N
937,-0.235,0.805,-0.210,138.889,44.444,316.667,655.556,13.889,N
938,-0.235,0.810,-0.210,130.556,44.444,319.444,655.556,0.000,N
939,-0.260,0.785,-0.220,138.889,50.000,305.556,661.111,5.556,N
940,-0.260,0.945,-0.245,138.889,44.444,316.667,641.667,19.444,N
941,-0.295,0.940,-0.250,138.889,50.000,338.889,655.556,13.889,N
942,-0.255,0.890,-0.215,141.667,47.222,305.556,666.667,11.111,N
943,-0.230,0.845,-0.210,138.889,47.222,316.667,650.000,16.667,N
944,-0.245,0.830,-0.220,136.111,44.444,302.778,650.000,0.000,N
945,-0.250,0.855,-0.215,136.111,50.000,316.667,658.333,8.333,N
946,-0.265,1.020,-0.225,144.444,47.222,305.556,672.222,13.889,N
947,-0.275,0.985,-0.235,138.889,50.000,330.556,650.000,22.222,N
948,-0.265,0.905,-0.225,136.111,47.222,330.556,661.111,11.111,N
949,-0.265,0.795,-0.225,130.556,44.444,305.556,663.889,2.778,N
950,-0.265,0.825,-0.215,141.667,47.222,308.333,661.111,2.778,N
951,-0.235,0.960,-0.235,136.111,47.222,319.444,647.222,13.889,N
952,-0.280,1.070,-0.235,136.111,47.222,333.333,658.333,11.111,N
953,-0.260,0.990,-0.195,138.889,50.000,305.556,672.222,13.889,N
954,-0.220,0.910,-0.195,141.667,47.222,316.667,650.000,22.222,N
955,-0.240,0.830,-0.195,125.000,47.222,308.333,638.889,11.111,N
956,-0.225,0.935,-0.220,127.778,44.444,322.222,644.444,5.556,N
957,-0.265,1.055,-0.225,138.889,47.222,305.556,658.333,13.889,N
958,-0.280,0.920,-0.225,133.333,50.000,330.556,641.667,16.667,N
959,-0.245,0.820,-0.245,138.889,47.222,313.889,652.778,11.111,N
960,-0.250,0.790,-0.235,130.556,44.444,316.667,655.556,2.778,N
961,-0.265,0.860,-0.200,133.333,50.000,313.889,647.222,8.333,N
962,-0.250,1.060,-0.215,130.556,44.444,300.000,641.667,5.556,N
963,-0.245,0.980,-0.210,138.889,50.000,325.000,647.222,5.556,N
964,-0.220,0.915,-0.190,144.444,47.222,316.667,677.778,30.556,N
965,-0.230,0.960,-0.190,138.889,47.222,330.556,647.222,30.556,N
966,-0.210,0.925,-0.195,130.556,44.444,58.333,641.667,5.556,N
967,-0.205,0.840,-0.195,130.556,47.222,325.000,627.778,13.889,N
968,-0.220,0.880,-0.200,138.889,47.222,313.889,650.000,22.222,N
969,-0.220,0.970,-0.185,141.667,83.333,319.444,630.556,19.444,N
970,-0.235,0.960,-0.225,138.889,47.222,325.000,652.778,22.222,N
971,-0.230,0.925,-0.185,130.556,44.444,291.667,644.444,8.333,N
972,-0.215,0.860,-0.210,136.111,47.222,61.111,633.333,11.111,N
973,-0.225,0.840,-0.185,130.556,44.444,319.444,625.000,8.333,N
974,-0.215,0.890,-0.180,138.889,44.444,330.556,641.667,16.667,N
975,-0.240,0.855,-0.275,133.333,50.000,63.889,655.556,13.889,N
976,-0.410,0.760,-0.410,138.889,44.444,55.556,644.444,11.111,N
977,-0.500,0.790,-0.460,136.111,44.444,325.000,633.333,11.111,N
978,-0.500,0.785,-0.485,133.333,44.444,55.556,630.556,2.778,N
979,-0.575,0.735,-0.550,136.111,50.000,322.222,636.111,5.556,N
980,-0.560,0.775,-0.485,136.111,47.222,330.556,633.333,2.778,N
981,-0.530,0.825,-0.490,136.111,47.222,325.000,655.556,22.222,N
982,-0.495,0.815,-0.395,138.889,50.000,311.111,655.556,0.000,N
983,-0.420,0.925,-0.265,133.333,50.000,311.111,636.111,19.444,N
984,0.030,-2.005,0.695,33.333,2.778,236.111,480.556,155.556,V
985,-0.105,1.320,0.100,133.333,47.222,336.111,794.444,313.889,N
986,0.040,1.425,0.095,144.444,50.000,313.889,663.889,130.556,N
987,0.100,1.410,0.180,125.000,47.222,333.333,638.889,25.000,N
988,0.140,1.295,0.170,136.111,44.444,58.333,647.222,8.333,N
989,0.115,1.290,0.115,136.111,44.444,58.333,638.889,8.333,N
990,0.045,1.340,0.050,138.889,47.222,311.111,633.333,5.556,N
991,-0.020,1.300,0.010,133.333,47.222,319.444,633.333,0.000,N
992,-0.035,1.115,-0.020,130.556,47.222,308.333,647.222,13.889,N
993,-0.080,1.080,-0.085,144.444,50.000,308.333,666.667,19.444,N
994,-0.150,1.105,-0.105,133.333,47.222,308.333,636.111,30.556,N
995,-0.160,1.055,-0.125,136.111,44.444,313.889,647.222,11.111,N
996,-0.155,0.945,-0.120,138.889,50.000,316.667,641.667,5.556,N
997,-0.195,0.855,-0.175,141.667,50.000,313.889,669.444,27.778,N
998,-0.235,0.935,-0.185,133.333,50.000,319.444,655.556,13.889,N
999,-0.245,0.900,-0.195,133.333,47.222,297.222,658.333,2.778,N
1000,-0.220,0.870,-0.190,141.667,47.222,319.444,647.222,11.111,N
1001,-0.265,0.825,-0.240,138.889,47.222,330.556,652.778,5.556,N
1002,-0.300,0.840,-0.220,136.111,47.222,361.111,650.000,2.778,N
1003,-0.220,-1.715,0.435,38.889,0.000,219.444,372.222,277.778,V
1004,-0.345,0.770,-0.220,136.111,50.000,327.778,958.333,586.111,N
1005,-0.310,0.745,-0.300,133.333,44.444,327.778,658.333,300.000,N
1006,-0.340,0.705,-0.260,133.333,47.222,313.889,650.000,8.333,N
1007,-0.330,0.835,-0.260,138.889,50.000,327.778,652.778,2.778,N
1008,-0.315,0.800,-0.255,136.111,47.222,327.778,658.333,5.556,N
1009,-0.265,0.785,-0.220,133.333,44.444,319.444,650.000,8.333,N
1010,-0.255,0.770,-0.235,127.778,44.444,302.778,647.222,2.778,N
1011,-0.295,0.780,-0.270,136.111,44.444,316.667,650.000,2.778,N
1012,-0.320,0.805,-0.240,144.444,47.222,311.111,650.000,0.000,N
1013,-0.275,0.870,-0.215,133.333,47.222,316.667,655.556,5.556,N
1014,-0.235,0.835,-0.150,136.111,47.222,319.444,666.667,11.111,N
1015,-0.210,0.810,-0.165,138.889,50.000,313.889,675.000,8.333,N
1016,-0.220,0.800,-0.205,141.667,47.222,313.889,663.889,11.111,N
1017,-0.285,0.790,-0.245,141.667,50.000,313.889,672.222,8.333,N
1018,-0.330,0.770,-0.265,144.444,47.222,330.556,675.000,2.778,N
1019,-0.275,0.795,-0.215,150.000,47.222,327.778,697.222,22.222,N
1020,-0.270,0.825,-0.195,141.667,50.000,336.111,669.444,27.778,N
1021,-0.225,0.790,-0.180,133.333,47.222,319.444,675.000,5.556,N
1022,-0.195,0.860,-0.155,130.556,44.444,325.000,663.889,11.111,N
1023,-0.200,0.945,-0.135,141.667,47.222,311.111,677.778,13.889,N
1024,-0.175,0.900,-0.090,138.889,50.000,336.111,655.556,22.222,N
1025,-0.105,0.880,-0.085,138.889,47.222,325.000,675.000,19.444,N
1026,-0.120,0.900,-0.105,136.111,47.222,316.667,672.222,2.778,N
1027,-0.145,0.865,-0.135,133.333,47.222,319.444,655.556,16.667,N
1028,-0.190,0.905,-0.155,136.111,47.222,316.667,652.778,2.778,N
1029,-0.215,0.880,-0.200,138.889,47.222,316.667,658.333,5.556,N
1030,-0.250,0.740,-0.250,144.444,47.222,311.111,677.778,19.444,N
1031,-0.295,0.730,-0.340,144.444,50.000,61.111,661.111,16.667,N
1032,-0.410,0.625,-0.420,130.556,44.444,58.333,658.333,2.778,N
1033,-0.470,0.555,-0.465,130.556,44.444,319.444,661.111,2.778,N
1034,-0.500,0.625,-0.490,138.889,44.444,294.444,672.222,11.111,N
1035,-0.550,0.650,-0.475,144.444,50.000,327.778,661.111,11.111,N
1036,-0.495,0.645,-0.430,138.889,47.222,325.000,672.222,11.111,N
1037,-0.440,0.635,-0.410,138.889,47.222,325.000,675.000,2.778,N
1038,-0.445,0.620,-0.405,136.111,47.222,325.000,663.889,11.111,N
1039,-0.445,0.625,-0.360,133.333,47.222,330.556,652.778,11.111,N
1040,-0.410,0.810,-0.365,138.889,50.000,341.667,663.889,11.111,N
1041,-0.385,0.825,-0.315,144.444,47.222,316.667,686.111,22.222,N
1042,-0.350,0.780,-0.270,138.889,50.000,330.556,658.333,27.778,N
1043,-0.310,0.790,-0.275,127.778,47.222,311.111,655.556,2.778,N
1044,-0.290,0.790,-0.235,133.333,44.444,313.889,652.778,2.778,N
1045,-0.280,0.935,-0.245,138.889,47.222,302.778,669.444,16.667,N
1046,-0.285,0.875,-0.180,136.111,47.222,330.556,650.000,19.444,N
1047,-0.235,0.895,-0.170,144.444,47.222,330.556,669.444,19.444,N
1048,-0.230,0.865,-0.220,130.556,47.222,305.556,661.111,8.333,N
1049,-0.280,0.800,-0.245,141.667,47.222,302.778,663.889,2.778,N
1050,-0.295,0.960,-0.255,138.889,47.222,327.778,650.000,13.889,N
1051,-0.295,0.965,-0.235,141.667,47.222,327.778,672.222,22.222,N
1052,-0.265,0.920,-0.210,147.222,47.222,311.111,680.556,8.333,N
1053,-0.250,0.850,-0.230,144.444,50.000,313.889,663.889,16.667,N
1054,-0.255,0.895,-0.225,136.111,47.222,319.444,652.778,11.111,N
1055,-0.300,1.000,-0.245,136.111,50.000,330.556,663.889,11.111,N
1056,-0.265,0.985,-0.205,136.111,41.667,322.222,666.667,2.778,N
1057,-0.245,1.005,-0.205,141.667,47.222,327.778,669.444,2.778,N
1058,-0.245,0.965,-0.230,141.667,50.000,322.222,669.444,0.000,N
1059,-0.255,0.980,-0.245,138.889,44.444,325.000,666.667,2.778,N
1060,-0.305,1.075,-0.245,136.111,44.444,319.444,666.667,0.000,N
1061,-0.295,1.035,-0.210,141.667,47.222,336.111,652.778,13.889,N
1062,-0.245,0.985,-0.185,141.667,47.222,330.556,669.444,16.667,N
1063,-0.220,1.020,-0.185,133.333,44.444,313.889,677.778,8.333,N
1064,-0.240,1.040,-0.215,133.333,47.222,297.222,663.889,13.889,N
1065,-0.285,1.090,-0.230,141.667,50.000,308.333,655.556,8.333,N
1066,-0.255,1.065,-0.200,138.889,47.222,322.222,655.556,0.000,N
1067,-0.220,1.045,-0.185,136.111,47.222,316.667,666.667,11.111,N
1068,-0.215,1.040,-0.180,141.667,47.222,308.333,675.000,8.333,N
1069,-0.235,1.000,-0.220,150.000,52.778,333.333,677.778,2.778,N
1070,-0.285,0.960,-0.255,144.444,47.222,311.111,661.111,16.667,N
1071,-0.320,0.880,-0.245,136.111,50.000,311.111,663.889,2.778,N
1072,-0.280,0.855,-0.230,141.667,47.222,319.444,658.333,5.556,N
1073,-0.275,0.825,-0.220,147.222,50.000,344.444,672.222,13.889,N
1074,-0.285,0.875,-0.230,136.111,44.444,327.778,677.778,5.556,N
1075,-0.285,0.935,-0.260,136.111,50.000,297.222,672.222,5.556,N
1076,-0.285,1.000,-0.215,141.667,47.222,313.889,650.000,22.222,N
1077,-0.275,1.000,-0.200,138.889,47.222,327.778,652.778,2.778,N
1078,-0.255,0.920,-0.190,136.111,47.222,311.111,658.333,5.556,N
1079,-0.230,0.995,-0.205,138.889,44.444,322.222,677.778,19.444,N
1080,-0.270,0.970,-0.220,141.667,50.000,313.889,683.333,5.556,N
1081,-0.285,1.050,-0.230,138.889,47.222,313.889,663.889,19.444,N
1082,-0.270,1.135,-0.190,138.889,44.444,313.889,663.889,0.000,N
1083,-0.225,1.040,-0.170,136.111,47.222,325.000,658.333,5.556,N
1084,-0.205,1.055,-0.185,141.667,50.000,316.667,680.556,22.222,N
1085,-0.215,1.140,-0.185,138.889,44.444,327.778,680.556,0.000,N
1086,-0.220,1.170,-0.195,133.333,47.222,300.000,669.444,11.111,N
1087,-0.235,1.125,-0.190,138.889,50.000,311.111,650.000,19.444,N
1088,-0.215,1.105,-0.145,144.444,50.000,319.444,658.333,8.333,N
1089,-0.200,1.115,-0.155,138.889,50.000,330.556,658.333,0.000,N
1090,-0.200,1.075,-0.180,138.889,44.444,325.000,675.000,16.667,N
1091,-0.235,1.040,-0.195,147.222,50.000,308.333,680.556,5.556,N
1092,-0.250,1.165,-0.180,144.444,44.444,316.667,661.111,19.444,N
1093,-0.235,1.095,-0.170,133.333,44.444,319.444,655.556,5.556,N
1094,-0.220,1.055,-0.160,136.111,47.222,330.556,658.333,2.778,N
1095,-0.205,1.090,-0.150,144.444,50.000,322.222,683.333,25.000,N
1096,-0.200,1.040,-0.165,136.111,47.222,316.667,663.889,19.444,N
1097,-0.260,1.140,-0.235,136.111,44.444,313.889,666.667,2.778,N
1098,-0.285,1.115,-0.215,138.889,47.222,308.333,650.000,16.667,N
1099,-0.235,1.010,-0.175,141.667,44.444,313.889,658.333,8.333,N
1100,-0.220,1.065,-0.180,136.111,47.222,336.111,652.778,5.556,N
1101,-0.225,1.025,-0.205,136.111,47.222,322.222,669.444,16.667,N
1102,-0.250,1.145,-0.220,141.667,50.000,316.667,680.556,11.111,N
1103,-0.285,1.090,-0.220,136.111,47.222,325.000,652.778,27.778,N
1104,-0.240,0.995,-0.190,127.778,47.222,313.889,650.000,2.778,N
1105,-0.240,0.995,-0.205,144.444,50.000,316.667,666.667,16.667,N
1106,-0.225,1.065,-0.180,141.667,50.000,325.000,691.667,25.000,N
1107,-0.235,1.105,-0.215,141.667,47.222,322.222,669.444,22.222,N
1108,-0.280,1.175,-0.210,138.889,44.444,313.889,669.444,0.000,N
1109,-0.290,1.135,-0.240,141.667,47.222,322.222,666.667,2.778,N
1110,-0.290,1.010,-0.230,144.444,47.222,305.556,677.778,11.111,N
1111,-0.280,1.015,-0.245,141.667,47.222,341.667,663.889,13.889,N
1112,-0.290,1.005,-0.255,141.667,50.000,333.333,672.222,8.333,N
1113,-0.320,1.095,-0.295,136.111,50.000,322.222,680.556,8.333,N
1114,-0.350,1.115,-0.280,138.889,47.222,325.000,661.111,19.444,N
1115,-0.280,1.080,-0.225,136.111,47.222,316.667,650.000,11.111,N
1116,-0.260,1.040,-0.215,144.444,50.000,316.667,669.444,19.444,N
1117,-0.265,1.055,-0.230,138.889,47.222,322.222,691.667,22.222,N
1118,-0.290,1.140,-0.255,144.444,47.222,319.444,669.444,22.222,N
1119,-0.315,1.165,-0.300,138.889,50.000,322.222,655.556,13.889,N
1120,-0.330,1.035,-0.250,136.111,47.222,316.667,655.556,0.000,N
1121,-0.285,1.020,-0.245,127.778,47.222,302.778,672.222,16.667,N
1122,-0.275,1.070,-0.235,141.667,52.778,322.222,683.333,11.111,N
1123,-0.280,1.030,-0.250,144.444,50.000,313.889,677.778,5.556,N
1124,-0.320,1.055,-0.290,136.111,47.222,316.667,663.889,13.889,N
1125,-0.320,1.115,-0.280,136.111,47.222,313.889,661.111,2.778,N
1126,-0.310,0.990,-0.250,136.111,47.222,319.444,658.333,2.778,N
1127,-0.285,0.955,-0.265,144.444,47.222,338.889,683.333,25.000,N
1128,-0.330,0.950,-0.280,133.333,44.444,327.778,677.778,5.556,N
1129,-0.330,0.950,-0.270,136.111,47.222,305.556,666.667,11.111,N
1130,-0.315,1.035,-0.275,138.889,47.222,319.444,647.222,19.444,N
1131,-0.335,1.075,-0.255,141.667,50.000,336.111,650.000,2.778,N
1132,-0.260,1.040,-0.200,136.111,44.444,316.667,655.556,5.556,N
1133,-0.230,0.980,-0.215,138.889,47.222,319.444,669.444,13.889,N
1134,-0.250,0.965,-0.235,141.667,50.000,319.444,669.444,0.000,N
1135,-0.285,1.070,-0.255,138.889,47.222,322.222,655.556,13.889,N
1136,-0.320,1.030,-0.270,130.556,47.222,300.000,652.778,2.778,N
1137,-0.290,0.950,-0.250,141.667,50.000,316.667,658.333,5.556,N
1138,-0.280,0.975,-0.225,141.667,52.778,333.333,680.556,22.222,N
1139,-0.270,0.910,-0.245,136.111,47.222,327.778,672.222,8.333,N
1140,-0.260,1.045,-0.245,133.333,47.222,297.222,672.222,0.000,N
1141,-0.310,1.000,-0.265,136.111,47.222,300.000,661.111,11.111,N
1142,-0.300,0.930,-0.245,141.667,50.000,305.556,661.111,0.000,N
1143,-0.275,0.905,-0.250,136.111,50.000,341.667,655.556,5.556,N
1144,-0.305,0.875,-0.250,133.333,50.000,333.333,677.778,22.222,N
1145,-0.290,0.965,-0.240,138.889,47.222,316.667,683.333,5.556,N
1146,-0.315,1.045,-0.250,138.889,47.222,322.222,658.333,25.000,N
1147,-0.295,1.000,-0.225,138.889,47.222,308.333,652.778,5.556,N
1148,-0.245,0.930,-0.220,136.111,50.000,322.222,652.778,0.000,N
1149,-0.265,0.865,-0.255,150.000,52.778,316.667,686.111,33.333,N
1150,-0.280,0.895,-0.255,141.667,50.000,316.667,658.333,27.778,N
1151,-0.295,1.030,-0.260,133.333,44.444,313.889,661.111,2.778,N
1152,-0.300,0.880,-0.225,130.556,47.222,302.778,650.000,11.111,N
1153,-0.240,0.885,-0.200,141.667,50.000,311.111,655.556,5.556,N
1154,-0.230,0.900,-0.170,136.111,47.222,333.333,650.000,5.556,N
1155,-0.230,0.925,-0.155,136.111,47.222,333.333,666.667,16.667,N
1156,-0.210,0.980,-0.200,130.556,47.222,325.000,669.444,2.778,N
1157,-0.240,0.900,-0.175,144.444,50.000,313.889,655.556,13.889,N
1158,-0.190,0.885,-0.165,130.556,44.444,327.778,644.444,11.111,N
1159,-0.220,0.835,-0.180,136.111,47.222,336.111,661.111,16.667,N
1160,-0.205,0.915,-0.190,141.667,47.222,322.222,680.556,19.444,N
1161,-0.250,0.940,-0.205,136.111,47.222,333.333,652.778,27.778,N
1162,-0.220,0.945,-0.165,130.556,41.667,316.667,647.222,5.556,N
1163,-0.210,0.860,-0.180,136.111,47.222,308.333,650.000,2.778,N
1164,-0.215,0.830,-0.200,138.889,47.222,308.333,666.667,16.667,N
1165,-0.240,0.890,-0.220,138.889,47.222,325.000,655.556,11.111,N
1166,-0.265,0.965,-0.230,141.667,47.222,325.000,666.667,11.111,N
1167,-0.260,0.875,-0.215,136.111,44.444,330.556,658.333,8.333,N
1168,-0.265,0.810,-0.235,144.444,47.222,305.556,661.111,2.778,N
1169,-0.255,0.795,-0.230,133.333,47.222,327.778,638.889,22.222,N
1170,-0.280,0.855,-0.225,136.111,47.222,330.556,663.889,25.000,N
1171,-0.285,0.935,-0.235,138.889,47.222,297.222,669.444,5.556,N
1172,-0.220,0.850,-0.185,138.889,47.222,316.667,647.222,22.222,N
1173,-0.200,0.785,-0.110,133.333,44.444,58.333,627.778,19.444,N
1174,-0.165,0.730,-0.110,133.333,47.222,336.111,647.222,19.444,N
1175,-0.115,0.655,-0.125,136.111,41.667,52.778,655.556,8.333,N
1176,-0.230,0.585,-0.235,136.111,50.000,338.889,650.000,5.556,N
1177,-0.270,0.590,-0.260,138.889,47.222,319.444,655.556,5.556,N
1178,-0.300,0.710,-0.320,136.111,47.222,297.222,658.333,2.778,N
1179,-0.340,0.590,-0.310,136.111,50.000,319.444,638.889,19.444,N
1180,-0.305,0.630,-0.245,136.111,44.444,319.444,636.111,2.778,N
1181,-0.275,0.620,-0.230,141.667,50.000,338.889,647.222,11.111,N
1182,-0.240,0.780,-0.205,141.667,50.000,341.667,669.444,22.222,N
1183,-0.240,0.780,-0.210,136.111,50.000,327.778,641.667,27.778,N
1184,-0.225,0.760,-0.180,130.556,44.444,316.667,641.667,0.000,N
1185,-0.185,0.705,-0.135,133.333,41.667,55.556,633.333,8.333,N
1186,-0.175,0.810,-0.110,144.444,47.222,305.556,652.778,19.444,N
1187,-0.160,0.950,-0.090,144.444,50.000,333.333,633.333,19.444,N
1188,-0.105,0.840,-0.075,136.111,47.222,322.222,650.000,16.667,N
1189,-0.100,0.800,-0.090,130.556,44.444,58.333,650.000,0.000,N
1190,-0.115,0.820,-0.110,136.111,50.000,66.667,636.111,13.889,N
1191,-0.140,0.905,-0.110,130.556,83.333,305.556,630.556,5.556,N
1192,-0.115,0.795,-0.095,133.333,47.222,61.111,630.556,0.000,N
1193,-0.115,0.835,-0.130,138.889,47.222,58.333,655.556,25.000,N
1194,-0.285,0.655,-0.290,130.556,47.222,341.667,644.444,11.111,N
1195,-0.320,0.630,-0.250,127.778,44.444,294.444,647.222,2.778,N
1196,-0.260,0.690,-0.140,133.333,47.222,341.667,619.444,27.778,N
1197,-0.115,0.820,-0.030,138.889,50.000,305.556,633.333,13.889,N
1198,-0.085,1.015,-0.035,130.556,47.222,55.556,630.556,2.778,N
1199,-0.115,0.950,-0.085,133.333,44.444,58.333,650.000,19.444,N
1200,-0.130,0.735,-0.135,166.667,88.889,327.778,644.444,5.556,N
1201,-0.240,0.785,-0.195,197.222,44.444,58.333,638.889,5.556,N
1202,-0.295,0.755,-0.310,136.111,47.222,311.111,638.889,0.000,N
1203,-0.410,0.780,-0.375,136.111,50.000,311.111,633.333,5.556,N
1204,-0.400,0.670,-0.345,138.889,47.222,327.778,650.000,16.667,N
1205,-0.395,0.660,-0.375,130.556,47.222,302.778,655.556,5.556,N
1206,-0.410,0.700,-0.370,141.667,50.000,316.667,644.444,11.111,N
1207,-0.420,0.840,-0.345,136.111,50.000,308.333,625.000,19.444,N
1208,-0.385,0.790,-0.310,133.333,44.444,313.889,625.000,0.000,N
1209,-0.335,0.745,-0.285,127.778,47.222,302.778,641.667,16.667,N
1210,-0.330,0.860,-0.260,138.889,83.333,302.778,641.667,0.000,N
1211,-0.305,0.945,-0.285,138.889,47.222,322.222,644.444,2.778,N
1212,-0.365,0.785,-0.310,152.778,44.444,58.333,636.111,8.333,N
1213,-0.340,0.740,-0.265,136.111,44.444,311.111,636.111,0.000,N
1214,-0.305,0.765,-0.240,136.111,47.222,61.111,627.778,8.333,N
1215,-0.280,0.760,-0.230,144.444,47.222,341.667,647.222,19.444,N
1216,-0.265,0.895,-0.140,136.111,44.444,313.889,658.333,11.111,N
1217,-0.170,0.955,-0.100,136.111,47.222,330.556,638.889,19.444,N
1218,-0.150,0.965,-0.110,130.556,50.000,344.444,630.556,8.333,N
1219,-0.150,1.005,-0.105,125.000,47.222,322.222,641.667,11.111,N
1220,-0.170,0.980,-0.130,141.667,44.444,322.222,650.000,8.333,N
1221,-0.185,0.935,-0.160,141.667,88.889,316.667,641.667,8.333,N
1222,-0.225,0.900,-0.205,119.444,86.111,369.444,641.667,0.000,N
1223,-0.220,0.815,-0.205,136.111,75.000,313.889,652.778,11.111,N
1224,-0.230,0.750,-0.270,136.111,77.778,327.778,630.556,22.222,N
1225,-0.285,0.745,-0.280,155.556,47.222,319.444,633.333,2.778,N
1226,-0.305,0.835,-0.240,133.333,47.222,319.444,633.333,0.000,N
1227,-0.270,0.805,-0.215,147.222,47.222,250.000,650.000,16.667,N
1228,-0.245,0.795,-0.175,133.333,47.222,347.222,625.000,25.000,N
1229,-0.180,0.810,-0.150,130.556,72.222,322.222,627.778,2.778,N
1230,-0.220,0.805,-0.170,133.333,105.556,352.778,633.333,5.556,N
1231,-0.220,1.000,-0.215,133.333,47.222,316.667,622.222,11.111,N
1232,-0.265,0.885,-0.215,119.444,47.222,338.889,622.222,0.000,N
1233,-0.265,0.880,-0.210,130.556,44.444,313.889,630.556,8.333,N
1234,-0.295,0.800,-0.255,138.889,50.000,338.889,644.444,13.889,N
1235,-0.305,0.850,-0.295,130.556,44.444,305.556,633.333,11.111,N
1236,-0.390,1.025,-0.420,130.556,91.667,316.667,633.333,0.000,N
1237,-0.365,0.845,-0.310,136.111,47.222,322.222,627.778,5.556,N
1238,-0.365,0.730,-0.330,127.778,50.000,63.889,638.889,11.111,N
1239,-0.370,0.740,-0.340,136.111,47.222,58.333,658.333,19.444,N
1240,-0.385,0.710,-0.265,127.778,47.222,316.667,641.667,16.667,N
1241,-0.280,0.835,-0.190,127.778,44.444,319.444,622.222,19.444,N
1242,-0.195,0.940,-0.155,130.556,47.222,316.667,636.111,13.889,N
1243,-0.245,1.170,-0.305,130.556,77.778,300.000,647.222,11.111,N
1244,-0.330,0.925,-0.300,141.667,47.222,330.556,641.667,5.556,N
1245,-0.315,0.865,-0.295,136.111,47.222,61.111,638.889,2.778,N
1246,-0.345,0.800,-0.260,130.556,47.222,322.222,641.667,2.778,N
1247,-0.285,0.900,-0.190,133.333,47.222,313.889,644.444,2.778,N
1248,-0.245,1.060,-0.205,138.889,47.222,316.667,625.000,19.444,N
1249,-0.250,0.890,-0.205,138.889,50.000,338.889,641.667,16.667,N
1250,-0.200,0.960,-0.165,136.111,47.222,297.222,652.778,11.111,N
1251,-0.180,0.945,-0.145,138.889,50.000,319.444,641.667,11.111,N
1252,-0.200,0.940,-0.160,125.000,44.444,313.889,630.556,11.111,N
1253,-0.195,0.925,-0.135,127.778,47.222,325.000,652.778,22.222,N
1254,-0.185,0.975,-0.110,133.333,47.222,308.333,658.333,5.556,N
1255,-0.190,1.240,-0.285,136.111,102.778,352.778,647.222,11.111,F
1256,-0.230,0.960,-0.140,136.111,47.222,330.556,663.889,16.667,N
1257,-0.180,0.945,-0.165,130.556,44.444,58.333,666.667,2.778,N
1258,-0.205,0.885,-0.160,138.889,50.000,319.444,652.778,13.889,N
1259,-0.230,0.945,-0.160,133.333,44.444,319.444,647.222,5.556,N
1260,-0.170,0.860,-0.160,130.556,50.000,347.222,652.778,5.556,N
1261,0.205,-1.985,0.690,36.111,0.000,230.556,561.111,91.667,V
1262,-0.230,0.980,-0.165,133.333,47.222,327.778,761.111,200.000,N
1263,-0.250,1.100,-0.235,136.111,44.444,288.889,672.222,88.889,N
1264,-0.290,0.885,-0.270,127.778,44.444,311.111,633.333,38.889,N
1265,-0.320,0.945,-0.265,136.111,47.222,305.556,650.000,16.667,N
1266,-0.360,0.855,-0.325,138.889,50.000,61.111,658.333,8.333,N
1267,-0.405,0.990,-0.430,138.889,47.222,61.111,655.556,2.778,N
1268,-0.490,0.830,-0.450,133.333,47.222,294.444,658.333,2.778,N
1269,-0.465,0.785,-0.370,136.111,47.222,325.000,641.667,16.667,N
1270,-0.380,0.935,-0.265,130.556,47.222,325.000,661.111,19.444,N
1271,-0.300,1.080,-0.210,141.667,52.778,313.889,658.333,2.778,N
1272,-0.220,1.055,-0.090,136.111,47.222,325.000,677.778,19.444,N
1273,-0.075,1.115,-0.030,144.444,50.000,311.111,655.556,22.222,N
1274,-0.230,0.940,-0.200,127.778,44.444,305.556,666.667,11.111,N
1275,-0.285,0.940,-0.210,133.333,50.000,322.222,661.111,5.556,N
1276,-0.285,1.050,-0.190,136.111,47.222,302.778,677.778,16.667,N
1277,-0.255,0.895,-0.165,144.444,47.222,319.444,661.111,16.667,N
1278,-0.180,1.055,-0.015,105.556,80.556,316.667,658.333,2.778,N
1279,-0.040,1.095,-0.010,133.333,50.000,302.778,680.556,22.222,N
1280,-0.080,1.210,-0.050,136.111,47.222,305.556,663.889,16.667,N
1281,-0.150,1.095,-0.170,133.333,47.222,63.889,647.222,16.667,N
1282,-0.310,0.920,-0.295,141.667,50.000,63.889,655.556,8.333,N
1283,-0.390,0.885,-0.315,136.111,47.222,319.444,686.111,30.556,N
1284,-0.335,0.900,-0.240,138.889,47.222,316.667,666.667,19.444,N
1285,-0.320,1.125,-0.335,133.333,113.889,352.778,633.333,33.333,F
1286,-0.255,0.970,-0.140,127.778,47.222,316.667,641.667,8.333,N
1287,-0.165,1.035,-0.115,133.333,47.222,319.444,658.333,16.667,N
1288,-0.160,0.965,-0.125,133.333,50.000,311.111,677.778,19.444,N
1289,-0.210,1.040,-0.200,138.889,50.000,316.667,663.889,13.889,N
1290,-0.275,0.925,-0.210,130.556,47.222,322.222,655.556,8.333,N
1291,-0.215,0.945,-0.150,130.556,47.222,313.889,647.222,8.333,N
1292,-0.200,0.995,-0.130,130.556,47.222,319.444,663.889,16.667,N
1293,-0.200,0.905,-0.175,136.111,47.222,333.333,686.111,22.222,N
1294,-0.280,0.990,-0.265,130.556,47.222,316.667,680.556,5.556,N
1295,-0.285,0.910,-0.240,138.889,47.222,311.111,666.667,13.889,N
1296,-0.260,0.855,-0.225,133.333,47.222,322.222,627.778,38.889,N
1297,-0.260,0.880,-0.225,136.111,47.222,325.000,669.444,41.667,N
1298,-0.300,0.865,-0.255,127.778,47.222,319.444,663.889,5.556,N
1299,-0.330,0.900,-0.245,133.333,47.222,313.889,677.778,13.889,N
1300,-0.255,0.870,-0.180,138.889,50.000,316.667,663.889,13.889,N
1301,-0.220,0.865,-0.140,136.111,47.222,313.889,638.889,25.000,N
1302,-0.200,0.890,-0.125,125.000,47.222,308.333,672.222,33.333,N
1303,-0.215,0.945,-0.225,136.111,47.222,325.000,652.778,19.444,N
1304,-0.230,0.880,-0.150,141.667,50.000,322.222,672.222,19.444,N
1305,-0.155,0.910,-0.105,130.556,44.444,322.222,661.111,11.111,N
1306,-0.190,0.885,-0.150,127.778,47.222,305.556,680.556,19.444,N
1307,-0.225,0.915,-0.210,136.111,47.222,294.444,647.222,33.333,N
1308,-0.245,0.815,-0.160,141.667,47.222,305.556,655.556,8.333,N
1309,-0.195,0.770,-0.140,136.111,47.222,325.000,652.778,2.778,N
1310,-0.180,0.815,-0.150,130.556,47.222,336.111,686.111,33.333,N
1311,-0.210,0.860,-0.195,144.444,47.222,319.444,683.333,2.778,N
1312,-0.200,0.835,-0.145,136.111,47.222,327.778,661.111,22.222,N
1313,-0.170,0.845,-0.105,130.556,47.222,308.333,655.556,5.556,N
1314,-0.135,0.855,-0.090,133.333,47.222,330.556,672.222,16.667,N
1315,-0.155,0.890,-0.160,150.000,50.000,316.667,688.889,16.667,N
1316,-0.210,0.795,-0.170,130.556,50.000,322.222,655.556,33.333,N
1317,-0.210,0.755,-0.190,136.111,47.222,58.333,666.667,11.111,N
1318,-0.275,0.690,-0.270,130.556,44.444,55.556,661.111,5.556,N
1319,-0.320,0.735,-0.330,136.111,80.556,302.778,666.667,5.556,N
1320,-0.355,0.665,-0.305,136.111,47.222,311.111,652.778,13.889,N
1321,-0.330,0.630,-0.285,133.333,50.000,316.667,663.889,11.111,N
1322,-0.305,0.710,-0.280,130.556,44.444,291.667,686.111,22.222,N
1323,-0.325,0.755,-0.330,133.333,50.000,302.778,663.889,22.222,N
1324,-0.370,0.620,-0.315,133.333,47.222,311.111,652.778,11.111,N
1325,-0.350,0.605,-0.295,138.889,50.000,341.667,666.667,13.889,N
1326,-0.340,0.630,-0.320,136.111,47.222,313.889,697.222,30.556,N
1327,-0.350,0.700,-0.300,144.444,50.000,311.111,669.444,27.778,N
1328,-0.310,0.735,-0.200,130.556,44.444,322.222,652.778,16.667,N
1329,-0.250,0.690,-0.195,130.556,47.222,338.889,652.778,0.000,N
1330,-0.220,0.765,-0.200,133.333,44.444,305.556,688.889,36.111,N
1331,-0.265,0.790,-0.220,150.000,50.000,308.333,680.556,8.333,N
1332,-0.280,0.860,-0.240,133.333,50.000,302.778,669.444,11.111,N
1333,-0.270,0.750,-0.210,122.222,47.222,311.111,663.889,5.556,N
1334,-0.240,0.795,-0.185,130.556,50.000,319.444,658.333,5.556,N
1335,-0.235,0.805,-0.175,136.111,47.222,311.111,669.444,11.111,N
1336,-0.240,0.905,-0.180,136.111,50.000,313.889,669.444,0.000,N
1337,-0.240,0.865,-0.170,130.556,50.000,305.556,677.778,8.333,N
1338,-0.200,0.895,-0.095,141.667,47.222,302.778,661.111,16.667,N
1339,-0.135,0.915,-0.045,144.444,50.000,313.889,661.111,0.000,N
1340,-0.080,0.915,-0.055,133.333,47.222,322.222,661.111,0.000,N
1341,-0.115,0.960,-0.100,133.333,47.222,308.333,672.222,11.111,N
1342,-0.190,0.950,-0.150,133.333,52.778,308.333,680.556,8.333,N
1343,-0.200,0.845,-0.140,130.556,50.000,330.556,666.667,13.889,N
1344,-0.145,0.890,-0.075,133.333,47.222,330.556,672.222,5.556,N
1345,-0.100,0.940,-0.065,136.111,44.444,288.889,672.222,0.000,N
1346,-0.150,0.925,-0.145,138.889,44.444,322.222,663.889,8.333,N
1347,-0.225,0.860,-0.180,147.222,52.778,344.444,683.333,19.444,N
1348,-0.225,0.840,-0.200,136.111,47.222,58.333,683.333,0.000,N
1349,-0.245,0.825,-0.200,138.889,47.222,297.222,697.222,13.889,N
1350,-0.330,0.825,-0.270,136.111,47.222,300.000,663.889,33.333,N
1351,-0.360,0.785,-0.235,144.444,50.000,327.778,669.444,5.556,N
1352,-0.260,0.800,-0.215,136.111,47.222,327.778,669.444,0.000,N
1353,-0.260,0.750,-0.230,136.111,47.222,319.444,702.778,33.333,N
1354,-0.290,0.810,-0.265,141.667,44.444,294.444,700.000,2.778,N
1355,-0.330,0.810,-0.250,138.889,47.222,311.111,680.556,19.444,N
1356,-0.280,0.820,-0.220,133.333,47.222,311.111,663.889,16.667,N
1357,-0.250,0.845,-0.190,141.667,47.222,322.222,694.444,30.556,N
1358,-0.245,0.820,-0.200,141.667,47.222,313.889,708.333,13.889,N
1359,-0.265,0.965,-0.215,138.889,47.222,322.222,691.667,16.667,N
1360,-0.280,0.920,-0.190,133.333,44.444,319.444,663.889,27.778,N
1361,-0.220,0.890,-0.175,130.556,44.444,316.667,669.444,5.556,N
1362,-0.230,0.925,-0.170,133.333,47.222,297.222,694.444,25.000,N
1363,-0.245,0.930,-0.190,141.667,47.222,313.889,686.111,8.333,N
1364,-0.270,0.960,-0.225,138.889,44.444,319.444,691.667,5.556,N
1365,-0.255,0.945,-0.180,130.556,47.222,305.556,686.111,5.556,N
1366,-0.220,0.960,-0.150,138.889,47.222,313.889,686.111,0.000,N
1367,-0.215,0.965,-0.165,130.556,44.444,302.778,677.778,8.333,N
1368,-0.230,1.070,-0.165,141.667,50.000,336.111,700.000,22.222,N
1369,-0.255,1.000,-0.160,133.333,47.222,308.333,697.222,2.778,N
1370,-0.170,1.045,-0.105,133.333,44.444,316.667,686.111,11.111,N
1371,-0.185,0.975,-0.100,133.333,47.222,302.778,686.111,0.000,N
1372,-0.175,0.935,-0.155,141.667,83.333,322.222,680.556,5.556,N
1373,-0.200,0.960,-0.075,136.111,47.222,316.667,675.000,5.556,N
1374,-0.090,1.055,0.085,136.111,50.000,302.778,680.556,5.556,N
1375,0.060,1.230,0.155,141.667,44.444,58.333,708.333,27.778,N
1376,-0.020,1.210,-0.055,150.000,47.222,319.444,669.444,38.889,N
1377,-0.150,1.005,-0.120,138.889,47.222,311.111,675.000,5.556,N
1378,-0.165,0.930,-0.125,138.889,44.444,58.333,658.333,16.667,N
1379,-0.195,0.835,-0.155,136.111,47.222,322.222,708.333,50.000,N
1380,-0.235,0.880,-0.170,136.111,50.000,336.111,686.111,22.222,N
1381,-0.245,0.995,-0.190,127.778,44.444,300.000,691.667,5.556,N
1382,-0.295,0.890,-0.355,125.000,91.667,341.667,666.667,25.000,N
1383,-0.285,0.905,-0.255,138.889,44.444,319.444,683.333,16.667,N
1384,-0.310,0.920,-0.230,141.667,50.000,316.667,675.000,8.333,N
1385,-0.285,1.080,-0.230,136.111,47.222,327.778,680.556,5.556,N
1386,-0.295,0.990,-0.270,133.333,47.222,322.222,683.333,2.778,N
1387,-0.285,0.840,-0.250,136.111,47.222,319.444,666.667,16.667,N
1388,-0.300,0.885,-0.210,133.333,47.222,322.222,677.778,11.111,N
1389,-0.205,0.960,-0.155,136.111,44.444,322.222,688.889,11.111,N
1390,-0.165,0.945,-0.160,138.889,44.444,316.667,702.778,13.889,N
1391,-0.205,0.905,-0.145,130.556,47.222,325.000,680.556,22.222,N
1392,-0.180,1.150,-0.210,133.333,75.000,344.444,655.556,25.000,N
1393,-0.180,1.085,-0.075,136.111,47.222,327.778,658.333,2.778,N
1394,0.015,1.300,0.080,125.000,44.444,291.667,666.667,8.333,N
1395,-0.050,1.175,0.005,133.333,50.000,311.111,683.333,16.667,N
1396,-0.130,1.070,-0.105,136.111,47.222,333.333,672.222,11.111,N
1397,-0.165,1.015,-0.095,127.778,47.222,327.778,672.222,0.000,N
1398,-0.190,1.090,-0.085,127.778,47.222,313.889,683.333,11.111,N
1399,-0.175,1.250,-0.230,127.778,111.111,358.333,650.000,33.333,F
1400,-0.180,0.995,-0.125,138.889,47.222,319.444,683.333,33.333,N
1401,-0.240,1.015,-0.215,127.778,44.444,305.556,680.556,2.778,N
1402,-0.310,0.920,-0.250,125.000,47.222,302.778,666.667,13.889,N
1403,-0.280,0.945,-0.215,138.889,47.222,322.222,652.778,13.889,N
1404,-0.270,0.995,-0.175,150.000,50.000,330.556,658.333,5.556,N
1405,-0.210,1.125,-0.160,127.778,44.444,333.333,669.444,11.111,N
1406,-0.180,-0.170,-0.105,50.000,77.778,94.444,286.111,383.333,|
1407,-0.195,1.200,-0.250,175.000,86.111,316.667,386.111,100.000,N
1408,-0.335,0.945,-0.340,147.222,50.000,316.667,663.889,277.778,N
1409,-0.390,0.840,-0.300,127.778,47.222,316.667,641.667,22.222,N
1410,-0.330,0.960,-0.235,133.333,47.222,311.111,669.444,27.778,N
1411,-0.325,1.070,-0.285,138.889,86.111,341.667,636.111,33.333,N
1412,-0.270,1.010,-0.155,136.111,50.000,311.111,669.444,33.333,N
1413,-0.190,0.985,-0.130,133.333,47.222,313.889,655.556,13.889,N
1414,-0.200,1.055,-0.150,127.778,47.222,316.667,666.667,11.111,N
1415,-0.200,0.945,-0.245,138.889,116.667,347.222,638.889,27.778,N
1416,-0.215,0.955,-0.125,130.556,80.556,308.333,641.667,2.778,N
1417,-0.080,-1.680,0.555,36.111,0.000,225.000,419.444,222.222,V
1418,-0.275,1.105,-0.140,130.556,47.222,333.333,894.444,475.000,N
1419,-0.060,-0.720,0.140,36.111,25.000,230.556,505.556,388.889,V
1420,0.140,-1.685,0.460,111.111,0.000,200.000,333.333,172.222,V
1421,-0.110,-0.860,0.030,33.333,22.222,227.778,480.556,147.222,V
1422,-0.370,0.735,-0.320,130.556,47.222,327.778,647.222,166.667,N
1423,-0.405,0.820,-0.350,138.889,47.222,313.889,652.778,5.556,N
1424,-0.400,0.730,-0.295,141.667,50.000,341.667,669.444,16.667,N
1425,-0.350,0.735,-0.245,133.333,50.000,313.889,658.333,11.111,N
1426,-0.285,0.865,-0.210,136.111,44.444,300.000,686.111,27.778,N
1427,-0.330,0.895,-0.285,136.111,47.222,311.111,644.444,41.667,N
1428,-0.305,0.925,-0.205,136.111,47.222,330.556,652.778,8.333,N
1429,-0.265,0.930,-0.180,133.333,47.222,313.889,655.556,2.778,N
1430,-0.280,1.010,-0.230,130.556,50.000,311.111,672.222,16.667,N
1431,-0.270,0.980,-0.180,136.111,47.222,305.556,677.778,5.556,N
1432,-0.230,0.990,-0.150,136.111,50.000,313.889,655.556,22.222,N
1433,-0.215,1.065,-0.175,133.333,47.222,308.333,669.444,13.889,N
1434,-0.255,0.975,-0.195,136.111,50.000,313.889,658.333,11.111,N
1435,-0.200,0.975,-0.155,136.111,47.222,322.222,688.889,30.556,N
1436,-0.185,0.950,-0.185,133.333,47.222,61.111,663.889,25.000,N
1437,-0.260,0.935,-0.115,147.222,41.667,316.667,677.778,13.889,N
1438,-0.180,0.945,-0.115,133.333,47.222,319.444,669.444,8.333,N
1439,-0.160,1.040,-0.130,138.889,47.222,313.889,694.444,25.000,N
1440,-0.200,1.125,-0.305,133.333,108.333,391.667,663.889,30.556,F
1441,-0.245,0.855,-0.205,133.333,47.222,338.889,677.778,13.889,N
1442,-0.250,0.825,-0.250,130.556,47.222,61.111,677.778,0.000,N
1443,-0.255,0.810,-0.245,133.333,47.222,322.222,677.778,0.000,N
1444,-0.280,0.740,-0.260,130.556,44.444,325.000,663.889,13.889,N
1445,-0.310,0.690,-0.285,133.333,47.222,336.111,688.889,25.000,N
1446,-0.350,0.925,-0.395,133.333,113.889,352.778,688.889,0.000,F
1447,-0.330,0.745,-0.265,136.111,47.222,319.444,663.889,25.000,N
1448,-0.285,0.755,-0.250,130.556,44.444,58.333,633.333,30.556,N
1449,-0.290,0.795,-0.165,127.778,44.444,322.222,672.222,38.889,N
1450,-0.130,0.980,-0.080,127.778,52.778,77.778,680.556,8.333,N
1451,-0.150,1.165,-0.240,133.333,91.667,322.222,669.444,11.111,F
1452,-0.190,0.890,-0.185,133.333,47.222,330.556,666.667,2.778,N
1453,-0.245,0.840,-0.230,133.333,44.444,55.556,652.778,13.889,N
1454,-0.290,0.745,-0.255,125.000,55.556,322.222,677.778,25.000,N
1455,-0.320,0.710,-0.280,130.556,47.222,327.778,652.778,25.000,N
1456,-0.305,0.740,-0.260,133.333,47.222,330.556,683.333,30.556,N
1457,-0.280,0.720,-0.275,127.778,47.222,319.444,691.667,8.333,N
1458,-0.295,0.690,-0.295,136.111,44.444,316.667,686.111,5.556,N
1459,-0.350,0.745,-0.360,133.333,50.000,313.889,655.556,30.556,N
1460,-0.365,0.715,-0.345,138.889,80.556,344.444,658.333,2.778,N
1461,-0.305,0.740,-0.275,127.778,44.444,330.556,650.000,8.333,N
1462,-0.290,0.535,-0.240,127.778,47.222,336.111,686.111,36.111,N
1463,-0.275,0.690,-0.250,136.111,47.222,325.000,683.333,2.778,N
1464,-0.315,0.745,-0.310,130.556,47.222,308.333,655.556,27.778,N
1465,-0.345,0.710,-0.335,133.333,44.444,319.444,650.000,5.556,N
1466,-0.340,0.625,-0.290,138.889,47.222,58.333,641.667,8.333,N
1467,-0.270,0.730,-0.210,130.556,47.222,333.333,688.889,47.222,N
1468,-0.265,0.765,-0.285,125.000,44.444,302.778,661.111,27.778,N
1469,-0.345,0.725,-0.280,125.000,47.222,302.778,661.111,0.000,N
1470,-0.240,0.720,-0.165,130.556,47.222,313.889,644.444,16.667,N
1471,-0.165,0.780,-0.105,136.111,47.222,319.444,647.222,2.778,N
1472,-0.130,0.920,-0.065,136.111,47.222,327.778,669.444,22.222,N
1473,-0.140,0.880,-0.130,130.556,47.222,61.111,683.333,13.889,N
1474,-0.225,0.940,-0.270,141.667,102.778,352.778,680.556,2.778,F
1475,-0.195,0.865,-0.150,136.111,47.222,316.667,658.333,22.222,N
1476,-0.200,0.850,-0.200,130.556,47.222,297.222,663.889,5.556,N
1477,-0.295,0.745,-0.350,130.556,50.000,61.111,661.111,2.778,N
1478,-0.430,0.605,-0.395,133.333,83.333,325.000,672.222,11.111,N
1479,-0.415,0.675,-0.285,133.333,47.222,322.222,677.778,5.556,N
1480,-0.290,0.745,-0.195,127.778,47.222,308.333,675.000,2.778,N
1481,-0.200,-0.515,-0.160,27.778,5.556,202.778,550.000,125.000,V
1482,-0.380,0.720,-0.350,133.333,47.222,325.000,766.667,216.667,N
1483,-0.405,0.625,-0.345,136.111,50.000,350.000,650.000,116.667,N
1484,-0.300,0.720,-0.280,133.333,50.000,327.778,680.556,30.556,N
1485,-0.385,0.745,-0.415,133.333,41.667,55.556,675.000,5.556,N
1486,-0.455,0.675,-0.360,130.556,52.778,333.333,650.000,25.000,N
1487,-0.340,0.735,-0.205,127.778,44.444,325.000,644.444,5.556,N
1488,-0.160,0.900,-0.055,130.556,44.444,341.667,658.333,13.889,N
1489,-0.070,0.955,-0.020,136.111,47.222,316.667,691.667,33.333,N
1490,-0.035,1.060,0.020,138.889,50.000,341.667,672.222,19.444,N
1491,-0.040,1.250,-0.120,130.556,105.556,347.222,652.778,19.444,F
1492,-0.060,0.915,-0.020,133.333,47.222,333.333,661.111,8.333,N
1493,-0.045,0.930,-0.050,136.111,44.444,58.333,672.222,11.111,N
1494,-0.175,0.820,-0.145,136.111,47.222,63.889,661.111,11.111,N
1495,-0.190,0.740,-0.205,130.556,47.222,58.333,672.222,11.111,N
1496,-0.275,0.720,-0.280,130.556,44.444,313.889,675.000,2.778,N
1497,-0.335,0.785,-0.415,133.333,105.556,350.000,655.556,19.444,F
1498,-0.350,0.655,-0.305,130.556,44.444,319.444,644.444,11.111,N
1499,-0.305,0.710,-0.235,133.333,47.222,327.778,658.333,13.889,N
1500,-0.250,0.830,-0.185,136.111,47.222,316.667,680.556,22.222,N
1501,-0.195,0.870,-0.145,138.889,44.444,319.444,661.111,19.444,N
1502,-0.245,0.840,-0.230,125.000,47.222,308.333,647.222,13.889,N
1503,-0.305,1.080,-0.375,125.000,105.556,355.556,638.889,8.333,F
1504,-0.330,0.780,-0.195,138.889,47.222,305.556,663.889,25.000,N
1505,-0.210,0.865,-0.170,133.333,44.444,58.333,647.222,16.667,N
1506,-0.270,0.790,-0.225,172.222,47.222,327.778,666.667,19.444,N
1507,-0.260,0.820,-0.205,127.778,47.222,297.222,663.889,2.778,N
1508,-0.315,0.835,-0.325,133.333,83.333,308.333,650.000,13.889,N
1509,-0.375,0.780,-0.325,127.778,47.222,308.333,644.444,5.556,N
1510,-0.340,0.775,-0.275,144.444,47.222,344.444,661.111,16.667,N
1511,-0.315,0.875,-0.210,136.111,47.222,308.333,697.222,36.111,N
1512,-0.255,0.810,-0.250,136.111,47.222,325.000,655.556,41.667,N
1513,-0.290,0.775,-0.255,88.889,44.444,336.111,652.778,2.778,N
1514,-0.315,0.715,-0.275,127.778,47.222,319.444,647.222,5.556,N
1515,-0.360,0.730,-0.370,130.556,47.222,302.778,683.333,36.111,N
1516,-0.470,0.900,-0.560,138.889,75.000,88.889,650.000,33.333,N
1517,-0.535,0.550,-0.490,133.333,44.444,61.111,663.889,13.889,N
1518,-0.500,0.555,-0.465,150.000,47.222,311.111,647.222,16.667,N
1519,-0.490,0.650,-0.395,186.111,47.222,319.444,661.111,13.889,N
1520,-0.420,0.650,-0.325,122.222,44.444,322.222,627.778,33.333,N
1521,-0.300,0.795,-0.205,138.889,47.222,316.667,675.000,47.222,N
1522,-0.230,0.885,-0.150,133.333,47.222,313.889,669.444,5.556,N
1523,-0.185,0.810,-0.145,133.333,47.222,322.222,655.556,13.889,N
1524,-0.135,0.880,-0.110,130.556,44.444,55.556,633.333,22.222,N
1525,-0.160,0.845,-0.100,125.000,50.000,319.444,647.222,13.889,N
1526,-0.140,0.890,-0.135,125.000,47.222,308.333,672.222,25.000,N
1527,-0.175,0.890,-0.180,133.333,50.000,322.222,650.000,22.222,N
1528,-0.225,0.785,-0.235,105.556,50.000,336.111,658.333,8.333,N
1529,-0.225,0.825,-0.155,133.333,47.222,305.556,663.889,5.556,N
1530,-0.200,0.825,-0.170,136.111,86.111,302.778,661.111,2.778,N
1531,-0.265,0.875,-0.200,130.556,47.222,305.556,636.111,25.000,N
1532,-0.280,0.850,-0.255,133.333,44.444,327.778,650.000,13.889,N
1533,-0.295,0.855,-0.255,138.889,47.222,316.667,672.222,22.222,N
1534,-0.325,0.640,-0.250,125.000,47.222,305.556,641.667,30.556,N
1535,-0.365,0.785,-0.290,127.778,44.444,319.444,661.111,19.444,N
1536,-0.375,0.730,-0.340,127.778,47.222,302.778,650.000,11.111,N
1537,-0.445,0.830,-0.420,133.333,72.222,311.111,652.778,2.778,N
1538,-0.460,0.695,-0.335,133.333,47.222,308.333,644.444,8.333,N
1539,-0.380,0.720,-0.285,136.111,47.222,330.556,663.889,19.444,N
1540,-0.320,0.810,-0.255,130.556,44.444,319.444,683.333,19.444,N
1541,-0.325,0.925,-0.365,133.333,105.556,319.444,663.889,19.444,N
1542,-0.380,0.785,-0.260,130.556,47.222,322.222,641.667,22.222,N
1543,-0.265,0.780,-0.205,138.889,47.222,322.222,666.667,25.000,N
1544,-0.270,0.835,-0.205,133.333,44.444,311.111,702.778,36.111,N
1545,-0.290,0.820,-0.245,138.889,50.000,311.111,675.000,27.778,N
1546,-0.350,0.850,-0.265,130.556,44.444,311.111,655.556,19.444,N
1547,-0.325,0.775,-0.240,130.556,47.222,325.000,661.111,5.556,N
1548,-0.275,0.840,-0.160,127.778,44.444,313.889,677.778,16.667,N
1549,-0.220,0.865,-0.200,138.889,47.222,325.000,688.889,11.111,N
1550,-0.310,0.835,-0.265,133.333,47.222,316.667,680.556,8.333,N
1551,-0.370,0.750,-0.285,125.000,47.222,311.111,672.222,8.333,N
1552,-0.315,0.760,-0.255,127.778,41.667,300.000,672.222,0.000,N
1553,-0.295,0.780,-0.225,133.333,44.444,319.444,677.778,5.556,N
1554,-0.305,0.880,-0.240,130.556,47.222,330.556,694.444,16.667,N
1555,-0.330,0.890,-0.255,127.778,44.444,305.556,688.889,5.556,N
1556,-0.295,0.860,-0.215,130.556,47.222,308.333,669.444,19.444,N
1557,-0.240,0.825,-0.200,130.556,47.222,302.778,675.000,5.556,N
1558,-0.260,0.905,-0.235,138.889,44.444,313.889,683.333,8.333,N
1559,-0.300,0.875,-0.275,130.556,47.222,305.556,686.111,2.778,N
1560,-0.340,0.865,-0.225,127.778,44.444,316.667,683.333,2.778,N
1561,-0.225,0.945,-0.125,136.111,44.444,313.889,697.222,13.889,N
1562,-0.175,1.050,-0.120,138.889,50.000,327.778,688.889,8.333,N
1563,-0.170,1.070,-0.090,127.778,44.444,311.111,680.556,8.333,N
1564,-0.170,1.030,-0.125,133.333,47.222,330.556,683.333,2.778,N
1565,-0.150,1.035,-0.095,144.444,47.222,313.889,716.667,33.333,N
1566,-0.155,1.020,-0.150,133.333,47.222,333.333,680.556,36.111,N
1567,-0.220,1.000,-0.160,127.778,44.444,313.889,683.333,2.778,N
1568,-0.255,0.935,-0.255,127.778,44.444,308.333,680.556,2.778,N
1569,-0.355,0.890,-0.315,136.111,44.444,308.333,691.667,11.111,N
1570,-0.355,0.805,-0.280,136.111,50.000,313.889,672.222,19.444,N
1571,-0.310,0.855,-0.245,138.889,50.000,316.667,697.222,25.000,N
1572,-0.300,0.880,-0.260,130.556,44.444,327.778,686.111,11.111,N
1573,-0.355,0.815,-0.290,125.000,47.222,305.556,686.111,0.000,N
1574,-0.380,0.830,-0.290,133.333,47.222,313.889,663.889,22.222,N
1575,-0.310,0.855,-0.245,136.111,47.222,327.778,691.667,27.778,N
1576,-0.305,0.840,-0.220,133.333,47.222,313.889,711.111,19.444,N
1577,-0.290,0.850,-0.245,133.333,44.444,308.333,697.222,13.889,N
1578,-0.330,0.825,-0.285,138.889,50.000,308.333,672.222,25.000,N
1579,-0.315,0.880,-0.235,138.889,47.222,316.667,691.667,19.444,N
1580,-0.265,0.900,-0.210,136.111,50.000,330.556,691.667,0.000,N
1581,-0.280,0.880,-0.240,133.333,47.222,316.667,705.556,13.889,N
1582,-0.340,0.760,-0.300,138.889,47.222,305.556,713.889,8.333,N
1583,-0.370,0.770,-0.310,133.333,47.222,316.667,683.333,30.556,N
1584,-0.325,0.855,-0.245,136.111,47.222,316.667,677.778,5.556,N
1585,-0.290,0.880,-0.195,136.111,47.222,336.111,708.333,30.556,N
1586,-0.260,0.950,-0.200,136.111,44.444,311.111,722.222,13.889,N
1587,-0.265,0.915,-0.215,133.333,47.222,302.778,683.333,38.889,N
1588,-0.225,0.945,-0.165,130.556,44.444,322.222,675.000,8.333,N
1589,-0.225,0.900,-0.145,130.556,47.222,341.667,686.111,11.111,N
1590,-0.205,0.935,-0.165,127.778,44.444,313.889,691.667,5.556,N
1591,-0.255,0.915,-0.180,133.333,44.444,327.778,686.111,5.556,N
1592,-0.205,0.835,-0.130,136.111,50.000,308.333,688.889,2.778,N
1593,-0.155,0.940,0.000,133.333,47.222,319.444,683.333,5.556,N
1594,-0.080,1.080,-0.050,133.333,47.222,294.444,677.778,5.556,N
1595,-0.155,1.000,-0.110,138.889,47.222,311.111,669.444,8.333,N
1596,-0.145,0.985,-0.080,141.667,47.222,322.222,697.222,27.778,N
1597,-0.140,0.985,-0.080,130.556,47.222,325.000,688.889,8.333,N
1598,-0.180,0.860,-0.180,127.778,47.222,300.000,688.889,0.000,N
1599,-0.275,0.810,-0.220,127.778,47.222,305.556,669.444,19.444,N
1600,-0.260,0.815,-0.215,138.889,44.444,316.667,680.556,11.111,N
1601,-0.280,0.780,-0.210,138.889,50.000,344.444,680.556,0.000,N
1602,-0.260,0.810,-0.200,133.333,44.444,319.444,686.111,5.556,N
1603,-0.300,0.790,-0.230,127.778,44.444,302.778,688.889,2.778,N
1604,-0.305,0.700,-0.210,130.556,47.222,322.222,675.000,13.889,N
1605,-0.245,0.770,-0.195,127.778,47.222,336.111,658.333,16.667,N
1606,-0.260,0.780,-0.220,136.111,47.222,322.222,691.667,33.333,N
1607,-0.325,0.730,-0.270,133.333,44.444,305.556,700.000,8.333,N
1608,-0.360,0.735,-0.265,138.889,44.444,305.556,675.000,25.000,N
1609,-0.290,0.695,-0.200,127.778,47.222,313.889,658.333,16.667,N
1610,-0.240,0.700,-0.200,127.778,47.222,327.778,680.556,22.222,N
1611,-0.290,0.730,-0.230,127.778,44.444,308.333,686.111,5.556,N
1612,-0.295,0.720,-0.235,133.333,47.222,308.333,688.889,2.778,N
1613,-0.295,0.735,-0.185,138.889,47.222,325.000,700.000,11.111,N
1614,-0.215,0.795,-0.190,136.111,47.222,311.111,675.000,25.000,N
1615,-0.240,0.730,-0.200,133.333,44.444,294.444,691.667,16.667,N
1616,-0.315,0.710,-0.215,136.111,44.444,308.333,686.111,5.556,N
1617,-0.295,0.770,-0.180,138.889,50.000,330.556,711.111,25.000,N
1618,-0.210,0.795,-0.120,133.333,44.444,333.333,694.444,16.667,N
1619,-0.185,0.815,-0.110,122.222,44.444,302.778,694.444,0.000,N
1620,-0.165,0.760,-0.135,130.556,41.667,294.444,683.333,11.111,N
1621,-0.250,0.795,-0.215,136.111,44.444,294.444,697.222,13.889,N
1622,-0.275,0.710,-0.210,136.111,47.222,344.444,686.111,11.111,N
1623,-0.290,0.595,-0.255,133.333,50.000,336.111,705.556,19.444,N
1624,-0.340,0.655,-0.310,130.556,47.222,305.556,705.556,0.000,N
1625,-0.375,0.605,-0.340,130.556,47.222,302.778,700.000,5.556,N
1626,-0.410,0.565,-0.330,133.333,47.222,322.222,672.222,27.778,N
1627,-0.330,0.650,-0.250,141.667,47.222,319.444,713.889,41.667,N
1628,-0.310,0.670,-0.260,130.556,44.444,336.111,708.333,5.556,N
1629,-0.305,0.670,-0.240,130.556,50.000,302.778,705.556,2.778,N
1630,-0.330,0.650,-0.290,136.111,44.444,316.667,683.333,22.222,N
1631,-0.375,0.635,-0.305,133.333,47.222,327.778,686.111,2.778,N
1632,-0.325,0.665,-0.250,141.667,47.222,311.111,691.667,5.556,N
1633,-0.290,0.690,-0.230,130.556,44.444,311.111,702.778,11.111,N
1634,-0.285,0.680,-0.245,138.889,47.222,322.222,716.667,13.889,N
1635,-0.310,0.710,-0.270,136.111,47.222,322.222,694.444,22.222,N
1636,-0.355,0.675,-0.285,130.556,44.444,316.667,675.000,19.444,N
1637,-0.305,0.660,-0.230,136.111,47.222,330.556,694.444,19.444,N
1638,-0.295,0.630,-0.220,138.889,50.000,313.889,716.667,22.222,N
1639,-0.275,0.635,-0.230,141.667,47.222,319.444,697.222,19.444,N
1640,-0.315,0.685,-0.270,133.333,47.222,325.000,688.889,8.333,N
1641,-0.360,0.595,-0.280,125.000,47.222,311.111,683.333,5.556,N
1642,-0.320,0.635,-0.225,127.778,44.444,308.333,700.000,16.667,N
1643,-0.290,0.675,-0.200,133.333,50.000,313.889,697.222,2.778,N
1644,-0.270,0.745,-0.210,136.111,50.000,333.333,713.889,16.667,N
1645,-0.285,0.765,-0.255,130.556,50.000,311.111,700.000,13.889,N
1646,-0.335,0.645,-0.245,130.556,47.222,305.556,694.444,5.556,N
1647,-0.260,0.775,-0.185,133.333,47.222,316.667,688.889,5.556,N
1648,-0.230,0.765,-0.160,138.889,47.222,319.444,725.000,36.111,N
1649,-0.240,0.815,-0.200,138.889,44.444,313.889,708.333,16.667,N
1650,-0.300,0.765,-0.225,125.000,50.000,311.111,708.333,0.000,N
1651,-0.300,0.735,-0.215,130.556,47.222,319.444,688.889,19.444,N
1652,-0.245,0.715,-0.180,138.889,44.444,313.889,708.333,19.444,N
1653,-0.260,0.775,-0.210,138.889,50.000,316.667,702.778,5.556,N
1654,-0.270,0.765,-0.200,133.333,50.000,327.778,713.889,11.111,N
1655,-0.300,0.775,-0.215,130.556,44.444,322.222,711.111,2.778,N
1656,-0.285,0.815,-0.235,136.111,47.222,294.444,700.000,11.111,N
1657,-0.265,0.785,-0.160,133.333,44.444,333.333,683.333,16.667,N
1658,-0.210,0.820,-0.160,138.889,44.444,319.444,722.222,38.889,N
1659,-0.210,0.850,-0.170,127.778,44.444,308.333,716.667,5.556,N
1660,-0.255,0.745,-0.195,125.000,44.444,302.778,697.222,19.444,N
1661,-0.280,0.725,-0.185,133.333,47.222,316.667,686.111,11.111,N
1662,-0.225,0.780,-0.160,136.111,47.222,325.000,691.667,5.556,N
1663,-0.205,0.825,-0.155,133.333,44.444,316.667,702.778,11.111,N
1664,-0.205,0.865,-0.160,133.333,44.444,319.444,702.778,0.000,N
1665,-0.265,0.810,-0.205,138.889,44.444,308.333,711.111,8.333,N
1666,-0.200,0.820,-0.135,136.111,44.444,316.667,688.889,22.222,N
1667,-0.195,0.780,-0.120,130.556,47.222,311.111,683.333,5.556,N
1668,-0.210,0.685,-0.155,138.889,52.778,330.556,708.333,25.000,N
1669,-0.250,0.710,-0.195,127.778,50.000,311.111,722.222,13.889,N
1670,-0.265,0.755,-0.195,141.667,50.000,316.667,694.444,27.778,N
1671,-0.230,0.740,-0.160,133.333,44.444,311.111,672.222,22.222,N
1672,-0.215,0.760,-0.160,136.111,47.222,325.000,694.444,22.222,N
1673,-0.230,0.785,-0.175,133.333,47.222,316.667,700.000,5.556,N
1674,-0.255,0.720,-0.200,138.889,47.222,316.667,702.778,2.778,N
1675,-0.265,0.720,-0.185,138.889,50.000,319.444,700.000,2.778,N
1676,-0.205,0.825,-0.160,130.556,47.222,322.222,688.889,11.111,N
1677,-0.230,0.850,-0.175,127.778,44.444,300.000,691.667,2.778,N
1678,-0.270,0.805,-0.240,133.333,47.222,316.667,686.111,5.556,N
1679,-0.320,0.795,-0.250,138.889,50.000,316.667,713.889,27.778,N
1680,-0.280,0.805,-0.210,130.556,47.222,333.333,697.222,16.667,N
1681,-0.280,0.810,-0.220,130.556,44.444,311.111,691.667,5.556,N
1682,-0.270,0.770,-0.220,130.556,41.667,319.444,688.889,2.778,N
1683,-0.285,0.855,-0.240,133.333,44.444,297.222,700.000,11.111,N
1684,-0.315,0.765,-0.220,138.889,47.222,338.889,683.333,16.667,N
1685,-0.255,0.855,-0.190,138.889,50.000,336.111,702.778,19.444,N
1686,-0.225,0.900,-0.175,127.778,47.222,319.444,716.667,13.889,N
1687,-0.240,0.905,-0.205,133.333,47.222,325.000,700.000,16.667,N
1688,-0.310,0.770,-0.230,130.556,47.222,311.111,683.333,16.667,N
1689,-0.275,0.855,-0.180,138.889,47.222,333.333,705.556,22.222,N
1690,-0.220,0.840,-0.180,133.333,47.222,319.444,716.667,11.111,N
1691,-0.245,0.865,-0.200,138.889,44.444,311.111,705.556,11.111,N
1692,-0.270,0.855,-0.245,138.889,44.444,322.222,688.889,16.667,N
1693,-0.340,0.860,-0.250,138.889,47.222,313.889,688.889,0.000,N
1694,-0.300,0.885,-0.195,130.556,44.444,313.889,691.667,2.778,N
1695,-0.250,0.870,-0.185,133.333,47.222,341.667,702.778,11.111,N
1696,-0.245,0.825,-0.230,130.556,47.222,322.222,716.667,13.889,N
1697,-0.300,0.830,-0.270,136.111,50.000,322.222,700.000,16.667,N
1698,-0.340,0.780,-0.280,133.333,47.222,316.667,680.556,19.444,N
1699,-0.305,0.825,-0.230,138.889,47.222,338.889,708.333,27.778,N
1700,-0.275,0.850,-0.210,138.889,47.222,319.444,722.222,13.889,N
1701,-0.270,0.830,-0.205,136.111,44.444,316.667,700.000,22.222,N
1702,-0.300,0.890,-0.250,127.778,41.667,327.778,686.111,13.889,N
1703,-0.330,0.845,-0.230,130.556,47.222,333.333,702.778,16.667,N
1704,-0.255,0.905,-0.190,130.556,44.444,316.667,705.556,2.778,N
1705,-0.250,0.890,-0.165,136.111,47.222,313.889,713.889,8.333,N
1706,-0.235,0.910,-0.170,138.889,47.222,325.000,716.667,2.778,N
1707,-0.285,0.890,-0.250,130.556,47.222,330.556,697.222,19.444,N
1708,-0.325,0.850,-0.235,127.778,47.222,311.111,694.444,2.778,N
1709,-0.270,0.885,-0.185,133.333,47.222,333.333,702.778,8.333,N
1710,-0.235,0.870,-0.175,141.667,47.222,308.333,727.778,25.000,N
1711,-0.245,0.920,-0.190,136.111,47.222,333.333,705.556,22.222,N
1712,-0.295,0.945,-0.215,125.000,44.444,311.111,688.889,16.667,N
1713,-0.280,0.985,-0.190,130.556,44.444,322.222,694.444,5.556,N
1714,-0.225,0.970,-0.155,136.111,44.444,316.667,702.778,8.333,N
1715,-0.210,0.925,-0.155,141.667,50.000,322.222,705.556,2.778,N
1716,-0.235,0.900,-0.170,133.333,47.222,333.333,713.889,8.333,N
1717,-0.255,0.970,-0.210,133.333,44.444,322.222,705.556,8.333,N
1718,-0.290,0.935,-0.225,130.556,44.444,316.667,700.000,5.556,N
1719,-0.265,0.915,-0.185,138.889,47.222,338.889,688.889,11.111,N
1720,-0.275,0.900,-0.200,144.444,47.222,330.556,741.667,52.778,N
1721,-0.290,0.840,-0.220,138.889,47.222,344.444,725.000,16.667,N
1722,-0.300,0.840,-0.270,127.778,47.222,313.889,716.667,8.333,N
1723,-0.335,0.830,-0.270,127.778,47.222,325.000,691.667,25.000,N
1724,-0.295,0.790,-0.230,133.333,47.222,322.222,711.111,19.444,N
1725,-0.290,0.825,-0.215,138.889,47.222,319.444,705.556,5.556,N
1726,-0.295,0.805,-0.240,136.111,47.222,333.333,719.444,13.889,N
1727,-0.305,0.795,-0.275,127.778,44.444,325.000,705.556,13.889,N
1728,-0.335,0.770,-0.295,127.778,41.667,300.000,697.222,8.333,N
1729,-0.345,0.780,-0.235,127.778,44.444,336.111,691.667,5.556,N
1730,-0.310,0.760,-0.230,138.889,50.000,344.444,727.778,36.111,N
1731,-0.295,0.800,-0.200,130.556,47.222,322.222,719.444,8.333,N
1732,-0.315,0.830,-0.235,127.778,44.444,308.333,713.889,5.556,N
1733,-0.320,0.760,-0.240,136.111,44.444,305.556,700.000,13.889,N
1734,-0.300,0.850,-0.220,141.667,47.222,311.111,711.111,11.111,N
1735,-0.255,0.860,-0.185,138.889,44.444,319.444,708.333,2.778,N
1736,-0.255,0.875,-0.200,130.556,50.000,333.333,725.000,16.667,N
1737,-0.295,0.805,-0.220,127.778,41.667,319.444,722.222,2.778,N
1738,-0.310,0.800,-0.215,125.000,47.222,305.556,711.111,11.111,N
1739,-0.305,0.800,-0.185,130.556,47.222,336.111,697.222,13.889,N
1740,-0.230,0.840,-0.170,141.667,47.222,350.000,719.444,22.222,N
1741,-0.215,0.885,-0.160,133.333,44.444,325.000,725.000,5.556,N
1742,-0.225,0.885,-0.190,130.556,44.444,322.222,702.778,22.222,N
1743,-0.265,0.880,-0.210,136.111,44.444,300.000,697.222,5.556,N
1744,-0.300,0.850,-0.210,138.889,47.222,308.333,694.444,2.778,N
1745,-0.230,0.840,-0.155,136.111,44.444,322.222,683.333,11.111,N
1746,-0.225,0.860,-0.175,138.889,47.222,316.667,705.556,22.222,N
1747,-0.240,0.810,-0.210,125.000,44.444,302.778,708.333,2.778,N
1748,-0.295,0.820,-0.225,141.667,44.444,308.333,700.000,8.333,N
1749,-0.275,0.755,-0.215,136.111,47.222,322.222,688.889,11.111,N
1750,-0.255,0.760,-0.185,138.889,47.222,341.667,708.333,19.444,N
1751,-0.255,0.825,-0.185,136.111,44.444,319.444,719.444,11.111,N
1752,-0.265,0.785,-0.195,136.111,47.222,311.111,711.111,8.333,N
1753,-0.280,0.825,-0.190,136.111,47.222,327.778,686.111,25.000,N
1754,-0.235,0.790,-0.165,136.111,44.444,322.222,702.778,16.667,N
1755,-0.255,0.755,-0.170,133.333,44.444,327.778,694.444,8.333,N
1756,-0.240,0.780,-0.180,136.111,44.444,319.444,713.889,19.444,N
1757,-0.255,0.760,-0.210,138.889,44.444,322.222,725.000,11.111,N
1758,-0.290,0.750,-0.220,133.333,47.222,325.000,697.222,27.778,N
1759,-0.295,0.700,-0.215,127.778,47.222,311.111,691.667,5.556,N
1760,-0.265,0.715,-0.205,138.889,44.444,319.444,716.667,25.000,N
1761,-0.295,0.630,-0.235,127.778,47.222,302.778,719.444,2.778,N
1762,-0.330,0.690,-0.260,130.556,50.000,302.778,705.556,13.889,N
1763,-0.320,0.700,-0.245,130.556,47.222,322.222,672.222,33.333,N
1764,-0.300,0.675,-0.200,130.556,47.222,330.556,697.222,25.000,N
1765,-0.265,0.760,-0.205,130.556,47.222,325.000,702.778,5.556,N
1766,-0.270,0.755,-0.190,133.333,44.444,313.889,711.111,8.333,N
1767,-0.270,0.780,-0.220,138.889,44.444,322.222,725.000,13.889,N
1768,-0.300,0.715,-0.240,136.111,47.222,325.000,700.000,25.000,N
1769,-0.285,0.735,-0.215,133.333,44.444,325.000,705.556,5.556,N
1770,-0.260,0.710,-0.225,138.889,50.000,319.444,708.333,2.778,N
1771,-0.295,0.730,-0.210,141.667,44.444,330.556,747.222,38.889,N
1772,-0.265,0.695,-0.230,136.111,47.222,319.444,708.333,38.889,N
1773,-0.310,0.705,-0.255,136.111,47.222,322.222,705.556,2.778,N
1774,-0.355,0.650,-0.260,133.333,47.222,322.222,697.222,8.333,N
1775,-0.320,0.700,-0.220,127.778,44.444,311.111,719.444,22.222,N
1776,-0.315,0.620,-0.240,133.333,47.222,319.444,708.333,11.111,N
1777,-0.325,0.665,-0.225,133.333,50.000,333.333,727.778,19.444,N
1778,-0.290,0.715,-0.230,130.556,50.000,338.889,700.000,27.778,N
1779,-0.295,0.710,-0.225,125.000,44.444,305.556,700.000,0.000,N
1780,-0.310,0.715,-0.200,136.111,47.222,338.889,694.444,5.556,N
1781,-0.255,0.735,-0.160,141.667,47.222,316.667,730.556,36.111,N
1782,-0.265,0.710,-0.190,127.778,50.000,336.111,708.333,22.222,N
1783,-0.300,0.680,-0.250,127.778,44.444,300.000,705.556,2.778,N
1784,-0.350,0.665,-0.285,130.556,47.222,325.000,702.778,2.778,N
1785,-0.365,0.660,-0.250,130.556,44.444,313.889,711.111,8.333,N
1786,-0.315,0.650,-0.220,138.889,47.222,311.111,713.889,2.778,N
1787,-0.290,0.655,-0.215,138.889,50.000,347.222,727.778,13.889,N
1788,-0.295,0.715,-0.210,136.111,47.222,316.667,725.000,2.778,N
1789,-0.335,0.670,-0.260,127.778,50.000,308.333,716.667,8.333,N
1790,-0.360,0.615,-0.260,130.556,47.222,322.222,697.222,19.444,N
1791,-0.300,0.690,-0.220,144.444,50.000,313.889,730.556,33.333,N
1792,-0.280,0.745,-0.170,130.556,44.444,330.556,713.889,16.667,N
1793,-0.265,0.715,-0.215,130.556,44.444,294.444,705.556,8.333,N
1794,-0.315,0.770,-0.245,130.556,44.444,316.667,702.778,2.778,N
1795,-0.330,0.660,-0.265,130.556,44.444,319.444,697.222,5.556,N
1796,-0.310,0.690,-0.225,133.333,50.000,327.778,697.222,0.000,N
1797,-0.310,0.720,-0.215,147.222,47.222,338.889,722.222,25.000,N
1798,-0.280,0.755,-0.220,127.778,44.444,325.000,708.333,13.889,N
1799,-0.290,0.735,-0.215,130.556,44.444,294.444,702.778,5.556,N
1800,-0.270,0.795,-0.175,133.333,44.444,330.556,697.222,5.556,N
1801,-0.265,0.750,-0.170,141.667,52.778,344.444,725.000,27.778,N
1802,-0.230,0.790,-0.155,127.778,44.444,325.000,713.889,11.111,N
1803,-0.250,0.800,-0.175,133.333,44.444,308.333,716.667,2.778,N
1804,-0.275,0.770,-0.185,136.111,47.222,311.111,700.000,16.667,N
1805,-0.240,0.830,-0.160,138.889,47.222,322.222,716.667,16.667,N
1806,-0.235,0.850,-0.160,136.111,47.222,333.333,700.000,16.667,N
1807,-0.265,0.805,-0.195,138.889,47.222,316.667,722.222,22.222,N
1808,-0.250,0.735,-0.205,127.778,47.222,325.000,711.111,11.111,N
1809,-0.280,0.745,-0.215,133.333,44.444,308.333,711.111,0.000,N
1810,-0.270,0.790,-0.170,133.333,44.444,325.000,691.667,19.444,N
1811,-0.240,0.770,-0.165,138.889,50.000,325.000,716.667,25.000,N
1812,-0.220,0.800,-0.160,133.333,47.222,325.000,722.222,5.556,N
1813,-0.270,0.715,-0.200,130.556,47.222,294.444,705.556,16.667,N
1814,-0.300,0.700,-0.210,138.889,47.222,316.667,700.000,5.556,N
1815,-0.280,0.775,-0.215,141.667,47.222,322.222,702.778,2.778,N
1816,-0.290,0.705,-0.210,133.333,50.000,341.667,705.556,2.778,N
1817,-0.165,-1.610,0.485,33.333,2.778,219.444,405.556,300.000,V
1818,-0.280,0.885,-0.110,127.778,44.444,325.000,1019.444,613.889,N
1819,-0.130,0.865,-0.195,197.222,44.444,55.556,505.556,513.889,A
1820,-0.295,0.865,-0.160,125.000,47.222,333.333,852.778,347.222,N
1821,-0.290,0.735,-0.230,138.889,47.222,341.667,722.222,130.556,N
1822,-0.280,0.780,-0.195,138.889,50.000,308.333,738.889,16.667,N
1823,-0.260,0.820,-0.180,138.889,50.000,325.000,711.111,27.778,N
1824,-0.270,0.845,-0.190,133.333,44.444,330.556,691.667,19.444,N
1825,-0.305,0.860,-0.210,133.333,50.000,336.111,697.222,5.556,N
1826,-0.280,0.860,-0.195,125.000,44.444,305.556,700.000,2.778,N
1827,-0.255,0.825,-0.160,130.556,47.222,322.222,713.889,13.889,N
1828,-0.245,0.790,-0.155,136.111,50.000,313.889,716.667,2.778,N
1829,-0.255,0.830,-0.185,133.333,50.000,327.778,700.000,16.667,N
1830,-0.285,0.900,-0.170,127.778,47.222,311.111,700.000,0.000,N
1831,-0.290,0.865,-0.210,138.889,47.222,333.333,705.556,5.556,N
1832,-0.270,0.910,-0.190,138.889,47.222,308.333,738.889,33.333,N
1833,-0.250,0.915,-0.185,133.333,47.222,322.222,713.889,25.000,N
1834,-0.275,0.800,-0.180,125.000,41.667,316.667,700.000,13.889,N
1835,-0.270,0.875,-0.185,127.778,47.222,316.667,713.889,13.889,N
1836,-0.260,0.925,-0.190,127.778,44.444,319.444,719.444,5.556,N
1837,-0.265,0.870,-0.160,136.111,50.000,333.333,722.222,2.778,N
1838,-0.245,0.910,-0.150,138.889,50.000,338.889,727.778,5.556,N
1839,-0.215,0.895,-0.150,136.111,44.444,316.667,719.444,8.333,N
1840,-0.235,0.900,-0.160,127.778,44.444,308.333,713.889,5.556,N
1841,-0.255,0.965,-0.180,130.556,47.222,325.000,713.889,0.000,N
1842,-0.260,0.925,-0.175,136.111,44.444,322.222,733.333,19.444,N
1843,-0.225,0.955,-0.145,141.667,50.000,319.444,719.444,13.889,N
1844,-0.235,0.925,-0.130,127.778,47.222,316.667,700.000,19.444,N
1845,-0.235,0.825,-0.175,127.778,47.222,336.111,702.778,2.778,N
1846,-0.265,0.880,-0.200,127.778,44.444,313.889,719.444,16.667,N
1847,-0.285,0.880,-0.220,136.111,44.444,319.444,702.778,16.667,N
1848,-0.280,0.895,-0.180,136.111,50.000,330.556,719.444,16.667,N
1849,-0.260,0.820,-0.195,127.778,47.222,327.778,702.778,16.667,N
1850,-0.275,0.910,-0.175,127.778,44.444,319.444,711.111,8.333,N
1851,-0.260,0.915,-0.195,141.667,47.222,316.667,708.333,2.778,N
1852,-0.270,0.935,-0.185,141.667,47.222,319.444,730.556,22.222,N
1853,-0.255,0.925,-0.155,133.333,47.222,336.111,711.111,19.444,N
1854,-0.235,0.915,-0.165,127.778,44.444,325.000,708.333,2.778,N
1855,-0.245,0.860,-0.100,133.333,44.444,316.667,708.333,0.000,N
1856,-0.195,0.955,-0.130,130.556,44.444,297.222,725.000,16.667,N
1857,-0.195,0.915,-0.150,138.889,47.222,316.667,711.111,13.889,N
1858,-0.265,0.940,-0.150,133.333,47.222,333.333,719.444,8.333,N
1859,-0.205,0.955,-0.165,136.111,47.222,316.667,716.667,2.778,N
1860,-0.250,0.850,-0.150,125.000,41.667,305.556,708.333,8.333,N
1861,-0.240,0.950,-0.170,136.111,47.222,330.556,711.111,2.778,N
1862,-0.260,0.875,-0.210,136.111,47.222,325.000,738.889,27.778,N
1863,-0.310,0.900,-0.220,136.111,47.222,313.889,719.444,19.444,N
1864,-0.285,0.915,-0.215,127.778,44.444,300.000,708.333,11.111,N
1865,-0.285,0.895,-0.210,130.556,44.444,327.778,705.556,2.778,N
1866,-0.315,0.805,-0.200,130.556,47.222,308.333,722.222,16.667,N
1867,-0.275,0.815,-0.190,141.667,47.222,322.222,719.444,2.778,N
1868,-0.265,0.895,-0.190,138.889,47.222,327.778,730.556,11.111,N
1869,-0.290,0.885,-0.200,133.333,47.222,319.444,705.556,25.000,N
1870,-0.280,0.890,-0.170,130.556,44.444,316.667,702.778,2.778,N
1871,-0.235,0.900,-0.175,138.889,50.000,341.667,705.556,2.778,N
1872,-0.260,0.870,-0.185,144.444,50.000,333.333,744.444,38.889,N
1873,-0.255,0.860,-0.190,133.333,47.222,327.778,711.111,33.333,N
1874,-0.295,0.885,-0.210,127.778,44.444,316.667,705.556,5.556,N
1875,-0.270,0.865,-0.155,125.000,44.444,313.889,705.556,0.000,N
1876,-0.210,0.850,-0.170,133.333,41.667,316.667,719.444,13.889,N
1877,-0.250,0.860,-0.190,141.667,47.222,311.111,719.444,0.000,N
