id,Pamp,Ramp,Tamp,PR,QRS,QT,RRI,dRRI,label
1,-0.685,1.180,-0.420,194.444,83.333,377.778,1325.000,16.667,N
2,-0.670,1.285,-0.470,197.222,77.778,355.556,1186.111,138.889,N
3,-0.710,1.365,-0.390,188.889,66.667,355.556,1152.778,33.333,N
4,-0.705,1.185,-0.435,194.444,80.556,369.444,1336.111,183.333,N
5,-0.720,1.285,-0.400,197.222,83.333,380.556,1216.667,119.444,N
6,-0.615,1.385,-0.300,197.222,77.778,361.111,1133.333,83.333,N
7,-0.640,1.405,-0.340,194.444,77.778,386.111,1352.778,219.444,N
8,-0.625,1.295,-0.315,197.222,80.556,377.778,1322.222,30.556,N
9,-0.580,1.365,-0.285,197.222,77.778,383.333,1225.000,97.222,N
10,-0.620,1.370,-0.355,197.222,66.667,358.333,1452.778,227.778,N
11,-0.740,1.140,-0.435,194.444,80.556,377.778,1330.556,122.222,N
12,-0.685,1.105,-0.465,194.444,77.778,361.111,1213.889,116.667,N
13,-0.725,1.190,-0.440,197.222,72.222,380.556,1336.111,122.222,N
14,-0.760,1.090,-0.450,197.222,80.556,380.556,1341.667,5.556,N
15,-0.740,1.105,-0.430,197.222,83.333,380.556,1238.889,102.778,N
16,-0.665,1.315,-0.380,197.222,77.778,388.889,1358.333,119.444,N
17,-0.675,1.055,-0.435,197.222,83.333,386.111,1341.667,16.667,N
18,-0.685,1.205,-0.435,197.222,83.333,383.333,1205.556,136.111,N
19,-0.650,1.145,-0.375,197.222,83.333,386.111,1297.222,91.667,N
20,-0.665,0.975,-0.415,197.222,80.556,380.556,1333.333,36.111,N
21,-0.650,1.220,-0.380,194.444,72.222,386.111,1222.222,111.111,N
22,-0.650,1.265,-0.340,197.222,77.778,377.778,1347.222,125.000,N
23,-0.685,1.045,-0.415,197.222,86.111,386.111,1341.667,5.556,N
24,-0.640,1.160,-0.370,197.222,80.556,386.111,1288.889,52.778,N
25,-0.580,1.265,-0.330,197.222,69.444,380.556,1361.111,72.222,N
26,-0.595,1.105,-0.380,197.222,69.444,358.333,1330.556,30.556,N
27,-0.595,1.195,-0.320,197.222,83.333,386.111,1155.556,175.000,N
28,-0.560,1.180,-0.335,197.222,69.444,355.556,1283.333,127.778,N
29,-0.650,0.900,-0.420,194.444,77.778,386.111,1238.889,44.444,N
30,-0.645,1.115,-0.425,194.444,77.778,377.778,1138.889,100.000,N
31,-0.705,1.095,-0.360,197.222,72.222,363.889,1188.889,50.000,N
32,-0.655,0.870,-0.420,194.444,69.444,352.778,1236.111,47.222,N
33,-0.710,0.945,-0.445,197.222,86.111,380.556,1083.333,152.778,N
34,-0.720,1.040,-0.390,188.889,72.222,358.333,1113.889,30.556,N
35,-0.700,1.025,-0.370,197.222,77.778,386.111,1211.111,97.222,N
36,-0.670,1.010,-0.430,197.222,66.667,361.111,1122.222,88.889,N
37,-0.620,1.090,-0.375,197.222,69.444,352.778,1075.000,47.222,N
38,-0.715,0.925,-0.445,194.444,80.556,372.222,1263.889,188.889,N
39,-0.810,0.860,-0.540,194.444,83.333,388.889,1183.333,80.556,N
40,-0.775,1.010,-0.500,197.222,72.222,377.778,1127.778,55.556,N
41,-0.755,0.890,-0.470,194.444,80.556,369.444,1294.444,166.667,N
42,-0.775,0.885,-0.580,194.444,75.000,347.222,1175.000,119.444,N
43,-0.810,1.055,-0.465,194.444,83.333,377.778,1119.444,55.556,N
44,-0.795,1.025,-0.490,194.444,75.000,380.556,1211.111,91.667,N
45,-0.845,0.975,-0.535,197.222,80.556,383.333,1141.667,69.444,N
46,-0.790,1.185,-0.380,197.222,83.333,375.000,1080.556,61.111,N
47,-0.750,1.215,-0.375,197.222,66.667,377.778,1241.667,161.111,N
48,-0.725,1.025,-0.430,194.444,69.444,358.333,1263.889,22.222,N
49,-0.675,1.190,-0.360,197.222,86.111,383.333,1158.333,105.556,N
50,-0.725,1.255,-0.375,197.222,80.556,369.444,1247.222,88.889,N
51,-0.715,1.180,-0.410,197.222,77.778,377.778,1213.889,33.333,N
52,-0.625,1.340,-0.285,191.667,63.889,355.556,1152.778,61.111,N
53,-0.635,1.240,-0.280,191.667,83.333,377.778,1230.556,77.778,N
54,-0.685,1.095,-0.430,188.889,86.111,375.000,1233.333,2.778,N
55,-0.720,1.375,-0.290,197.222,80.556,355.556,1122.222,111.111,N
56,-0.675,1.345,-0.280,191.667,80.556,372.222,1247.222,125.000,N
57,-0.690,1.235,-0.370,197.222,75.000,358.333,1211.111,36.111,N
58,-0.585,1.510,-0.200,194.444,75.000,358.333,1100.000,111.111,N
59,-0.600,1.330,-0.260,194.444,83.333,366.667,1038.889,61.111,N
60,-0.640,1.330,-0.410,197.222,83.333,383.333,988.889,50.000,N
61,-0.830,1.140,-0.460,191.667,72.222,350.000,1011.111,22.222,N
62,-0.800,1.165,-0.355,197.222,77.778,352.778,1000.000,11.111,N
63,-0.720,1.420,-0.385,197.222,80.556,375.000,947.222,52.778,N
64,-0.750,1.240,-0.390,197.222,72.222,366.667,1022.222,75.000,N
65,-0.745,1.185,-0.360,197.222,83.333,372.222,1055.556,33.333,N
66,-0.615,1.280,-0.330,194.444,83.333,369.444,1027.778,27.778,N
67,-0.695,1.230,-0.325,177.778,80.556,369.444,1130.556,102.778,N
68,-0.640,1.045,-0.400,197.222,77.778,380.556,1327.778,197.222,N
69,-0.610,1.340,-0.405,197.222,77.778,352.778,1269.444,58.333,N
70,-0.650,1.250,-0.385,194.444,80.556,377.778,1305.556,36.111,N
71,-0.675,0.945,-0.485,191.667,69.444,380.556,1283.333,22.222,N
72,-0.685,1.200,-0.515,197.222,61.111,375.000,1200.000,83.333,N
73,-0.725,1.105,-0.480,194.444,75.000,355.556,1205.556,5.556,N
74,-0.720,0.945,-0.495,197.222,75.000,383.333,1272.222,66.667,N
75,-0.700,1.125,-0.510,197.222,63.889,369.444,1158.333,113.889,N
76,-0.735,1.205,-0.445,197.222,86.111,383.333,1186.111,27.778,N
77,-0.735,0.990,-0.465,183.333,83.333,380.556,1236.111,50.000,N
78,-0.720,1.210,-0.510,197.222,80.556,383.333,1130.556,105.556,N
79,-0.720,1.070,-0.440,197.222,80.556,383.333,1166.667,36.111,N
80,-0.675,1.080,-0.430,197.222,75.000,377.778,1400.000,233.333,N
81,-0.735,1.025,-0.535,191.667,72.222,361.111,1186.111,213.889,N
82,-0.725,1.125,-0.435,188.889,80.556,366.667,1133.333,52.778,N
83,-0.675,1.035,-0.420,191.667,69.444,355.556,1402.778,269.444,N
84,-0.795,1.035,-0.805,197.222,75.000,-104513.889,1183.333,219.444,N
85,-0.805,0.120,-0.805,105641.667,66.667,-105602.778,1077.778,105.556,N
86,-0.910,1.015,-0.155,180.556,66.667,352.778,1008.333,69.444,N
87,-0.055,1.915,0.330,197.222,77.778,375.000,969.444,38.889,N
88,-0.320,1.595,0.080,194.444,75.000,358.333,1000.000,30.556,N
89,-0.380,1.375,-0.080,197.222,80.556,350.000,1047.222,47.222,N
90,-0.425,1.305,-0.170,177.778,83.333,372.222,1008.333,38.889,N
91,-0.605,1.275,-0.285,175.000,86.111,377.778,1063.889,55.556,N
92,-0.710,1.155,-0.375,180.556,83.333,375.000,1108.333,44.444,N
93,-0.635,1.170,-0.350,197.222,75.000,375.000,1088.889,19.444,N
94,-0.725,1.175,-0.430,197.222,83.333,383.333,1375.000,286.111,N
95,-0.705,1.160,-0.520,197.222,72.222,380.556,1383.333,8.333,N
96,-0.675,1.230,-0.450,194.444,75.000,383.333,1338.889,44.444,N
97,-0.720,1.060,-0.520,197.222,80.556,386.111,1369.444,30.556,N
98,-0.765,1.180,-0.520,169.444,80.556,386.111,1208.333,161.111,N
99,-0.755,1.160,-0.465,194.444,83.333,383.333,1233.333,25.000,N
100,-0.745,1.085,-0.545,197.222,75.000,386.111,1297.222,63.889,N
101,-0.850,1.025,-0.650,188.889,77.778,380.556,1166.667,130.556,N
102,-0.805,1.175,-0.540,186.111,83.333,369.444,1086.111,80.556,N
103,-0.845,1.080,-0.460,194.444,83.333,375.000,1161.111,75.000,N
104,-0.765,1.190,-0.490,191.667,83.333,377.778,1244.444,83.333,N
105,-0.755,1.210,-0.410,194.444,83.333,372.222,1169.444,75.000,N
106,-0.675,1.320,-0.375,197.222,75.000,383.333,1236.111,66.667,N
107,-0.705,1.190,-0.420,197.222,77.778,383.333,1272.222,36.111,N
108,-0.660,1.195,-0.395,191.667,83.333,375.000,1022.222,250.000,N
109,-0.700,1.225,-0.400,191.667,75.000,369.444,1016.667,5.556,N
110,-0.670,1.165,-0.265,188.889,66.667,350.000,1019.444,2.778,N
111,-0.460,1.530,-0.060,172.222,83.333,377.778,1055.556,36.111,N
112,-0.590,1.280,-0.475,197.222,80.556,355.556,1461.111,405.556,N
113,-0.880,0.895,-0.705,197.222,83.333,383.333,1300.000,161.111,N
114,-0.885,0.890,-0.655,194.444,80.556,383.333,1336.111,36.111,N
115,-0.895,0.705,-0.755,194.444,69.444,350.000,1327.778,8.333,N
116,-0.905,0.930,-0.665,197.222,77.778,377.778,1238.889,88.889,N
117,-0.870,0.965,-0.565,197.222,83.333,380.556,1308.333,69.444,N
118,-0.830,0.895,-0.630,197.222,80.556,372.222,1330.556,22.222,N
119,-0.770,1.050,-0.495,197.222,66.667,358.333,1180.556,150.000,N
120,-0.810,0.910,-0.510,191.667,83.333,383.333,1361.111,180.556,N
121,-0.790,0.825,-0.550,197.222,80.556,366.667,1300.000,61.111,N
122,-0.735,0.980,-0.495,197.222,77.778,361.111,1150.000,150.000,N
123,-0.785,0.995,-0.470,197.222,86.111,377.778,1219.444,69.444,N
124,-0.850,0.855,-0.515,197.222,83.333,380.556,1302.778,83.333,N
125,-0.755,0.965,-0.515,197.222,86.111,383.333,1194.444,108.333,N
126,-0.770,1.150,-0.435,194.444,83.333,391.667,1161.111,33.333,N
127,-0.800,0.905,-0.515,197.222,83.333,383.333,1305.556,144.444,N
128,-0.730,1.040,-0.520,194.444,72.222,369.444,1058.333,247.222,N
129,-0.810,0.945,-0.440,191.667,83.333,369.444,1058.333,0.000,N
130,-0.865,0.940,-0.505,197.222,83.333,369.444,1100.000,41.667,N
131,-0.870,0.995,-0.500,197.222,83.333,372.222,1163.889,63.889,N
132,-0.745,0.860,-0.515,186.111,63.889,355.556,1505.556,341.667,N
133,-0.795,0.890,-0.590,191.667,63.889,355.556,1402.778,102.778,N
134,-0.730,1.025,-0.535,194.444,69.444,383.333,1272.222,130.556,N
135,-0.780,1.000,-0.565,197.222,72.222,380.556,1333.333,61.111,N
136,-0.765,0.995,-0.590,191.667,75.000,386.111,1263.889,69.444,N
137,-0.685,1.160,-0.465,197.222,80.556,386.111,1213.889,50.000,N
138,-0.730,1.180,-0.505,197.222,77.778,383.333,1305.556,91.667,N
139,-0.745,1.070,-0.575,194.444,72.222,358.333,1191.667,113.889,N
140,-0.705,1.080,-0.445,197.222,66.667,344.444,1100.000,91.667,N
141,-0.800,1.125,-0.475,197.222,80.556,375.000,1177.778,77.778,N
142,-0.780,1.130,-0.465,194.444,69.444,355.556,1152.778,25.000,N
143,-0.835,1.195,-0.515,194.444,80.556,394.444,1097.222,55.556,N
144,-0.730,1.340,-0.390,197.222,80.556,391.667,1105.556,8.333,N
145,-0.740,1.405,-0.365,197.222,83.333,391.667,1380.556,275.000,N
146,-0.720,1.315,-0.460,191.667,83.333,372.222,1316.667,63.889,N
147,-0.705,1.375,-0.360,197.222,80.556,386.111,1116.667,200.000,N
148,-0.685,1.375,-0.295,191.667,86.111,388.889,1325.000,208.333,N
149,-0.610,1.390,-0.340,194.444,75.000,386.111,1266.667,58.333,N
150,-0.655,1.400,-0.425,186.111,66.667,352.778,1066.667,200.000,N
151,-0.755,1.260,-0.405,194.444,80.556,358.333,1013.889,52.778,N
152,-0.805,1.170,-0.390,197.222,80.556,366.667,1025.000,11.111,N
153,-0.730,1.420,-0.325,197.222,86.111,369.444,988.889,36.111,N
154,-0.770,1.360,-0.320,197.222,83.333,377.778,1030.556,41.667,N
155,-0.610,1.300,-0.350,197.222,72.222,366.667,1419.444,388.889,N
156,-0.590,1.280,-0.345,191.667,80.556,394.444,1322.222,97.222,N
157,-0.645,1.290,-0.315,183.333,83.333,375.000,1394.444,72.222,N
158,-0.660,1.265,-0.475,197.222,83.333,388.889,1313.889,80.556,N
159,-0.635,1.290,-0.420,197.222,75.000,375.000,1311.111,2.778,N
160,-0.695,1.295,-0.445,197.222,80.556,369.444,1386.111,75.000,N
161,-0.685,1.185,-0.565,194.444,77.778,369.444,1233.333,152.778,N
162,-0.725,1.155,-0.465,197.222,75.000,380.556,1208.333,25.000,N
163,-0.690,1.315,-0.450,194.444,75.000,386.111,1336.111,127.778,N
164,-0.710,1.290,-0.500,186.111,83.333,372.222,1258.333,77.778,N
165,-0.650,1.210,-0.410,197.222,75.000,383.333,1172.222,86.111,N
166,-0.710,1.225,-0.440,197.222,83.333,394.444,1230.556,58.333,N
167,-0.720,1.075,-0.480,197.222,86.111,386.111,1147.222,83.333,N
168,-0.670,1.350,-0.390,197.222,66.667,372.222,1094.444,52.778,N
169,-0.700,1.280,-0.370,183.333,83.333,377.778,1288.889,194.444,N
170,-0.715,1.120,-0.410,186.111,83.333,375.000,1136.111,152.778,N
171,-0.700,1.160,-0.375,197.222,86.111,375.000,1027.778,108.333,N
172,-0.705,1.170,-0.385,197.222,77.778,358.333,1058.333,30.556,N
173,-0.675,1.235,-0.290,197.222,86.111,372.222,1025.000,33.333,N
174,-0.540,1.190,-0.300,194.444,72.222,377.778,1402.778,377.778,N
175,-0.680,1.100,-0.430,183.333,83.333,380.556,1322.222,80.556,N
176,-0.710,0.980,-0.370,197.222,86.111,380.556,1297.222,25.000,N
177,-0.685,0.955,-0.425,197.222,86.111,402.778,1377.778,80.556,N
178,-0.685,1.140,-0.420,197.222,66.667,350.000,1269.444,108.333,N
179,-0.595,1.115,-0.340,186.111,86.111,380.556,1261.111,8.333,N
180,-0.615,1.020,-0.480,191.667,69.444,358.333,1241.667,19.444,N
181,-0.630,1.105,-0.425,194.444,66.667,383.333,1133.333,108.333,N
182,-0.655,1.100,-0.425,197.222,72.222,380.556,1277.778,144.444,N
183,-0.680,1.080,-0.430,194.444,72.222,388.889,1194.444,83.333,N
184,-0.675,1.150,-0.440,191.667,75.000,383.333,1136.111,58.333,N
185,-0.705,1.175,-0.405,194.444,72.222,358.333,1166.667,30.556,N
186,-0.710,1.115,-0.390,186.111,83.333,372.222,1258.333,91.667,N
187,-0.700,1.230,-0.375,197.222,83.333,380.556,1097.222,161.111,N
188,-0.690,1.255,-0.335,191.667,83.333,375.000,1105.556,8.333,N
189,-0.660,1.205,-0.315,194.444,80.556,377.778,1022.222,83.333,N
190,-0.555,1.395,-0.225,194.444,75.000,361.111,986.111,36.111,N
191,-0.530,1.385,-0.255,197.222,75.000,358.333,1047.222,61.111,N
192,-0.660,1.305,-0.285,180.556,86.111,369.444,1011.111,36.111,N
193,-0.650,1.410,-0.255,191.667,72.222,363.889,1075.000,63.889,N
194,-0.670,1.235,-0.355,191.667,72.222,363.889,1363.889,288.889,N
195,-0.685,1.390,-0.380,194.444,83.333,375.000,1302.778,61.111,N
196,-0.560,1.365,-0.260,194.444,83.333,380.556,1363.889,61.111,N
197,-0.605,1.060,-0.445,197.222,69.444,380.556,1347.222,16.667,N
198,-0.720,1.195,-0.505,194.444,80.556,386.111,1208.333,138.889,N
199,-0.725,1.310,-0.420,197.222,72.222,369.444,1194.444,13.889,N
200,-0.665,1.040,-0.425,188.889,83.333,377.778,1291.667,97.222,N
201,-0.655,1.180,-0.440,197.222,77.778,383.333,1183.333,108.333,N
202,-0.660,1.335,-0.380,197.222,83.333,377.778,1202.778,19.444,N
203,-0.665,1.170,-0.390,197.222,83.333,405.556,1247.222,44.444,N
204,-0.650,1.185,-0.475,194.444,75.000,372.222,1180.556,66.667,N
205,-0.620,1.295,-0.300,191.667,83.333,380.556,1155.556,25.000,N
206,-0.655,1.205,-0.360,197.222,72.222,377.778,1316.667,161.111,N
207,-0.710,1.120,-0.490,197.222,75.000,383.333,1200.000,116.667,N
208,-0.650,1.165,-0.355,194.444,77.778,363.889,1133.333,66.667,N
209,-0.635,1.250,-0.290,197.222,77.778,361.111,1236.111,102.778,N
210,-0.625,1.255,-0.350,197.222,77.778,375.000,1272.222,36.111,N
211,-0.550,1.400,-0.220,197.222,80.556,372.222,1150.000,122.222,N
212,-0.610,1.240,-0.285,197.222,83.333,372.222,1369.444,219.444,N
213,-0.630,1.200,-0.435,194.444,69.444,355.556,1208.333,161.111,N
214,-0.685,1.190,-0.360,197.222,80.556,380.556,1138.889,69.444,N
215,-0.675,1.135,-0.345,194.444,83.333,375.000,1255.556,116.667,N
216,-0.690,0.940,-0.415,197.222,80.556,383.333,1247.222,8.333,N
217,-0.690,1.245,-0.375,197.222,83.333,388.889,1133.333,113.889,N
218,-0.690,1.095,-0.375,191.667,66.667,361.111,1255.556,122.222,N
219,-0.685,1.070,-0.410,191.667,63.889,352.778,1236.111,19.444,N
220,-0.645,1.090,-0.350,197.222,63.889,350.000,1133.333,102.778,N
221,-0.720,1.135,-0.360,183.333,83.333,383.333,1258.333,125.000,N
222,-0.735,0.975,-0.410,191.667,83.333,369.444,1111.111,147.222,N
223,-0.660,1.275,-0.375,197.222,77.778,363.889,1047.222,63.889,N
224,-0.670,1.125,-0.365,197.222,69.444,377.778,1025.000,22.222,N
225,-0.645,1.225,-0.260,197.222,86.111,383.333,986.111,38.889,N
226,-0.640,1.300,-0.310,191.667,83.333,372.222,1011.111,25.000,N
227,-0.680,1.180,-0.335,197.222,80.556,363.889,986.111,25.000,N
228,-0.750,1.115,-0.325,197.222,83.333,380.556,1002.778,16.667,N
229,-0.675,1.010,-0.345,197.222,83.333,375.000,1000.000,2.778,N
230,-0.650,1.250,-0.300,194.444,83.333,372.222,1011.111,11.111,N
231,-0.580,1.005,-0.395,197.222,69.444,358.333,1402.778,391.667,N
232,-0.605,1.105,-0.455,191.667,72.222,386.111,1272.222,130.556,N
233,-0.575,1.200,-0.390,194.444,66.667,352.778,1302.778,30.556,N
234,-0.575,1.125,-0.420,197.222,80.556,388.889,1377.778,75.000,N
235,-0.625,1.320,-0.565,194.444,75.000,383.333,1261.111,116.667,N
236,-0.655,1.325,-0.395,197.222,66.667,383.333,1327.778,66.667,N
237,-0.680,1.190,-0.515,197.222,83.333,386.111,1383.333,55.556,N
238,-0.695,1.165,-0.530,197.222,80.556,388.889,1230.556,152.778,N
239,-0.675,1.240,-0.390,194.444,63.889,355.556,1252.778,22.222,N
240,-0.650,1.025,-0.460,191.667,69.444,380.556,1269.444,16.667,N
241,-0.640,1.215,-0.445,194.444,72.222,375.000,1172.222,97.222,N
242,-0.605,1.320,-0.310,197.222,75.000,386.111,1241.667,69.444,N
243,-0.650,1.055,-0.435,194.444,75.000,383.333,1330.556,88.889,N
244,-0.650,1.245,-0.480,188.889,83.333,397.222,1222.222,108.333,N
245,-0.650,1.135,-0.330,197.222,83.333,375.000,1261.111,38.889,N
246,-0.680,0.970,-0.440,197.222,83.333,386.111,1333.333,72.222,N
247,-0.665,1.205,-0.450,180.556,83.333,383.333,1236.111,97.222,N
248,-0.690,1.255,-0.385,197.222,80.556,386.111,1266.667,30.556,N
249,-0.670,1.010,-0.495,197.222,75.000,377.778,1358.333,91.667,N
250,-0.675,1.090,-0.450,191.667,72.222,361.111,1191.667,166.667,N
251,-0.660,1.060,-0.400,197.222,75.000,380.556,1305.556,113.889,N
252,-0.700,1.045,-0.465,194.444,83.333,386.111,1283.333,22.222,N
253,-0.680,1.120,-0.395,197.222,83.333,377.778,1172.222,111.111,N
254,-0.640,1.170,-0.360,197.222,75.000,383.333,1247.222,75.000,N
255,-0.700,1.025,-0.435,183.333,75.000,377.778,1180.556,66.667,N
256,-0.650,1.220,-0.375,188.889,83.333,366.667,1011.111,169.444,N
257,-0.650,1.225,-0.315,191.667,86.111,377.778,997.222,13.889,N
258,-0.665,1.110,-0.405,197.222,72.222,375.000,1022.222,25.000,N
259,-0.635,1.255,-0.370,197.222,83.333,369.444,991.667,30.556,N
260,-0.745,1.055,-0.325,183.333,83.333,372.222,1155.556,163.889,N
261,-0.625,1.025,-0.385,197.222,80.556,383.333,1461.111,305.556,N
262,-0.575,1.110,-0.295,197.222,83.333,375.000,1338.889,122.222,N
263,-0.540,1.175,-0.310,183.333,83.333,383.333,1336.111,2.778,N
264,-0.555,1.130,-0.365,183.333,83.333,380.556,1269.444,66.667,N
265,-0.525,1.270,-0.290,188.889,83.333,380.556,1272.222,2.778,N
266,-0.585,1.015,-0.375,194.444,83.333,380.556,1330.556,58.333,N
267,-0.545,1.280,-0.340,197.222,83.333,380.556,1230.556,100.000,N
268,-0.515,1.150,-0.255,194.444,75.000,377.778,1225.000,5.556,N
269,-0.595,1.140,-0.390,194.444,83.333,366.667,1266.667,41.667,N
270,-0.615,1.165,-0.370,194.444,72.222,358.333,1158.333,108.333,N
271,-0.655,1.125,-0.410,197.222,80.556,380.556,1275.000,116.667,N
272,-0.725,1.030,-0.460,197.222,75.000,375.000,1305.556,30.556,N
273,-0.710,1.220,-0.380,197.222,80.556,377.778,1177.778,127.778,N
274,-0.655,1.155,-0.360,194.444,72.222,375.000,1280.556,102.778,N
275,-0.620,1.220,-0.410,197.222,69.444,355.556,1269.444,11.111,N
276,-0.620,1.285,-0.305,197.222,75.000,383.333,1169.444,100.000,N
277,-0.620,1.235,-0.340,197.222,83.333,380.556,1313.889,144.444,N
278,-0.650,1.115,-0.400,194.444,72.222,383.333,1283.333,30.556,N
279,-0.580,1.135,-0.320,194.444,63.889,350.000,1166.667,116.667,N
280,-0.665,1.090,-0.365,191.667,66.667,375.000,1200.000,33.333,N
281,-0.650,1.260,-0.415,197.222,83.333,383.333,1083.333,116.667,N
282,-0.640,1.210,-0.350,191.667,80.556,363.889,988.889,94.444,N
283,-0.695,1.140,-0.315,197.222,83.333,372.222,1027.778,38.889,N
284,-0.685,1.155,-0.320,194.444,83.333,377.778,1022.222,5.556,N
285,-0.660,1.375,-0.240,188.889,83.333,377.778,1077.778,55.556,N
286,-0.555,1.295,-0.305,194.444,66.667,355.556,1502.778,425.000,N
287,-0.670,1.210,-0.465,183.333,86.111,380.556,1363.889,138.889,N
288,-0.655,1.150,-0.390,197.222,72.222,361.111,1341.667,22.222,N
289,-0.720,1.055,-0.470,194.444,75.000,358.333,1369.444,27.778,N
290,-0.700,1.160,-0.500,197.222,86.111,383.333,1225.000,144.444,N
291,-0.680,1.295,-0.400,197.222,69.444,380.556,1347.222,122.222,N
292,-0.660,1.080,-0.445,194.444,75.000,386.111,1305.556,41.667,N
293,-0.670,1.125,-0.430,183.333,66.667,380.556,1188.889,116.667,N
294,-0.650,1.280,-0.350,197.222,83.333,388.889,1250.000,61.111,N
295,-0.650,1.205,-0.385,197.222,83.333,383.333,1272.222,22.222,N
296,-0.680,1.210,-0.425,175.000,83.333,380.556,1175.000,97.222,N
297,-0.640,1.280,-0.350,197.222,77.778,383.333,1122.222,52.778,N
298,-0.705,1.105,-0.395,186.111,83.333,380.556,1244.444,122.222,N
299,-0.695,0.990,-0.450,191.667,83.333,388.889,1191.667,52.778,N
300,-0.630,1.185,-0.315,188.889,83.333,375.000,1111.111,80.556,N
301,-0.620,1.170,-0.410,194.444,72.222,350.000,1186.111,75.000,N
302,-0.745,0.950,-0.460,197.222,83.333,369.444,1083.333,102.778,N
303,-0.740,1.080,-0.445,194.444,69.444,358.333,1177.778,94.444,N
304,-0.815,1.015,-0.525,197.222,83.333,400.000,1258.333,80.556,N
305,-0.730,1.085,-0.465,197.222,77.778,377.778,1186.111,72.222,N
306,-0.730,1.140,-0.390,197.222,75.000,386.111,1261.111,75.000,N
307,-0.680,1.045,-0.455,191.667,80.556,369.444,1258.333,2.778,N
308,-0.700,1.115,-0.385,197.222,83.333,386.111,1152.778,105.556,N
309,-0.675,0.860,-0.480,191.667,66.667,352.778,1219.444,66.667,N
310,-0.780,0.980,-0.545,197.222,83.333,380.556,1125.000,94.444,N
311,-0.770,1.065,-0.465,197.222,66.667,350.000,1183.333,58.333,N
312,-0.775,0.920,-0.485,188.889,83.333,380.556,1255.556,72.222,N
313,-0.770,1.085,-0.530,197.222,83.333,375.000,1161.111,94.444,N
314,-0.770,1.120,-0.430,197.222,77.778,375.000,1161.111,0.000,N
315,-0.775,1.110,-0.455,197.222,83.333,377.778,1175.000,13.889,N
316,-0.785,1.080,-0.510,194.444,83.333,377.778,1008.333,166.667,N
317,-0.700,1.290,-0.400,197.222,80.556,383.333,986.111,22.222,N
318,-0.760,1.170,-0.365,197.222,61.111,350.000,1016.667,30.556,N
319,-0.775,1.145,-0.415,197.222,83.333,372.222,1000.000,16.667,N
320,-0.820,1.325,-0.400,186.111,80.556,377.778,1061.111,61.111,N
321,-0.770,1.145,-0.405,197.222,86.111,377.778,1333.333,272.222,N
322,-0.755,1.175,-0.535,197.222,75.000,375.000,1325.000,8.333,N
323,-0.725,1.370,-0.405,194.444,80.556,372.222,1219.444,105.556,N
324,-0.745,1.140,-0.500,194.444,86.111,380.556,1397.222,177.778,N
325,-0.785,1.260,-0.550,194.444,77.778,377.778,1258.333,138.889,N
326,-0.775,1.285,-0.495,197.222,80.556,380.556,1294.444,36.111,N
327,-0.775,1.040,-0.585,197.222,83.333,361.111,1272.222,22.222,N
328,-0.780,1.310,-0.445,191.667,80.556,372.222,1150.000,122.222,N
329,-0.745,1.215,-0.400,191.667,75.000,361.111,1238.889,88.889,N
330,-0.770,1.185,-0.515,197.222,80.556,383.333,1230.556,8.333,N
331,-0.760,1.110,-0.445,197.222,86.111,375.000,1130.556,100.000,N
332,-0.820,1.200,-0.500,197.222,80.556,388.889,1255.556,125.000,N
333,-0.855,0.945,-0.610,197.222,83.333,383.333,1236.111,19.444,N
334,-0.840,1.150,-0.550,197.222,75.000,383.333,1063.889,172.222,N
335,-0.835,1.120,-0.500,197.222,69.444,355.556,1191.667,127.778,N
336,-0.820,1.020,-0.480,197.222,83.333,377.778,1222.222,30.556,N
337,-0.760,1.120,-0.535,197.222,75.000,355.556,1113.889,108.333,N
338,-0.780,1.280,-0.460,197.222,75.000,361.111,1072.222,41.667,N
339,-0.850,1.120,-0.460,194.444,80.556,380.556,1108.333,36.111,N
340,-0.755,1.100,-0.470,186.111,80.556,372.222,975.000,133.333,N
341,-0.725,1.315,-0.415,194.444,80.556,375.000,991.667,16.667,N
342,-0.705,1.065,-0.390,188.889,72.222,361.111,1013.889,22.222,N
343,-0.755,1.130,-0.415,197.222,77.778,361.111,1008.333,5.556,N
344,-0.800,1.100,-0.455,197.222,75.000,383.333,1105.556,97.222,N
345,-0.795,1.020,-0.485,197.222,69.444,363.889,1291.667,186.111,N
346,-0.790,0.975,-0.560,175.000,86.111,391.667,1252.778,38.889,N
347,-0.815,1.050,-0.485,183.333,83.333,383.333,1275.000,22.222,N
348,-0.785,0.895,-0.525,194.444,63.889,355.556,1341.667,66.667,N
349,-0.780,1.020,-0.590,197.222,72.222,358.333,1202.778,138.889,N
350,-0.605,0.465,-0.230,194.444,97.222,116.667,522.222,680.556,V
351,-0.955,0.855,-0.565,80.556,86.111,375.000,738.889,216.667,N
352,-0.770,0.780,-0.610,197.222,72.222,380.556,1113.889,375.000,N
353,-0.780,0.885,-0.655,197.222,86.111,402.778,1158.333,44.444,N
354,-0.740,1.010,-0.485,197.222,66.667,358.333,1138.889,19.444,N
355,-0.680,0.850,-0.500,188.889,66.667,350.000,1197.222,58.333,N
356,-0.760,0.940,-0.530,194.444,61.111,350.000,1100.000,97.222,N
357,-0.760,1.015,-0.510,197.222,69.444,363.889,1113.889,13.889,N
358,-0.780,0.910,-0.525,197.222,72.222,361.111,1194.444,80.556,N
359,-0.765,0.905,-0.565,197.222,77.778,352.778,1141.667,52.778,N
360,-0.805,1.060,-0.475,197.222,75.000,380.556,1133.333,8.333,N
361,-0.775,0.975,-0.475,191.667,66.667,355.556,1188.889,55.556,N
362,-0.760,1.070,-0.590,191.667,72.222,386.111,1008.333,180.556,N
363,-0.785,0.965,-0.470,194.444,83.333,380.556,1013.889,5.556,N
364,-0.755,0.880,-0.475,194.444,66.667,352.778,1013.889,0.000,N
365,-0.785,1.135,-0.480,197.222,77.778,377.778,983.333,30.556,N
366,-0.810,0.885,-0.480,197.222,83.333,372.222,1044.444,61.111,N
367,-0.835,0.950,-0.570,197.222,86.111,402.778,1233.333,188.889,N
368,-0.825,1.105,-0.605,197.222,72.222,377.778,1255.556,22.222,N
369,-0.805,1.075,-0.495,197.222,69.444,372.222,1166.667,88.889,N
370,-0.790,0.985,-0.500,186.111,83.333,375.000,1216.667,50.000,N
371,-0.760,1.185,-0.495,197.222,86.111,383.333,1163.889,52.778,N
372,-0.805,1.020,-0.720,197.222,80.556,377.778,1194.444,30.556,N
373,-0.980,0.680,-0.500,194.444,80.556,380.556,1027.778,166.667,N
374,-0.825,1.105,-0.405,80.556,61.111,375.000,1011.111,16.667,N
375,-0.535,1.190,-0.440,191.667,72.222,322.222,1016.667,5.556,N
376,-0.540,1.330,-0.355,191.667,83.333,344.444,955.556,61.111,N
377,-0.570,1.340,-0.375,172.222,86.111,355.556,925.000,30.556,N
378,-0.700,1.200,-0.430,180.556,83.333,375.000,975.000,50.000,N
379,-0.745,1.180,-0.465,197.222,75.000,355.556,1086.111,111.111,N
380,-0.790,1.155,-0.420,183.333,83.333,372.222,1052.778,33.333,N
381,-0.780,1.165,-0.390,197.222,83.333,380.556,1025.000,27.778,N
382,-0.725,1.060,-0.400,194.444,66.667,363.889,1113.889,88.889,N
383,-0.705,1.085,-0.455,197.222,77.778,377.778,1186.111,72.222,N
384,-0.760,0.955,-0.610,194.444,75.000,394.444,1352.778,166.667,N
385,-0.700,0.940,-0.445,191.667,86.111,375.000,1263.889,88.889,N
386,-0.655,1.000,-0.450,197.222,66.667,380.556,1336.111,72.222,N
387,-0.725,0.955,-0.605,197.222,83.333,377.778,1286.111,50.000,N
388,-0.755,0.990,-0.465,197.222,75.000,380.556,1227.778,58.333,N
389,-0.730,0.960,-0.495,197.222,86.111,386.111,1311.111,83.333,N
390,-0.765,0.880,-0.585,197.222,80.556,388.889,1219.444,91.667,N
391,-0.740,0.890,-0.510,197.222,80.556,363.889,1169.444,50.000,N
392,-0.750,0.960,-0.480,197.222,75.000,377.778,1241.667,72.222,N
393,-0.740,1.030,-0.545,194.444,80.556,377.778,1136.111,105.556,N
394,-0.690,1.090,-0.440,197.222,75.000,369.444,1030.556,105.556,N
395,-0.765,0.915,-0.460,180.556,83.333,375.000,1008.333,22.222,N
396,-0.740,1.070,-0.440,197.222,83.333,366.667,958.333,50.000,N
397,-0.710,1.130,-0.370,197.222,83.333,377.778,972.222,13.889,N
398,-0.700,1.120,-0.310,194.444,80.556,363.889,1025.000,52.778,N
399,-0.695,1.110,-0.360,177.778,83.333,375.000,1152.778,127.778,N
400,-0.620,1.175,-0.270,197.222,80.556,375.000,1155.556,2.778,N
401,-0.630,1.115,-0.360,186.111,83.333,375.000,1247.222,91.667,N
402,-0.695,1.150,-0.485,197.222,83.333,386.111,1250.000,2.778,N
403,-0.725,0.940,-0.455,194.444,69.444,361.111,1158.333,91.667,N
404,-0.740,0.850,-0.530,191.667,69.444,363.889,1197.222,38.889,N
405,-0.755,1.100,-0.490,197.222,83.333,352.778,1150.000,47.222,N
406,-0.750,0.950,-0.515,197.222,83.333,369.444,1044.444,105.556,N
407,-0.765,0.875,-0.455,191.667,86.111,377.778,1033.333,11.111,N
408,-0.745,0.920,-0.400,194.444,77.778,352.778,986.111,47.222,N
409,-0.865,0.805,-0.460,197.222,61.111,358.333,966.667,19.444,N
410,-0.695,0.910,-0.425,194.444,86.111,366.667,969.444,2.778,N
411,-0.720,0.815,-0.455,186.111,63.889,350.000,955.556,13.889,N
412,-0.725,1.195,-0.370,175.000,83.333,375.000,961.111,5.556,N
413,-0.685,1.150,-0.245,188.889,83.333,363.889,1041.667,80.556,N
414,-0.605,1.160,-0.305,197.222,77.778,386.111,1313.889,272.222,N
415,-0.470,1.310,-0.275,197.222,72.222,352.778,1327.778,13.889,N
416,-0.615,1.105,-0.375,186.111,86.111,377.778,1391.667,63.889,N
417,-0.590,1.135,-0.460,197.222,77.778,386.111,1313.889,77.778,N
418,-0.575,1.210,-0.335,197.222,66.667,380.556,1225.000,88.889,N
419,-0.500,1.180,-0.290,197.222,77.778,375.000,1313.889,88.889,N
420,-0.595,1.100,-0.385,197.222,80.556,383.333,1402.778,88.889,N
421,-0.580,1.230,-0.360,197.222,86.111,386.111,1197.222,205.556,N
422,-0.625,1.345,-0.315,183.333,83.333,380.556,1319.444,122.222,N
423,-0.585,1.015,-0.365,197.222,83.333,383.333,1352.778,33.333,N
424,-0.675,1.145,-0.435,197.222,80.556,386.111,1166.667,186.111,N
425,-0.695,1.100,-0.335,194.444,83.333,377.778,1250.000,83.333,N
426,-0.675,0.950,-0.410,194.444,75.000,388.889,1272.222,22.222,N
427,-0.680,1.200,-0.390,197.222,72.222,377.778,1144.444,127.778,N
428,-0.665,1.050,-0.375,197.222,75.000,380.556,1130.556,13.889,N
429,-0.700,1.240,-0.405,197.222,80.556,383.333,1041.667,88.889,N
430,-0.670,1.065,-0.320,197.222,80.556,355.556,1036.111,5.556,N
431,-0.655,1.155,-0.310,197.222,86.111,366.667,1027.778,8.333,N
432,-0.655,1.250,-0.260,197.222,80.556,361.111,1036.111,8.333,N
433,-0.615,1.010,-0.210,172.222,83.333,380.556,1141.667,105.556,N
434,-0.590,1.055,-0.300,197.222,83.333,375.000,1372.222,230.556,N
435,-0.545,1.210,-0.245,177.778,83.333,383.333,1338.889,33.333,N
436,-0.505,1.065,-0.350,194.444,77.778,361.111,1347.222,8.333,N
437,-0.600,0.985,-0.490,194.444,75.000,377.778,1263.889,83.333,N
438,-0.660,0.930,-0.420,197.222,75.000,372.222,1244.444,19.444,N
439,-0.750,0.810,-0.495,180.556,80.556,380.556,1308.333,63.889,N
440,-0.755,0.765,-0.550,194.444,83.333,377.778,1272.222,36.111,N
441,-0.760,0.950,-0.460,180.556,72.222,388.889,1202.778,69.444,N
442,-0.755,0.855,-0.510,197.222,77.778,380.556,1288.889,86.111,N
443,-0.745,0.760,-0.570,194.444,80.556,388.889,1161.111,127.778,N
444,-0.695,0.965,-0.440,197.222,80.556,380.556,1172.222,11.111,N
445,-0.695,0.815,-0.455,197.222,75.000,388.889,1227.778,55.556,N
446,-0.680,0.730,-0.480,194.444,63.889,352.778,1127.778,100.000,N
447,-0.665,0.870,-0.405,197.222,77.778,383.333,1180.556,52.778,N
448,-0.670,0.610,-0.460,191.667,66.667,350.000,1222.222,41.667,N
449,-0.745,0.885,-0.435,183.333,69.444,355.556,1133.333,88.889,N
450,-0.695,0.935,-0.370,183.333,80.556,369.444,1094.444,38.889,N
451,-0.685,0.895,-0.450,194.444,86.111,377.778,1002.778,91.667,N
452,-0.720,0.900,-0.455,197.222,77.778,375.000,991.667,11.111,N
453,-0.790,0.820,-0.465,197.222,83.333,375.000,1005.556,13.889,N
454,-0.750,1.000,-0.440,197.222,83.333,375.000,961.111,44.444,N
455,-0.770,1.005,-0.390,180.556,83.333,375.000,1011.111,50.000,N
456,-0.720,0.955,-0.440,197.222,77.778,372.222,1116.667,105.556,N
457,-0.695,1.015,-0.435,197.222,80.556,383.333,1169.444,52.778,N
458,-0.630,0.935,-0.410,197.222,72.222,355.556,1461.111,291.667,N
459,-0.645,0.930,-0.480,194.444,69.444,380.556,1327.778,133.333,N
460,-0.675,0.950,-0.460,197.222,80.556,380.556,1213.889,113.889,N
461,-0.760,0.925,-0.470,194.444,83.333,377.778,1088.889,125.000,N
462,-0.695,0.965,-0.425,197.222,72.222,358.333,1044.444,44.444,N
463,-0.710,1.035,-0.415,197.222,77.778,355.556,1016.667,27.778,N
464,-0.690,1.030,-0.400,197.222,66.667,377.778,975.000,41.667,N
465,-0.705,1.105,-0.395,197.222,80.556,375.000,952.778,22.222,N
466,-0.540,1.335,-0.300,197.222,75.000,322.222,922.222,30.556,N
467,-0.725,1.270,-0.420,197.222,75.000,372.222,972.222,50.000,N
468,-0.660,1.215,-0.145,197.222,86.111,369.444,952.778,19.444,N
469,-0.455,1.450,-0.195,194.444,77.778,361.111,941.667,11.111,N
470,-0.500,1.115,-0.270,197.222,86.111,355.556,983.333,41.667,N
471,-0.510,1.520,-0.260,175.000,83.333,375.000,1036.111,52.778,N
472,-0.575,1.390,-0.285,197.222,77.778,386.111,1058.333,22.222,N
473,-0.585,1.170,-0.365,197.222,80.556,377.778,1102.778,44.444,N
474,-0.680,1.095,-0.430,197.222,86.111,375.000,1044.444,58.333,N
475,-0.640,1.090,-0.425,197.222,77.778,361.111,1080.556,36.111,N
476,-0.700,1.150,-0.415,197.222,80.556,363.889,1166.667,86.111,N
477,-0.690,1.040,-0.540,197.222,75.000,383.333,1272.222,105.556,N
478,-0.645,1.080,-0.430,194.444,75.000,358.333,1294.444,22.222,N
479,-0.635,1.160,-0.460,197.222,61.111,355.556,1394.444,100.000,N
480,-0.690,1.035,-0.555,197.222,86.111,386.111,1261.111,133.333,N
481,-0.685,1.260,-0.420,194.444,83.333,391.667,1291.667,30.556,N
482,-0.690,1.140,-0.450,197.222,83.333,377.778,1375.000,83.333,N
483,-0.730,1.095,-0.520,197.222,77.778,377.778,1227.778,147.222,N
484,-0.735,1.265,-0.415,197.222,83.333,377.778,1166.667,61.111,N
485,-0.710,1.125,-0.395,197.222,80.556,383.333,1211.111,44.444,N
486,-0.665,1.220,-0.460,191.667,83.333,361.111,1058.333,152.778,N
487,-0.710,1.130,-0.405,194.444,75.000,369.444,1022.222,36.111,N
488,-0.680,0.995,-0.355,197.222,83.333,363.889,1044.444,22.222,N
489,-0.625,1.165,-0.325,197.222,86.111,358.333,1038.889,5.556,N
490,-0.735,0.985,-0.320,180.556,72.222,358.333,1280.556,241.667,N
491,-0.590,1.010,-0.420,197.222,83.333,363.889,1513.889,233.333,N
492,-0.560,1.155,-0.290,197.222,77.778,377.778,1438.889,75.000,N
493,-0.605,0.930,-0.430,197.222,80.556,383.333,1436.111,2.778,N
494,-0.680,0.850,-0.510,194.444,72.222,366.667,1313.889,122.222,N
495,-0.680,0.820,-0.475,197.222,83.333,386.111,1319.444,5.556,N
496,-0.730,0.825,-0.545,188.889,66.667,355.556,1383.333,63.889,N
497,-0.685,0.930,-0.450,186.111,66.667,358.333,1233.333,150.000,N
498,-0.615,0.910,-0.425,188.889,77.778,366.667,1269.444,36.111,N
499,-0.725,0.915,-0.505,197.222,83.333,383.333,1188.889,80.556,N
500,-0.655,1.075,-0.385,197.222,80.556,361.111,1163.889,25.000,N
501,-0.625,0.885,-0.370,194.444,69.444,352.778,1252.778,88.889,N
502,-0.660,1.120,-0.380,175.000,77.778,375.000,1150.000,102.778,N
503,-0.605,1.080,-0.365,197.222,72.222,361.111,1019.444,130.556,N
504,-0.695,1.065,-0.345,197.222,72.222,377.778,1038.889,19.444,N
505,-0.725,1.110,-0.330,177.778,83.333,377.778,1083.333,44.444,N
506,-0.695,1.070,-0.325,197.222,75.000,363.889,1225.000,141.667,N
507,-0.620,1.095,-0.345,197.222,83.333,377.778,1444.444,219.444,N
508,-0.610,1.220,-0.385,197.222,80.556,397.222,1305.556,138.889,N
509,-0.610,1.185,-0.365,197.222,75.000,380.556,1383.333,77.778,N
510,-0.655,1.085,-0.490,194.444,75.000,391.667,1258.333,125.000,N
511,-0.635,1.115,-0.370,197.222,66.667,355.556,1230.556,27.778,N
512,-0.665,1.160,-0.385,194.444,80.556,380.556,1322.222,91.667,N
513,-0.660,0.975,-0.490,194.444,75.000,361.111,1252.778,69.444,N
514,-0.650,1.255,-0.340,197.222,83.333,377.778,1119.444,133.333,N
515,-0.635,1.205,-0.345,191.667,69.444,363.889,1080.556,38.889,N
516,-0.655,1.220,-0.365,197.222,80.556,352.778,1013.889,66.667,N
517,-0.750,1.045,-0.440,197.222,77.778,366.667,1016.667,2.778,N
518,-0.750,1.205,-0.390,197.222,69.444,355.556,1072.222,55.556,N
519,-0.735,1.105,-0.450,197.222,83.333,386.111,1391.667,319.444,N
520,-0.680,1.110,-0.510,197.222,77.778,363.889,1277.778,113.889,N
521,-0.695,1.230,-0.370,197.222,75.000,386.111,1338.889,61.111,N
522,-0.620,1.110,-0.425,197.222,77.778,377.778,1341.667,2.778,N
523,-0.740,0.950,-0.525,180.556,80.556,391.667,1247.222,94.444,N
524,-0.695,1.020,-0.485,197.222,80.556,388.889,1241.667,5.556,N
525,-0.780,0.960,-0.505,191.667,86.111,405.556,1155.556,86.111,N
526,-0.705,1.080,-0.345,197.222,83.333,383.333,1261.111,105.556,N
527,-0.650,0.990,-0.370,191.667,63.889,380.556,1280.556,19.444,N
528,-0.665,1.065,-0.320,197.222,80.556,380.556,1188.889,91.667,N
529,-0.605,1.120,-0.320,191.667,83.333,383.333,1269.444,80.556,N
530,-0.635,1.015,-0.445,197.222,80.556,386.111,1252.778,16.667,N
531,-0.695,1.030,-0.375,194.444,83.333,383.333,1183.333,69.444,N
532,-0.670,0.830,-0.385,188.889,61.111,352.778,1208.333,25.000,N
533,-0.765,0.915,-0.535,188.889,80.556,375.000,1191.667,16.667,N
534,-0.740,0.980,-0.395,197.222,83.333,386.111,1163.889,27.778,N
535,-0.715,0.955,-0.475,194.444,72.222,350.000,1255.556,91.667,N
536,-0.745,0.885,-0.485,191.667,77.778,361.111,1155.556,100.000,N
537,-0.620,0.930,-0.335,194.444,75.000,380.556,1147.222,8.333,N
538,-0.705,0.875,-0.470,186.111,86.111,380.556,1319.444,172.222,N
539,-0.760,0.935,-0.525,194.444,83.333,372.222,1133.333,186.111,N
540,-0.820,0.990,-0.475,197.222,77.778,386.111,1188.889,55.556,N
541,-0.805,0.720,-0.530,197.222,72.222,372.222,1294.444,105.556,N
542,-0.830,0.910,-0.555,180.556,80.556,400.000,1152.778,141.667,N
543,-0.720,1.050,-0.415,197.222,77.778,380.556,1186.111,33.333,N
544,-0.765,0.755,-0.515,197.222,86.111,380.556,1244.444,58.333,N
545,-0.790,0.950,-0.560,197.222,77.778,369.444,1202.778,41.667,N
546,-0.720,0.880,-0.450,197.222,77.778,386.111,1152.778,50.000,N
547,-0.780,0.710,-0.495,183.333,83.333,375.000,1283.333,130.556,N
548,-0.770,0.840,-0.585,197.222,77.778,380.556,1219.444,63.889,N
549,-0.735,0.930,-0.470,197.222,69.444,355.556,1127.778,91.667,N
550,-0.750,0.895,-0.455,194.444,72.222,383.333,1236.111,108.333,N
551,-0.825,0.800,-0.580,197.222,83.333,380.556,1244.444,8.333,N
552,-0.745,1.010,-0.440,197.222,75.000,380.556,1125.000,119.444,N
553,-0.790,0.995,-0.465,194.444,66.667,375.000,1263.889,138.889,N
554,-0.790,0.955,-0.565,197.222,80.556,386.111,1247.222,16.667,N
555,-0.765,1.005,-0.430,197.222,86.111,388.889,1130.556,116.667,N
556,-0.685,1.040,-0.365,194.444,83.333,388.889,1200.000,69.444,N
557,-0.705,0.960,-0.485,197.222,75.000,377.778,1236.111,36.111,N
558,-0.715,1.060,-0.360,197.222,86.111,377.778,1141.667,94.444,N
559,-0.670,1.110,-0.310,191.667,83.333,386.111,1169.444,27.778,N
560,-0.700,1.035,-0.420,191.667,77.778,369.444,1069.444,100.000,N
561,-0.725,1.105,-0.400,197.222,83.333,375.000,1044.444,25.000,N
562,-0.685,1.010,-0.395,197.222,86.111,380.556,988.889,55.556,N
563,-0.740,1.005,-0.455,197.222,72.222,361.111,983.333,5.556,N
564,-0.745,1.075,-0.415,194.444,83.333,366.667,963.889,19.444,N
565,-0.735,1.140,-0.395,197.222,75.000,361.111,1002.778,38.889,N
566,-0.745,1.195,-0.270,197.222,83.333,375.000,1055.556,52.778,N
567,-0.670,0.925,-0.435,197.222,86.111,400.000,1372.222,316.667,N
568,-0.645,1.170,-0.345,197.222,83.333,380.556,1358.333,13.889,N
569,-0.705,1.100,-0.480,197.222,80.556,380.556,1358.333,0.000,N
570,-0.710,0.955,-0.545,188.889,83.333,380.556,1213.889,144.444,N
571,-0.720,1.075,-0.435,197.222,83.333,386.111,1225.000,11.111,N
572,-0.680,1.150,-0.430,197.222,80.556,388.889,1327.778,102.778,N
573,-0.720,1.140,-0.475,197.222,80.556,386.111,1205.556,122.222,N
574,-0.695,1.080,-0.400,197.222,86.111,377.778,1216.667,11.111,N
575,-0.750,0.895,-0.495,194.444,75.000,391.667,1305.556,88.889,N
576,-0.780,1.120,-0.535,197.222,72.222,375.000,1175.000,130.556,N
577,-0.685,1.145,-0.385,197.222,77.778,380.556,1297.222,122.222,N
578,-0.745,1.035,-0.490,194.444,83.333,380.556,1358.333,61.111,N
579,-0.685,1.120,-0.440,194.444,69.444,386.111,1136.111,222.222,N
580,-0.715,1.075,-0.365,197.222,75.000,383.333,1283.333,147.222,N
581,-0.700,0.860,-0.505,197.222,86.111,388.889,1300.000,16.667,N
582,-0.725,1.040,-0.405,197.222,75.000,383.333,1163.889,136.111,N
583,-0.710,0.940,-0.415,197.222,75.000,377.778,1269.444,105.556,N
584,-0.750,0.870,-0.545,191.667,72.222,386.111,1361.111,91.667,N
585,-0.740,1.145,-0.410,194.444,77.778,358.333,1177.778,183.333,N
586,-0.680,0.975,-0.400,188.889,83.333,372.222,1280.556,102.778,N
587,-0.745,0.885,-0.525,194.444,83.333,358.333,1222.222,58.333,N
588,-0.705,0.960,-0.340,197.222,86.111,380.556,1169.444,52.778,N
589,-0.650,1.020,-0.360,197.222,83.333,380.556,1236.111,66.667,N
590,-0.750,0.955,-0.530,177.778,86.111,402.778,1205.556,30.556,N
591,-0.720,1.085,-0.395,197.222,83.333,377.778,1127.778,77.778,N
592,-0.765,0.975,-0.425,197.222,86.111,405.556,1236.111,108.333,N
593,-0.730,0.925,-0.500,197.222,72.222,377.778,1225.000,11.111,N
594,-0.700,0.980,-0.340,197.222,83.333,383.333,1136.111,88.889,N
595,-0.625,0.925,-0.335,191.667,72.222,358.333,1286.111,150.000,N
596,-0.690,0.960,-0.505,197.222,80.556,380.556,1252.778,33.333,N
597,-0.715,0.945,-0.425,191.667,80.556,375.000,1138.889,113.889,N
598,-0.745,0.975,-0.400,197.222,80.556,375.000,1200.000,61.111,N
599,-0.745,0.870,-0.515,197.222,83.333,386.111,1291.667,91.667,N
600,-0.695,1.100,-0.385,197.222,72.222,355.556,1161.111,130.556,N
601,-0.690,0.995,-0.395,191.667,83.333,377.778,1288.889,127.778,N
602,-0.740,0.980,-0.515,197.222,83.333,386.111,1225.000,63.889,N
603,-0.695,1.000,-0.340,197.222,86.111,386.111,1133.333,91.667,N
604,-0.665,0.960,-0.405,197.222,75.000,386.111,1258.333,125.000,N
605,-0.720,1.010,-0.510,197.222,69.444,358.333,1158.333,100.000,N
606,-0.690,1.155,-0.340,197.222,83.333,388.889,1111.111,47.222,N
607,-0.640,1.045,-0.390,197.222,72.222,380.556,1194.444,83.333,N
608,-0.735,1.005,-0.490,197.222,83.333,380.556,1116.667,77.778,N
609,-0.710,1.090,-0.385,194.444,63.889,358.333,1077.778,38.889,N
610,-0.660,0.945,-0.400,194.444,72.222,380.556,1177.778,100.000,N
611,-0.755,0.900,-0.515,194.444,83.333,383.333,1147.222,30.556,N
612,-0.775,1.075,-0.445,175.000,80.556,383.333,1133.333,13.889,N
613,-0.735,0.925,-0.340,194.444,69.444,350.000,1216.667,83.333,N
614,-0.715,0.980,-0.525,197.222,75.000,380.556,1208.333,8.333,N
615,-0.730,1.015,-0.465,197.222,69.444,355.556,1127.778,80.556,N
616,-0.775,0.990,-0.430,188.889,83.333,377.778,1291.667,163.889,N
617,-0.770,0.890,-0.515,191.667,80.556,383.333,1252.778,38.889,N
618,-0.775,1.010,-0.435,183.333,83.333,388.889,1177.778,75.000,N
619,-0.715,0.890,-0.430,194.444,72.222,380.556,1316.667,138.889,N
620,-0.795,0.930,-0.520,172.222,83.333,386.111,1277.778,38.889,N
621,-0.710,0.945,-0.410,188.889,86.111,377.778,1141.667,136.111,N
622,-0.670,1.060,-0.360,197.222,75.000,386.111,1250.000,108.333,N
623,-0.650,0.870,-0.495,194.444,72.222,352.778,1194.444,55.556,N
624,-0.705,0.945,-0.405,197.222,83.333,405.556,1125.000,69.444,N
625,-0.690,0.895,-0.410,197.222,77.778,383.333,1219.444,94.444,N
626,-0.785,0.725,-0.575,191.667,75.000,380.556,1200.000,19.444,N
627,-0.760,0.905,-0.490,197.222,80.556,375.000,1116.667,83.333,N
628,-0.760,0.780,-0.450,194.444,83.333,380.556,1225.000,108.333,N
629,-0.760,0.630,-0.490,191.667,63.889,352.778,1347.222,122.222,N
630,-0.745,0.925,-0.525,197.222,83.333,377.778,1155.556,191.667,N
631,-0.725,0.920,-0.420,197.222,72.222,375.000,1225.000,69.444,N
632,-0.730,0.825,-0.495,197.222,75.000,358.333,1261.111,36.111,N
633,-0.820,0.825,-0.615,197.222,80.556,369.444,1194.444,66.667,N
634,-0.770,0.905,-0.440,197.222,75.000,380.556,1111.111,83.333,N
635,-0.700,0.945,-0.385,197.222,80.556,388.889,1269.444,158.333,N
636,-0.705,0.910,-0.465,197.222,83.333,380.556,1180.556,88.889,N
637,-0.650,1.020,-0.405,191.667,69.444,377.778,980.556,200.000,N
638,-0.660,1.115,-0.350,188.889,80.556,375.000,1019.444,38.889,N
639,-0.635,1.175,-0.325,194.444,77.778,361.111,952.778,66.667,N
640,-0.660,1.205,-0.305,197.222,80.556,383.333,941.667,11.111,N
641,-0.685,1.050,-0.315,197.222,83.333,372.222,975.000,33.333,N
642,-0.665,1.140,-0.280,197.222,83.333,380.556,994.444,19.444,N
643,-0.515,1.165,-0.300,197.222,83.333,386.111,1327.778,333.333,N
644,-0.655,1.050,-0.350,191.667,83.333,358.333,1069.444,258.333,N
645,-0.730,1.065,-0.455,197.222,83.333,383.333,1072.222,2.778,N
646,-0.695,1.145,-0.325,197.222,86.111,380.556,1102.778,30.556,N
647,-0.600,1.230,-0.315,194.444,63.889,383.333,1244.444,141.667,N
648,-0.670,1.010,-0.600,188.889,69.444,361.111,1269.444,25.000,N
649,-0.770,1.130,-0.505,197.222,83.333,383.333,1188.889,80.556,N
650,-0.760,1.165,-0.490,191.667,75.000,377.778,1258.333,69.444,N
651,-0.730,1.010,-0.505,194.444,86.111,405.556,1216.667,41.667,N
652,-0.705,1.120,-0.515,191.667,75.000,383.333,1180.556,36.111,N
653,-0.720,1.145,-0.420,191.667,66.667,355.556,1225.000,44.444,N
654,-0.750,1.000,-0.505,188.889,77.778,375.000,1283.333,58.333,N
655,-0.755,1.150,-0.520,197.222,72.222,377.778,1161.111,122.222,N
656,-0.680,1.055,-0.360,194.444,80.556,366.667,1358.333,197.222,N
657,-0.625,1.110,-0.445,194.444,72.222,372.222,1375.000,16.667,N
658,-0.665,1.230,-0.475,194.444,66.667,352.778,1261.111,113.889,N
659,-0.615,1.185,-0.305,194.444,83.333,372.222,1358.333,97.222,N
660,-0.560,1.095,-0.390,194.444,72.222,377.778,1313.889,44.444,N
661,-0.680,1.090,-0.495,197.222,86.111,383.333,1283.333,30.556,N
662,-0.610,1.185,-0.345,197.222,75.000,377.778,1319.444,36.111,N
663,-0.600,1.060,-0.325,188.889,83.333,375.000,1286.111,33.333,N
664,-0.585,1.215,-0.465,197.222,80.556,386.111,1280.556,5.556,N
665,-0.615,1.160,-0.315,197.222,83.333,377.778,1219.444,61.111,N
666,-0.560,1.125,-0.360,194.444,66.667,361.111,1311.111,91.667,N
667,-0.610,1.220,-0.450,197.222,80.556,380.556,1216.667,94.444,N
668,-0.630,1.130,-0.310,197.222,80.556,377.778,1308.333,91.667,N
669,-0.625,1.000,-0.390,191.667,83.333,380.556,1297.222,11.111,N
670,-0.710,1.100,-0.475,197.222,83.333,383.333,1200.000,97.222,N
671,-0.730,1.040,-0.365,197.222,83.333,386.111,1200.000,0.000,N
672,-0.650,0.935,-0.335,197.222,69.444,361.111,1280.556,80.556,N
673,-0.635,0.955,-0.445,194.444,61.111,352.778,1133.333,147.222,N
674,-0.645,1.165,-0.325,197.222,80.556,391.667,1113.889,19.444,N
675,-0.640,0.950,-0.355,186.111,83.333,372.222,1083.333,30.556,N
676,-0.650,1.155,-0.400,188.889,66.667,358.333,969.444,113.889,N
677,-0.670,1.175,-0.350,197.222,83.333,383.333,988.889,19.444,N
678,-0.690,1.100,-0.300,197.222,83.333,375.000,975.000,13.889,N
679,-0.635,1.155,-0.325,197.222,77.778,375.000,952.778,22.222,N
680,-0.660,1.185,-0.275,197.222,83.333,375.000,1047.222,94.444,N
681,-0.630,1.010,-0.390,194.444,75.000,388.889,1477.778,430.556,N
682,-0.645,1.120,-0.390,183.333,83.333,380.556,1394.444,83.333,N
683,-0.620,1.075,-0.355,197.222,80.556,386.111,1422.222,27.778,N
684,-0.585,1.110,-0.445,197.222,72.222,383.333,1327.778,94.444,N
685,-0.575,1.155,-0.360,197.222,80.556,386.111,1236.111,91.667,N
686,-0.555,1.060,-0.335,197.222,75.000,383.333,1291.667,55.556,N
687,-0.575,1.130,-0.500,197.222,86.111,383.333,1247.222,44.444,N
688,-0.645,1.100,-0.350,197.222,83.333,383.333,1216.667,30.556,N
689,-0.580,1.095,-0.360,191.667,83.333,400.000,1266.667,50.000,N
690,-0.640,1.225,-0.500,197.222,83.333,386.111,1191.667,75.000,N
691,-0.645,1.215,-0.340,197.222,75.000,377.778,1186.111,5.556,N
692,-0.645,0.990,-0.415,197.222,83.333,380.556,1347.222,161.111,N
693,-0.660,1.285,-0.500,197.222,83.333,380.556,1200.000,147.222,N
694,-0.665,1.235,-0.380,194.444,83.333,383.333,1333.333,133.333,N
695,-0.590,1.090,-0.410,194.444,75.000,386.111,1327.778,5.556,N
696,-0.615,1.250,-0.455,191.667,72.222,361.111,1255.556,72.222,N
697,-0.605,1.310,-0.295,194.444,75.000,366.667,1241.667,13.889,N
698,-0.585,1.170,-0.365,194.444,77.778,380.556,1302.778,61.111,N
699,-0.620,1.160,-0.370,197.222,86.111,383.333,1180.556,122.222,N
700,-0.625,1.135,-0.320,188.889,66.667,352.778,1311.111,130.556,N
701,-0.665,0.900,-0.450,197.222,86.111,386.111,1255.556,55.556,N
702,-0.725,1.025,-0.490,188.889,63.889,355.556,1144.444,111.111,N
703,-0.680,1.095,-0.315,197.222,83.333,380.556,1225.000,80.556,N
704,-0.690,1.005,-0.420,191.667,69.444,352.778,1244.444,19.444,N
705,-0.675,1.145,-0.405,197.222,77.778,383.333,1111.111,133.333,N
706,-0.700,0.985,-0.330,197.222,86.111,383.333,1213.889,102.778,N
707,-0.695,0.890,-0.495,197.222,77.778,386.111,1219.444,5.556,N
708,-0.795,1.045,-0.495,177.778,83.333,383.333,1150.000,69.444,N
709,-0.785,0.960,-0.420,197.222,80.556,383.333,1297.222,147.222,N
710,-0.705,0.975,-0.440,194.444,83.333,394.444,1283.333,13.889,N
711,-0.680,1.155,-0.440,197.222,83.333,383.333,1213.889,69.444,N
712,-0.660,1.145,-0.330,197.222,72.222,377.778,1261.111,47.222,N
713,-0.640,0.980,-0.355,197.222,77.778,380.556,1305.556,44.444,N
714,-0.650,1.155,-0.415,197.222,77.778,383.333,1169.444,136.111,N
715,-0.620,1.005,-0.310,191.667,83.333,402.778,1213.889,44.444,N
716,-0.555,0.925,-0.345,188.889,83.333,377.778,1200.000,13.889,N
717,-0.615,1.010,-0.455,194.444,69.444,355.556,1138.889,61.111,N
718,-0.610,1.185,-0.315,197.222,75.000,380.556,1108.333,30.556,N
719,-0.665,0.880,-0.355,197.222,86.111,380.556,1250.000,141.667,N
720,-0.680,0.945,-0.465,194.444,72.222,366.667,1283.333,33.333,N
721,-0.695,0.930,-0.425,186.111,66.667,352.778,1161.111,122.222,N
722,-0.695,0.885,-0.415,197.222,75.000,361.111,1041.667,119.444,N
723,-0.735,0.965,-0.440,197.222,86.111,386.111,983.333,58.333,N
724,-0.715,1.055,-0.390,197.222,80.556,375.000,997.222,13.889,N
725,-0.780,0.890,-0.430,191.667,80.556,372.222,1047.222,50.000,N
726,-0.790,0.875,-0.435,197.222,83.333,377.778,1230.556,183.333,N
727,-0.770,1.010,-0.435,188.889,61.111,350.000,1138.889,91.667,N
728,-0.710,1.030,-0.420,194.444,66.667,369.444,1302.778,163.889,N
729,-0.745,0.895,-0.540,197.222,80.556,380.556,1316.667,13.889,N
730,-0.735,1.090,-0.455,197.222,83.333,388.889,1094.444,222.222,N
731,-0.705,0.865,-0.470,194.444,66.667,380.556,1158.333,63.889,N
732,-0.765,0.835,-0.605,191.667,86.111,402.778,1161.111,2.778,N
733,-0.760,1.010,-0.480,197.222,83.333,383.333,1083.333,77.778,N
734,-0.795,0.910,-0.455,197.222,83.333,386.111,1144.444,61.111,N
735,-0.760,0.885,-0.610,194.444,75.000,361.111,1177.778,33.333,N
736,-0.745,1.115,-0.435,197.222,75.000,352.778,1113.889,63.889,N
737,-0.725,1.120,-0.420,194.444,83.333,377.778,1252.778,138.889,N
738,-0.755,0.975,-0.585,194.444,86.111,380.556,1219.444,33.333,N
739,-0.750,1.195,-0.435,197.222,72.222,383.333,1116.667,102.778,N
740,-0.725,1.210,-0.370,197.222,83.333,380.556,1291.667,175.000,N
741,-0.750,1.145,-0.525,197.222,83.333,402.778,1266.667,25.000,N
742,-0.760,1.190,-0.440,197.222,83.333,388.889,1158.333,108.333,N
743,-0.755,1.200,-0.415,191.667,83.333,394.444,1250.000,91.667,N
744,-0.760,1.055,-0.560,191.667,83.333,383.333,1252.778,2.778,N
745,-0.775,1.370,-0.340,175.000,83.333,377.778,1141.667,111.111,N
746,-0.665,1.200,-0.325,194.444,75.000,380.556,1291.667,150.000,N
747,-0.710,1.260,-0.550,191.667,80.556,397.222,1222.222,69.444,N
748,-0.760,1.205,-0.340,197.222,83.333,372.222,1191.667,30.556,N
749,-0.690,1.205,-0.280,186.111,77.778,380.556,1258.333,66.667,N
750,-0.650,1.305,-0.400,197.222,83.333,388.889,1233.333,25.000,N
751,-0.640,1.320,-0.260,197.222,80.556,375.000,1177.778,55.556,N
752,-0.595,1.240,-0.325,197.222,75.000,366.667,1375.000,197.222,N
753,-0.715,1.105,-0.495,197.222,83.333,380.556,1250.000,125.000,N
754,-0.640,1.095,-0.340,197.222,77.778,377.778,1305.556,55.556,N
755,-0.645,1.090,-0.375,191.667,80.556,369.444,1305.556,0.000,N
756,-0.655,0.995,-0.535,197.222,75.000,366.667,1219.444,86.111,N
757,-0.660,1.055,-0.380,197.222,63.889,355.556,1188.889,30.556,N
758,-0.690,1.055,-0.430,197.222,69.444,355.556,1375.000,186.111,N
759,-0.685,1.035,-0.530,197.222,83.333,380.556,1250.000,125.000,N
760,-0.745,1.050,-0.445,188.889,77.778,391.667,1144.444,105.556,N
761,-0.705,1.010,-0.410,197.222,80.556,377.778,1325.000,180.556,N
762,-0.695,0.920,-0.595,197.222,75.000,383.333,1286.111,38.889,N
763,-0.740,1.070,-0.470,197.222,75.000,358.333,1166.667,119.444,N
764,-0.770,0.935,-0.470,180.556,83.333,400.000,1258.333,91.667,N
765,-0.755,0.800,-0.580,194.444,75.000,377.778,1211.111,47.222,N
766,-0.750,0.915,-0.445,197.222,86.111,386.111,1083.333,127.778,N
767,-0.725,0.995,-0.425,191.667,77.778,375.000,1200.000,116.667,N
768,-0.755,0.950,-0.575,186.111,80.556,388.889,1186.111,13.889,N
769,-0.740,1.070,-0.445,197.222,66.667,352.778,1133.333,52.778,N
770,-0.690,1.015,-0.370,194.444,66.667,372.222,1266.667,133.333,N
771,-0.655,1.040,-0.430,197.222,63.889,347.222,1230.556,36.111,N
772,-0.580,1.230,-0.315,197.222,83.333,366.667,1172.222,58.333,N
773,-0.585,1.020,-0.285,197.222,72.222,361.111,1297.222,125.000,N
774,-0.650,1.095,-0.470,197.222,72.222,355.556,1172.222,125.000,N
775,-0.680,1.230,-0.350,197.222,83.333,380.556,1119.444,52.778,N
776,-0.650,1.130,-0.345,197.222,80.556,377.778,1230.556,111.111,N
777,-0.655,1.140,-0.445,197.222,72.222,383.333,1186.111,44.444,N
778,-0.665,1.250,-0.345,194.444,83.333,372.222,1125.000,61.111,N
779,-0.655,1.150,-0.325,197.222,75.000,388.889,1272.222,147.222,N
780,-0.680,1.110,-0.460,194.444,86.111,400.000,1258.333,13.889,N
781,-0.600,1.355,-0.300,197.222,72.222,377.778,1147.222,111.111,N
782,-0.620,1.205,-0.305,197.222,75.000,380.556,1308.333,161.111,N
783,-0.635,1.260,-0.460,197.222,83.333,383.333,1311.111,2.778,N
784,-0.625,1.330,-0.315,188.889,83.333,383.333,1202.778,108.333,N
785,-0.615,1.190,-0.320,194.444,80.556,388.889,1283.333,80.556,N
786,-0.645,1.055,-0.435,194.444,72.222,386.111,1294.444,11.111,N
787,-0.690,1.210,-0.440,191.667,77.778,361.111,1172.222,122.222,N
788,-0.705,1.255,-0.405,197.222,77.778,377.778,1308.333,136.111,N
789,-0.715,1.050,-0.450,197.222,72.222,380.556,1258.333,50.000,N
790,-0.785,1.125,-0.535,197.222,86.111,380.556,1122.222,136.111,N
791,-0.720,1.095,-0.380,197.222,72.222,355.556,1211.111,88.889,N
792,-0.675,1.095,-0.360,197.222,77.778,386.111,1311.111,100.000,N
793,-0.630,1.240,-0.450,197.222,69.444,350.000,1161.111,150.000,N
794,-0.645,1.200,-0.265,197.222,77.778,375.000,1138.889,22.222,N
795,-0.570,1.130,-0.320,194.444,75.000,369.444,1227.778,88.889,N
796,-0.635,1.220,-0.415,197.222,72.222,380.556,1169.444,58.333,N
797,-0.650,1.190,-0.300,197.222,66.667,355.556,1127.778,41.667,N
798,-0.645,1.075,-0.330,197.222,83.333,400.000,1272.222,144.444,N
799,-0.630,1.205,-0.450,197.222,80.556,383.333,1247.222,25.000,N
800,-0.615,1.075,-0.330,197.222,83.333,400.000,1116.667,130.556,N
801,-0.590,1.015,-0.355,188.889,72.222,386.111,1269.444,152.778,N
802,-0.660,0.980,-0.470,197.222,80.556,386.111,1211.111,58.333,N
803,-0.700,1.070,-0.475,194.444,83.333,380.556,1108.333,102.778,N
804,-0.740,0.900,-0.415,197.222,83.333,375.000,1136.111,27.778,N
805,-0.720,0.785,-0.425,197.222,86.111,377.778,1169.444,33.333,N
806,-0.725,0.990,-0.530,197.222,80.556,375.000,1069.444,100.000,N
807,-0.730,1.075,-0.385,175.000,86.111,383.333,1063.889,5.556,N
808,-0.660,0.885,-0.320,197.222,83.333,380.556,1169.444,105.556,N
809,-0.635,0.895,-0.500,197.222,86.111,402.778,1175.000,5.556,N
810,-0.720,1.065,-0.395,197.222,80.556,377.778,1088.889,86.111,N
811,-0.730,0.930,-0.430,194.444,83.333,380.556,1241.667,152.778,N
812,-0.740,0.885,-0.500,191.667,61.111,352.778,1272.222,30.556,N
813,-0.700,0.990,-0.450,197.222,77.778,375.000,1152.778,119.444,N
814,-0.700,0.975,-0.400,197.222,83.333,380.556,1275.000,122.222,N
815,-0.695,0.895,-0.450,197.222,80.556,380.556,1297.222,22.222,N
816,-0.700,0.945,-0.425,197.222,77.778,380.556,1163.889,133.333,N
817,-0.660,0.900,-0.350,191.667,63.889,355.556,1283.333,119.444,N
818,-0.630,0.925,-0.460,197.222,66.667,375.000,1308.333,25.000,N
819,-0.610,1.050,-0.365,197.222,77.778,361.111,1136.111,172.222,N
820,-0.610,0.980,-0.325,194.444,72.222,383.333,1263.889,127.778,N
821,-0.660,0.885,-0.470,197.222,66.667,380.556,1269.444,5.556,N
822,-0.695,0.990,-0.445,194.444,77.778,388.889,1100.000,169.444,N
823,-0.650,1.015,-0.320,197.222,80.556,363.889,1169.444,69.444,N
824,-0.680,1.020,-0.390,197.222,77.778,383.333,1241.667,72.222,N
825,-0.650,1.145,-0.395,197.222,75.000,386.111,1127.778,113.889,N
826,-0.610,1.290,-0.290,194.444,75.000,386.111,1233.333,105.556,N
827,-0.620,0.965,-0.305,197.222,83.333,386.111,1311.111,77.778,N
828,-0.600,1.195,-0.365,197.222,86.111,402.778,1147.222,163.889,N
829,-0.575,1.240,-0.235,197.222,86.111,380.556,1194.444,47.222,N
830,-0.540,1.220,-0.255,197.222,83.333,386.111,1227.778,33.333,N
831,-0.530,1.335,-0.395,197.222,75.000,383.333,1227.778,0.000,N
832,-0.605,1.285,-0.215,194.444,69.444,355.556,1161.111,66.667,N
833,-0.540,1.190,-0.265,194.444,72.222,377.778,1275.000,113.889,N
834,-0.595,1.140,-0.400,194.444,86.111,386.111,1250.000,25.000,N
835,-0.630,1.380,-0.340,197.222,77.778,377.778,1158.333,91.667,N
836,-0.670,1.135,-0.305,197.222,86.111,383.333,1272.222,113.889,N
837,-0.745,1.085,-0.390,197.222,86.111,383.333,1272.222,0.000,N
838,-0.660,1.445,-0.380,197.222,72.222,383.333,1119.444,152.778,N
839,-0.595,1.290,-0.255,197.222,83.333,391.667,1172.222,52.778,N
840,-0.660,1.130,-0.375,197.222,72.222,377.778,1188.889,16.667,N
841,-0.685,1.330,-0.470,197.222,83.333,386.111,1113.889,75.000,N
842,-0.645,1.200,-0.285,197.222,83.333,380.556,1138.889,25.000,N
843,-0.630,1.325,-0.315,197.222,83.333,377.778,1205.556,66.667,N
844,-0.685,1.130,-0.475,197.222,86.111,383.333,1163.889,41.667,N
845,-0.680,1.280,-0.375,197.222,75.000,358.333,1086.111,77.778,N
846,-0.695,1.210,-0.365,197.222,75.000,383.333,1136.111,50.000,N
847,-0.695,1.050,-0.500,191.667,86.111,377.778,1161.111,25.000,N
848,-0.740,1.170,-0.435,197.222,83.333,380.556,1094.444,66.667,N
849,-0.685,1.060,-0.335,191.667,80.556,369.444,1238.889,144.444,N
850,-0.625,1.135,-0.340,194.444,83.333,388.889,1325.000,86.111,N
851,-0.665,1.220,-0.395,177.778,83.333,380.556,1236.111,88.889,N
852,-0.615,1.190,-0.385,197.222,69.444,372.222,1250.000,13.889,N
853,-0.715,0.955,-0.450,197.222,83.333,377.778,1250.000,0.000,N
854,-0.760,1.190,-0.465,197.222,80.556,383.333,1130.556,119.444,N
855,-0.635,1.170,-0.335,197.222,83.333,372.222,1222.222,91.667,N
856,-0.640,0.975,-0.370,197.222,83.333,380.556,1222.222,0.000,N
857,-0.755,1.055,-0.555,194.444,86.111,394.444,1147.222,75.000,N
858,-0.745,1.110,-0.440,191.667,83.333,386.111,1127.778,19.444,N
859,-0.720,0.955,-0.420,197.222,83.333,388.889,1180.556,52.778,N
860,-0.785,0.990,-0.540,186.111,58.333,352.778,1186.111,5.556,N
861,-0.730,1.155,-0.405,197.222,83.333,388.889,1119.444,66.667,N
862,-0.730,1.060,-0.365,194.444,83.333,383.333,1244.444,125.000,N
863,-0.690,1.015,-0.470,188.889,86.111,386.111,1202.778,41.667,N
864,-0.695,0.965,-0.435,197.222,77.778,380.556,1150.000,52.778,N
865,-0.735,1.050,-0.390,194.444,80.556,372.222,1280.556,130.556,N
866,-0.695,0.910,-0.495,194.444,72.222,352.778,1216.667,63.889,N
867,-0.785,1.155,-0.450,197.222,80.556,377.778,1119.444,97.222,N
868,-0.720,1.140,-0.380,197.222,77.778,377.778,1188.889,69.444,N
869,-0.680,0.920,-0.395,191.667,80.556,380.556,1202.778,13.889,N
870,-0.725,1.275,-0.380,191.667,75.000,383.333,1163.889,38.889,N
871,-0.630,1.345,-0.295,197.222,80.556,380.556,1277.778,113.889,N
872,-0.630,1.205,-0.375,197.222,80.556,386.111,1297.222,19.444,N
873,-0.620,1.270,-0.365,197.222,83.333,377.778,1175.000,122.222,N
874,-0.605,1.250,-0.255,194.444,77.778,383.333,1188.889,13.889,N
875,-0.675,0.995,-0.400,194.444,86.111,377.778,1147.222,41.667,N
876,-0.750,1.115,-0.505,188.889,86.111,375.000,969.444,177.778,N
877,-0.640,1.415,-0.285,194.444,80.556,366.667,1011.111,41.667,N
878,-0.590,1.185,-0.305,197.222,83.333,369.444,963.889,47.222,N
879,-0.605,1.315,-0.340,188.889,86.111,377.778,900.000,63.889,N
880,-0.565,1.300,-0.250,186.111,75.000,358.333,941.667,41.667,N
881,-0.600,1.355,-0.255,197.222,77.778,369.444,936.111,5.556,N
882,-0.675,1.075,-0.345,177.778,86.111,383.333,1080.556,144.444,N
883,-0.695,1.325,-0.290,197.222,86.111,380.556,1108.333,27.778,N
884,-0.550,1.275,-0.260,186.111,83.333,405.556,1433.333,325.000,N
885,-0.600,1.075,-0.540,197.222,83.333,375.000,1369.444,63.889,N
886,-0.615,1.215,-0.375,197.222,83.333,388.889,1288.889,80.556,N
887,-0.640,1.145,-0.495,197.222,80.556,386.111,1372.222,83.333,N
888,-0.655,1.210,-0.615,197.222,69.444,383.333,1350.000,22.222,N
889,-0.595,1.250,-0.405,197.222,75.000,388.889,1302.778,47.222,N
890,-0.645,1.090,-0.495,197.222,83.333,375.000,1358.333,55.556,N
891,-0.705,0.990,-0.595,197.222,83.333,375.000,1236.111,122.222,N
892,-0.600,1.265,-0.355,191.667,69.444,366.667,1236.111,0.000,N
893,-0.560,1.140,-0.440,197.222,66.667,386.111,1233.333,2.778,N
894,-0.720,1.080,-0.460,194.444,75.000,388.889,1102.778,130.556,N
895,-0.655,1.045,-0.340,191.667,86.111,380.556,1163.889,61.111,N
896,-0.660,0.965,-0.405,197.222,80.556,383.333,1188.889,25.000,N
897,-0.755,0.970,-0.440,191.667,83.333,377.778,1111.111,77.778,N
898,-0.580,1.135,-0.300,194.444,83.333,397.222,1175.000,63.889,N
899,-0.610,0.975,-0.445,197.222,77.778,375.000,1172.222,2.778,N
900,-0.630,1.130,-0.365,197.222,80.556,380.556,1108.333,63.889,N
901,-0.650,1.010,-0.360,194.444,77.778,386.111,1302.778,194.444,N
902,-0.635,1.040,-0.465,194.444,75.000,361.111,1188.889,113.889,N
903,-0.665,1.070,-0.330,197.222,77.778,375.000,1147.222,41.667,N
904,-0.650,0.850,-0.350,197.222,86.111,375.000,1275.000,127.778,N
905,-0.705,0.940,-0.530,197.222,83.333,375.000,1327.778,52.778,N
906,-0.705,0.915,-0.350,194.444,83.333,377.778,1177.778,150.000,N
907,-0.670,1.030,-0.385,191.667,83.333,366.667,1377.778,200.000,N
908,-0.685,0.910,-0.505,197.222,80.556,383.333,1316.667,61.111,N
909,-0.690,1.050,-0.350,194.444,75.000,363.889,1216.667,100.000,N
910,-0.585,1.080,-0.330,197.222,69.444,377.778,1272.222,55.556,N
911,-0.665,0.865,-0.470,186.111,66.667,358.333,1258.333,13.889,N
912,-0.655,0.995,-0.340,183.333,86.111,380.556,1130.556,127.778,N
913,-0.615,0.960,-0.355,194.444,86.111,397.222,1341.667,211.111,N
914,-0.690,0.940,-0.545,197.222,83.333,400.000,1294.444,47.222,N
915,-0.710,0.945,-0.435,180.556,83.333,386.111,1161.111,133.333,N
916,-0.655,1.025,-0.415,197.222,83.333,386.111,1294.444,133.333,N
917,-0.705,0.845,-0.555,194.444,72.222,380.556,1188.889,105.556,N
918,-0.710,1.070,-0.405,194.444,83.333,383.333,1119.444,69.444,N
919,-0.715,0.945,-0.415,197.222,69.444,377.778,1250.000,130.556,N
920,-0.685,0.935,-0.510,197.222,80.556,383.333,1205.556,44.444,N
921,-0.750,1.065,-0.420,175.000,80.556,377.778,1077.778,127.778,N
922,-0.690,1.025,-0.375,197.222,86.111,380.556,1272.222,194.444,N
923,-0.735,0.910,-0.470,197.222,83.333,369.444,1236.111,36.111,N
924,-0.770,1.190,-0.450,194.444,63.889,355.556,1038.889,197.222,N
925,-0.695,1.055,-0.315,188.889,86.111,372.222,1000.000,38.889,N
926,-0.675,1.045,-0.355,194.444,83.333,380.556,991.667,8.333,N
927,-0.685,1.240,-0.350,197.222,83.333,372.222,975.000,16.667,N
928,-0.675,1.255,-0.280,197.222,69.444,352.778,977.778,2.778,N
929,-0.770,1.210,-0.415,197.222,80.556,388.889,1108.333,130.556,N
930,-0.800,1.250,-0.370,183.333,83.333,377.778,1150.000,41.667,N
931,-0.685,1.300,-0.390,197.222,83.333,383.333,1491.667,341.667,N
932,-0.745,1.220,-0.600,197.222,83.333,386.111,1369.444,122.222,N
933,-0.700,1.285,-0.400,197.222,86.111,394.444,1355.556,13.889,N
934,-0.560,1.225,-0.430,197.222,72.222,377.778,1369.444,13.889,N
935,-0.675,1.260,-0.525,197.222,75.000,386.111,1291.667,77.778,N
936,-0.675,1.375,-0.455,197.222,83.333,383.333,1319.444,27.778,N
937,-0.750,1.120,-0.625,197.222,86.111,383.333,1263.889,55.556,N
938,-0.810,1.385,-0.555,197.222,83.333,394.444,1158.333,105.556,N
939,-0.705,1.340,-0.395,197.222,77.778,383.333,1230.556,72.222,N
940,-0.710,1.315,-0.505,194.444,69.444,358.333,1200.000,30.556,N
941,-0.770,1.305,-0.405,183.333,86.111,380.556,1125.000,75.000,N
942,-0.720,1.350,-0.400,197.222,83.333,383.333,1291.667,166.667,N
943,-0.705,1.100,-0.565,188.889,69.444,386.111,1180.556,111.111,N
944,-0.740,1.320,-0.405,197.222,86.111,383.333,1061.111,119.444,N
945,-0.695,1.170,-0.330,197.222,69.444,375.000,1119.444,58.333,N
946,-0.670,1.170,-0.415,194.444,83.333,369.444,1261.111,141.667,N
947,-0.680,1.235,-0.430,197.222,75.000,358.333,1136.111,125.000,N
948,-0.740,1.255,-0.345,194.444,86.111,386.111,1275.000,138.889,N
949,-0.605,1.135,-0.400,197.222,83.333,372.222,1419.444,144.444,N
950,-0.690,1.270,-0.520,197.222,80.556,391.667,1247.222,172.222,N
951,-0.695,1.260,-0.400,197.222,77.778,383.333,1202.778,44.444,N
952,-0.745,1.105,-0.485,197.222,77.778,388.889,1297.222,94.444,N
953,-0.765,1.125,-0.555,197.222,83.333,386.111,1175.000,122.222,N
954,-0.785,1.120,-0.450,194.444,80.556,400.000,1186.111,11.111,N
955,-0.790,0.890,-0.510,197.222,83.333,380.556,1188.889,2.778,N
956,-0.795,1.100,-0.550,197.222,72.222,383.333,1058.333,130.556,N
957,-0.770,1.015,-0.370,188.889,83.333,383.333,1144.444,86.111,N
958,-0.715,0.840,-0.475,194.444,83.333,388.889,1361.111,216.667,N
959,-0.755,0.870,-0.625,188.889,86.111,383.333,1277.778,83.333,N
960,-0.735,0.930,-0.420,191.667,69.444,380.556,1208.333,69.444,N
961,-0.655,0.945,-0.400,191.667,86.111,383.333,1294.444,86.111,N
962,-0.675,0.920,-0.545,191.667,72.222,363.889,1205.556,88.889,N
963,-0.700,0.995,-0.360,194.444,86.111,375.000,1127.778,77.778,N
964,-0.700,0.885,-0.405,197.222,86.111,380.556,1200.000,72.222,N
965,-0.740,1.025,-0.570,197.222,83.333,383.333,1261.111,61.111,N
966,-0.730,0.965,-0.435,197.222,77.778,383.333,1127.778,133.333,N
967,-0.765,0.900,-0.530,194.444,86.111,380.556,1316.667,188.889,N
968,-0.870,1.010,-0.595,183.333,72.222,361.111,1175.000,141.667,N
969,-0.765,0.945,-0.475,197.222,69.444,377.778,1202.778,27.778,N
970,-0.785,0.875,-0.535,188.889,83.333,377.778,1294.444,91.667,N
971,-0.835,0.925,-0.635,197.222,86.111,386.111,1186.111,108.333,N
972,-0.770,1.070,-0.430,197.222,86.111,383.333,1208.333,22.222,N
973,-0.775,0.910,-0.480,197.222,86.111,405.556,1236.111,27.778,N
974,-0.800,0.945,-0.635,197.222,75.000,380.556,1158.333,77.778,N
975,-0.795,0.905,-0.450,186.111,86.111,383.333,1075.000,83.333,N
976,-0.755,1.060,-0.445,191.667,80.556,380.556,1175.000,100.000,N
977,-0.785,0.935,-0.570,194.444,80.556,386.111,1258.333,83.333,N
978,-0.765,0.995,-0.430,197.222,77.778,380.556,1161.111,97.222,N
979,-0.660,0.945,-0.415,191.667,77.778,383.333,1227.778,66.667,N
980,-0.735,0.935,-0.525,197.222,83.333,380.556,1255.556,27.778,N
981,-0.775,0.950,-0.570,194.444,86.111,369.444,1141.667,113.889,N
982,-0.810,0.970,-0.465,175.000,83.333,380.556,1150.000,8.333,N
983,-0.800,0.920,-0.525,197.222,83.333,375.000,1177.778,27.778,N
984,-0.860,0.895,-0.625,191.667,69.444,386.111,1138.889,38.889,N
985,-0.755,1.055,-0.475,197.222,80.556,383.333,1080.556,58.333,N
986,-0.755,0.875,-0.455,197.222,75.000,383.333,1166.667,86.111,N
987,-0.740,0.950,-0.555,194.444,75.000,377.778,1163.889,2.778,N
988,-0.725,1.100,-0.400,194.444,66.667,347.222,1061.111,102.778,N
989,-0.690,0.885,-0.400,197.222,72.222,363.889,1202.778,141.667,N
990,-0.725,0.915,-0.480,197.222,80.556,383.333,1213.889,11.111,N
991,-0.765,1.090,-0.410,180.556,83.333,380.556,1111.111,102.778,N
992,-0.670,1.025,-0.355,197.222,83.333,380.556,1191.667,80.556,N
993,-0.750,1.015,-0.480,197.222,77.778,380.556,1263.889,72.222,N
994,-0.755,1.155,-0.475,175.000,80.556,380.556,1102.778,161.111,N
995,-0.765,0.925,-0.400,197.222,83.333,383.333,1169.444,66.667,N
996,-0.740,0.765,-0.435,197.222,83.333,377.778,1069.444,100.000,N
997,-0.715,1.140,-0.495,197.222,83.333,380.556,969.444,100.000,N
998,-0.710,1.070,-0.465,194.444,72.222,358.333,980.556,11.111,N
999,-0.775,0.935,-0.435,197.222,86.111,380.556,983.333,2.778,N
1000,-0.720,1.075,-0.390,197.222,75.000,380.556,955.556,27.778,N
1001,-0.740,1.085,-0.285,177.778,80.556,377.778,1183.333,227.778,N
1002,-0.570,0.980,-0.395,197.222,83.333,394.444,1447.222,263.889,N
1003,-0.545,1.115,-0.285,197.222,86.111,386.111,1350.000,97.222,N
1004,-0.555,1.155,-0.330,197.222,83.333,402.778,1377.778,27.778,N
1005,-0.570,1.185,-0.520,197.222,80.556,380.556,1325.000,52.778,N
1006,-0.640,1.150,-0.385,197.222,77.778,386.111,1227.778,97.222,N
1007,-0.605,1.030,-0.430,197.222,72.222,380.556,1330.556,102.778,N
1008,-0.680,1.140,-0.555,194.444,80.556,386.111,1175.000,155.556,N
1009,-0.670,1.190,-0.380,197.222,72.222,363.889,1152.778,22.222,N
1010,-0.615,1.290,-0.345,197.222,75.000,380.556,1211.111,58.333,N
1011,-0.635,1.135,-0.490,191.667,72.222,386.111,1291.667,80.556,N
1012,-0.670,1.220,-0.370,197.222,86.111,377.778,1125.000,166.667,N
1013,-0.640,1.175,-0.365,194.444,72.222,358.333,1283.333,158.333,N
1014,-0.730,0.955,-0.460,191.667,83.333,375.000,1252.778,30.556,N
1015,-0.725,1.330,-0.400,177.778,83.333,375.000,1127.778,125.000,N
1016,-0.595,1.380,-0.315,194.444,66.667,366.667,1216.667,88.889,N
1017,-0.630,1.240,-0.345,197.222,86.111,394.444,1241.667,25.000,N
1018,-0.680,1.290,-0.450,197.222,66.667,383.333,1088.889,152.778,N
1019,-0.650,1.345,-0.285,197.222,83.333,394.444,1144.444,55.556,N
1020,-0.605,1.315,-0.310,197.222,77.778,391.667,1197.222,52.778,N
1021,-0.645,1.370,-0.450,191.667,69.444,380.556,1133.333,63.889,N
1022,-0.660,1.460,-0.265,194.444,72.222,369.444,1136.111,2.778,N
1023,-0.595,1.300,-0.245,194.444,77.778,366.667,1327.778,191.667,N
1024,-0.540,1.365,-0.350,197.222,75.000,377.778,1380.556,52.778,N
1025,-0.595,1.445,-0.195,197.222,83.333,375.000,1213.889,166.667,N
1026,-0.540,1.340,-0.215,197.222,83.333,380.556,1325.000,111.111,N
1027,-0.605,1.275,-0.435,188.889,69.444,352.778,1291.667,33.333,N
1028,-0.670,1.140,-0.360,191.667,83.333,377.778,1186.111,105.556,N
1029,-0.715,1.180,-0.325,197.222,83.333,377.778,1269.444,83.333,N
1030,-0.655,1.185,-0.430,197.222,77.778,383.333,1316.667,47.222,N
1031,-0.675,1.315,-0.315,197.222,83.333,377.778,1113.889,202.778,N
1032,-0.655,1.215,-0.300,183.333,86.111,386.111,1269.444,155.556,N
1033,-0.630,1.115,-0.395,194.444,75.000,380.556,1250.000,19.444,N
1034,-0.735,1.290,-0.390,186.111,83.333,380.556,1119.444,130.556,N
1035,-0.695,1.000,-0.360,191.667,80.556,369.444,1233.333,113.889,N
1036,-0.730,1.030,-0.460,197.222,83.333,402.778,1233.333,0.000,N
1037,-0.750,1.040,-0.555,194.444,72.222,377.778,1119.444,113.889,N
1038,-0.765,1.030,-0.430,191.667,83.333,380.556,1083.333,36.111,N
1039,-0.720,1.050,-0.390,197.222,83.333,386.111,1261.111,177.778,N
1040,-0.710,0.910,-0.530,197.222,86.111,388.889,1294.444,33.333,N
1041,-0.750,1.020,-0.415,197.222,80.556,375.000,1144.444,150.000,N
1042,-0.710,1.030,-0.435,197.222,75.000,386.111,1280.556,136.111,N
1043,-0.740,0.900,-0.530,197.222,86.111,383.333,1280.556,0.000,N
1044,-0.735,1.065,-0.440,197.222,83.333,375.000,1116.667,163.889,N
1045,-0.680,1.050,-0.380,197.222,77.778,386.111,1277.778,161.111,N
1046,-0.705,0.865,-0.550,194.444,72.222,358.333,1261.111,16.667,N
1047,-0.800,1.005,-0.495,197.222,77.778,375.000,1111.111,150.000,N
1048,-0.755,1.030,-0.415,197.222,86.111,383.333,1272.222,161.111,N
1049,-0.755,0.830,-0.500,197.222,86.111,386.111,1233.333,38.889,N
1050,-0.785,1.090,-0.550,197.222,72.222,383.333,1122.222,111.111,N
1051,-0.775,1.135,-0.420,188.889,83.333,402.778,1158.333,36.111,N
1052,-0.720,1.125,-0.385,197.222,80.556,388.889,1316.667,158.333,N
1053,-0.735,1.145,-0.560,197.222,83.333,386.111,1208.333,108.333,N
1054,-0.690,1.105,-0.325,194.444,72.222,377.778,1188.889,19.444,N
1055,-0.590,1.270,-0.285,194.444,77.778,380.556,1244.444,55.556,N
1056,-0.600,1.135,-0.410,194.444,83.333,380.556,1200.000,44.444,N
1057,-0.540,1.385,-0.310,194.444,72.222,383.333,1088.889,111.111,N
1058,-0.565,1.160,-0.275,197.222,69.444,377.778,1202.778,113.889,N
1059,-0.625,1.135,-0.415,188.889,80.556,375.000,1180.556,22.222,N
1060,-0.680,1.205,-0.335,180.556,86.111,377.778,1069.444,111.111,N
1061,-0.590,1.280,-0.275,197.222,80.556,386.111,1155.556,86.111,N
1062,-0.655,1.240,-0.420,197.222,75.000,380.556,1163.889,8.333,N
1063,-0.640,1.300,-0.395,197.222,69.444,375.000,1072.222,91.667,N
1064,-0.625,1.205,-0.290,197.222,77.778,388.889,1102.778,30.556,N
1065,-0.640,1.190,-0.305,194.444,80.556,380.556,1236.111,133.333,N
1066,-0.645,1.260,-0.460,191.667,83.333,386.111,1172.222,63.889,N
1067,-0.665,1.115,-0.315,197.222,83.333,375.000,1141.667,30.556,N
1068,-0.645,1.270,-0.320,194.444,72.222,386.111,1208.333,66.667,N
1069,-0.635,1.080,-0.485,194.444,86.111,375.000,1261.111,52.778,N
1070,-0.645,1.250,-0.320,197.222,77.778,377.778,1125.000,136.111,N
1071,-0.640,1.060,-0.335,197.222,86.111,380.556,1344.444,219.444,N
1072,-0.630,0.960,-0.435,197.222,86.111,377.778,1297.222,47.222,N
1073,-0.695,1.255,-0.465,197.222,75.000,352.778,1150.000,147.222,N
1074,-0.710,1.125,-0.385,197.222,75.000,388.889,1261.111,111.111,N
1075,-0.695,0.910,-0.455,197.222,69.444,361.111,1330.556,69.444,N
1076,-0.700,1.135,-0.500,197.222,63.889,350.000,1205.556,125.000,N
1077,-0.625,1.285,-0.315,197.222,72.222,377.778,1269.444,63.889,N
1078,-0.625,0.985,-0.395,197.222,86.111,375.000,1319.444,50.000,N
1079,-0.730,1.050,-0.565,197.222,83.333,377.778,1208.333,111.111,N
1080,-0.725,1.195,-0.365,197.222,83.333,377.778,1155.556,52.778,N
1081,-0.695,1.085,-0.345,191.667,72.222,386.111,1283.333,127.778,N
1082,-0.700,1.070,-0.560,197.222,77.778,388.889,1263.889,19.444,N
1083,-0.770,1.085,-0.405,186.111,72.222,380.556,1138.889,125.000,N
1084,-0.720,1.090,-0.370,197.222,80.556,386.111,1247.222,108.333,N
1085,-0.700,0.920,-0.535,197.222,86.111,377.778,1244.444,2.778,N
1086,-0.685,1.060,-0.420,197.222,72.222,372.222,1113.889,130.556,N
1087,-0.640,0.995,-0.355,197.222,75.000,380.556,1202.778,88.889,N
1088,-0.680,0.815,-0.430,194.444,75.000,380.556,1205.556,2.778,N
1089,-0.760,1.100,-0.520,197.222,72.222,375.000,1094.444,111.111,N
1090,-0.725,1.070,-0.405,197.222,80.556,383.333,1236.111,141.667,N
1091,-0.690,1.080,-0.450,197.222,80.556,369.444,1258.333,22.222,N
1092,-0.785,0.990,-0.585,197.222,86.111,383.333,1188.889,69.444,N
1093,-0.730,1.055,-0.410,197.222,77.778,383.333,1091.667,97.222,N
1094,-0.690,1.015,-0.435,197.222,66.667,383.333,1222.222,130.556,N
1095,-0.780,0.870,-0.590,197.222,83.333,386.111,1180.556,41.667,N
1096,-0.755,1.140,-0.410,197.222,77.778,386.111,1105.556,75.000,N
1097,-0.655,0.975,-0.350,194.444,75.000,388.889,1219.444,113.889,N
1098,-0.705,1.050,-0.495,197.222,83.333,380.556,1250.000,30.556,N
1099,-0.710,1.055,-0.485,197.222,75.000,380.556,1127.778,122.222,N
1100,-0.695,1.045,-0.380,197.222,83.333,377.778,1180.556,52.778,N
1101,-0.700,0.885,-0.435,197.222,83.333,380.556,1227.778,47.222,N
1102,-0.780,1.135,-0.570,197.222,75.000,380.556,1127.778,100.000,N
1103,-0.775,1.175,-0.390,197.222,77.778,380.556,1136.111,8.333,N
1104,-0.720,1.010,-0.390,194.444,83.333,380.556,1211.111,75.000,N
1105,-0.710,1.175,-0.495,197.222,72.222,383.333,1052.778,158.333,N
1106,-0.665,1.295,-0.345,197.222,83.333,377.778,1008.333,44.444,N
1107,-0.715,1.185,-0.405,191.667,66.667,355.556,983.333,25.000,N
1108,-0.765,1.315,-0.475,197.222,77.778,383.333,950.000,33.333,N
1109,-0.740,1.335,-0.365,197.222,86.111,366.667,966.667,16.667,N
1110,-0.740,1.115,-0.285,197.222,77.778,380.556,966.667,0.000,N
1111,-0.705,1.135,-0.340,197.222,86.111,372.222,977.778,11.111,N
1112,-0.725,1.230,-0.380,197.222,83.333,380.556,961.111,16.667,N
1113,-0.780,1.290,-0.400,177.778,83.333,386.111,969.444,8.333,N
1114,-0.725,1.340,-0.290,197.222,83.333,369.444,1050.000,80.556,N
1115,-0.585,1.285,-0.330,197.222,83.333,400.000,1461.111,411.111,N
1116,-0.700,1.150,-0.660,197.222,86.111,380.556,1291.667,169.444,N
1117,-0.715,1.210,-0.450,197.222,83.333,386.111,1272.222,19.444,N
1118,-0.605,1.320,-0.400,197.222,83.333,386.111,1397.222,125.000,N
1119,-0.680,1.310,-0.650,197.222,86.111,405.556,1275.000,122.222,N
1120,-0.645,1.250,-0.450,194.444,83.333,377.778,1269.444,5.556,N
1121,-0.645,1.180,-0.390,197.222,69.444,383.333,1402.778,133.333,N
1122,-0.650,1.310,-0.615,197.222,75.000,383.333,1313.889,88.889,N
1123,-0.690,1.095,-0.685,194.444,80.556,394.444,1127.778,186.111,N
1124,-0.830,1.005,-0.455,188.889,69.444,361.111,1061.111,66.667,N
1125,-0.590,1.190,-0.365,158.333,83.333,366.667,1033.333,27.778,N
1126,-0.625,1.250,-0.465,197.222,77.778,361.111,936.111,97.222,N
1127,-0.735,1.250,-0.350,194.444,61.111,352.778,963.889,27.778,N
1128,-0.605,1.275,-0.360,194.444,83.333,363.889,947.222,16.667,N
1129,-0.640,1.360,-0.270,197.222,80.556,366.667,955.556,8.333,N
1130,-0.595,1.175,-0.250,194.444,66.667,350.000,1005.556,50.000,N
1131,-0.700,1.075,-0.415,183.333,86.111,402.778,1058.333,52.778,N
1132,-0.685,1.200,-0.315,194.444,83.333,394.444,1136.111,77.778,N
1133,-0.510,1.100,-0.295,197.222,86.111,405.556,1469.444,333.333,N
1134,-0.570,1.105,-0.455,197.222,83.333,383.333,1391.667,77.778,N
1135,-0.620,1.020,-0.395,197.222,86.111,405.556,1308.333,83.333,N
1136,-0.595,0.900,-0.465,197.222,72.222,380.556,1413.889,105.556,N
1137,-0.715,0.915,-0.615,183.333,86.111,402.778,1316.667,97.222,N
1138,-0.670,1.030,-0.430,194.444,86.111,380.556,1269.444,47.222,N
1139,-0.635,1.030,-0.475,197.222,77.778,383.333,1319.444,50.000,N
1140,-0.725,0.985,-0.675,183.333,83.333,380.556,1280.556,38.889,N
1141,-0.695,1.010,-0.415,197.222,75.000,383.333,1347.222,66.667,N
1142,-0.640,0.985,-0.535,183.333,69.444,369.444,1325.000,22.222,N
1143,-0.725,1.140,-0.420,191.667,80.556,388.889,1188.889,136.111,N
1144,-0.595,1.130,-0.360,197.222,77.778,380.556,1333.333,144.444,N
1145,-0.690,1.135,-0.550,191.667,83.333,397.222,1288.889,44.444,N
1146,-0.660,1.065,-0.385,197.222,80.556,377.778,1180.556,108.333,N
1147,-0.650,1.185,-0.375,197.222,66.667,383.333,1319.444,138.889,N
1148,-0.660,1.215,-0.460,197.222,69.444,361.111,1197.222,122.222,N
1149,-0.660,1.245,-0.325,175.000,80.556,386.111,1086.111,111.111,N
1150,-0.660,1.050,-0.310,197.222,80.556,383.333,1200.000,113.889,N
1151,-0.595,1.080,-0.430,191.667,83.333,400.000,1216.667,16.667,N
1152,-0.655,1.200,-0.405,197.222,72.222,380.556,1138.889,77.778,N
1153,-0.695,1.140,-0.360,197.222,83.333,380.556,1283.333,144.444,N
1154,-0.695,1.070,-0.525,188.889,69.444,380.556,1280.556,2.778,N
1155,-0.730,1.195,-0.370,197.222,83.333,380.556,1155.556,125.000,N
1156,-0.615,1.160,-0.280,197.222,83.333,386.111,1261.111,105.556,N
1157,-0.615,1.155,-0.460,188.889,77.778,361.111,1197.222,63.889,N
1158,-0.720,1.165,-0.375,197.222,69.444,352.778,1127.778,69.444,N
1159,-0.600,1.300,-0.325,197.222,75.000,380.556,1305.556,177.778,N
1160,-0.670,1.255,-0.510,197.222,77.778,377.778,1305.556,0.000,N
1161,-0.730,1.225,-0.360,197.222,83.333,372.222,1150.000,155.556,N
1162,-0.645,1.390,-0.315,197.222,75.000,383.333,1308.333,158.333,N
1163,-0.695,1.200,-0.490,197.222,80.556,375.000,1250.000,58.333,N
1164,-0.715,1.310,-0.315,191.667,72.222,361.111,1116.667,133.333,N
1165,-0.615,1.140,-0.320,197.222,66.667,358.333,1197.222,80.556,N
1166,-0.665,1.280,-0.460,197.222,72.222,383.333,1108.333,88.889,N
1167,-0.655,1.240,-0.305,197.222,80.556,377.778,1072.222,36.111,N
1168,-0.560,1.260,-0.240,197.222,77.778,386.111,1202.778,130.556,N
1169,-0.610,1.150,-0.410,197.222,77.778,380.556,1336.111,133.333,N
1170,-0.625,1.160,-0.360,194.444,72.222,380.556,1122.222,213.889,N
1171,-0.585,1.155,-0.325,197.222,83.333,383.333,1275.000,152.778,N
1172,-0.705,1.055,-0.480,197.222,80.556,388.889,1283.333,8.333,N
1173,-0.690,1.165,-0.440,197.222,83.333,383.333,1155.556,127.778,N
1174,-0.670,1.185,-0.305,191.667,83.333,375.000,1116.667,38.889,N
1175,-0.625,1.145,-0.380,197.222,75.000,377.778,1050.000,66.667,N
1176,-0.620,1.380,-0.355,197.222,80.556,363.889,963.889,86.111,N
1177,-0.675,1.175,-0.365,191.667,86.111,377.778,947.222,16.667,N
1178,-0.660,1.285,-0.340,188.889,69.444,355.556,944.444,2.778,N
1179,-0.720,1.195,-0.420,197.222,77.778,372.222,950.000,5.556,N
1180,-0.790,1.180,-0.465,194.444,83.333,380.556,1011.111,61.111,N
1181,-0.670,1.000,-0.410,191.667,69.444,377.778,1408.333,397.222,N
1182,-0.690,0.955,-0.475,194.444,69.444,380.556,1438.889,30.556,N
1183,-0.765,1.125,-0.615,180.556,83.333,380.556,1288.889,150.000,N
1184,-0.710,1.120,-0.485,197.222,72.222,383.333,1411.111,122.222,N
1185,-0.625,0.920,-0.450,197.222,83.333,380.556,1386.111,25.000,N
1186,-0.600,1.125,-0.460,197.222,86.111,388.889,1291.667,94.444,N
1187,-0.545,1.210,-0.330,197.222,83.333,383.333,1305.556,13.889,N
1188,-0.620,0.995,-0.420,186.111,86.111,372.222,1344.444,38.889,N
1189,-0.610,1.205,-0.500,197.222,69.444,355.556,1241.667,102.778,N
1190,-0.610,1.105,-0.340,188.889,86.111,372.222,1263.889,22.222,N
1191,-0.595,1.090,-0.385,197.222,69.444,383.333,1236.111,27.778,N
1192,-0.735,1.155,-0.575,186.111,69.444,386.111,1200.000,36.111,N
1193,-0.720,1.145,-0.400,197.222,77.778,383.333,1141.667,58.333,N
1194,-0.695,1.235,-0.350,177.778,80.556,402.778,1247.222,105.556,N
1195,-0.640,1.100,-0.475,197.222,75.000,380.556,1227.778,19.444,N
1196,-0.665,1.200,-0.375,197.222,72.222,380.556,1125.000,102.778,N
1197,-0.680,1.190,-0.355,197.222,83.333,380.556,1286.111,161.111,N
1198,-0.695,0.950,-0.405,197.222,86.111,402.778,1241.667,44.444,N
1199,-0.750,1.005,-0.525,197.222,86.111,377.778,1161.111,80.556,N
1200,-0.770,1.070,-0.190,194.444,83.333,363.889,1130.556,30.556,N
1201,-0.805,0.400,-0.805,1437711.111,80.556,-1437658.333,1086.111,44.444,N
1202,-0.805,1.170,-0.565,1438755.556,83.333,388.889,1044.444,41.667,N
1203,-0.765,1.525,-0.315,194.444,80.556,380.556,1133.333,88.889,N
1204,-0.670,1.670,-0.210,177.778,83.333,377.778,1072.222,61.111,N
1205,-0.635,1.610,-0.165,197.222,83.333,386.111,1191.667,119.444,N
1206,-0.540,1.385,-0.245,197.222,83.333,377.778,1211.111,19.444,N
1207,-0.590,1.480,-0.380,197.222,66.667,347.222,1119.444,91.667,N
1208,-0.630,1.365,-0.255,197.222,69.444,358.333,1094.444,25.000,N
1209,-0.435,1.450,-0.030,197.222,77.778,369.444,1094.444,0.000,N
1210,-0.355,1.565,-0.240,194.444,77.778,383.333,1016.667,77.778,N
1211,-0.610,1.355,-0.395,197.222,86.111,375.000,1019.444,2.778,N
1212,-0.680,1.305,-0.340,197.222,80.556,380.556,1025.000,5.556,N
1213,-0.670,1.190,-0.470,197.222,75.000,375.000,1086.111,61.111,N
1214,-0.835,1.125,-0.630,197.222,83.333,369.444,1022.222,63.889,N
1215,-0.825,1.045,-0.515,197.222,86.111,380.556,1000.000,22.222,N
1216,-0.685,1.200,-0.415,197.222,80.556,388.889,1088.889,88.889,N
1217,-0.725,0.895,-0.595,194.444,72.222,361.111,1052.778,36.111,N
1218,-0.860,1.005,-0.675,197.222,80.556,377.778,1019.444,33.333,N
1219,-0.835,0.925,-0.475,188.889,86.111,375.000,1005.556,13.889,N
1220,-0.760,0.975,-0.455,191.667,75.000,383.333,1050.000,44.444,N
1221,-0.730,0.820,-0.610,191.667,75.000,355.556,1030.556,19.444,N
1222,-0.885,0.870,-0.620,191.667,80.556,380.556,947.222,83.333,N
1223,-0.860,1.000,-0.475,186.111,83.333,372.222,1011.111,63.889,N
1224,-0.805,0.460,-0.630,1462030.556,86.111,383.333,983.333,27.778,N
1225,-0.885,1.200,-0.550,194.444,75.000,363.889,927.778,55.556,N
1226,-0.805,0.795,-0.425,1463941.667,86.111,380.556,983.333,55.556,N
1227,-0.475,1.415,-0.155,197.222,83.333,377.778,966.667,16.667,N
1228,-0.560,1.180,-0.340,194.444,83.333,383.333,1000.000,33.333,N
1229,-0.615,1.225,-0.330,197.222,77.778,380.556,1000.000,0.000,N
1230,-0.430,1.325,-0.085,197.222,72.222,358.333,1019.444,19.444,N
1231,-0.435,1.290,-0.240,197.222,83.333,375.000,1088.889,69.444,N
1232,-0.665,1.155,-0.540,194.444,63.889,344.444,1047.222,41.667,N
1233,-0.795,1.005,-0.515,197.222,80.556,388.889,1041.667,5.556,N
1234,-0.765,0.755,-0.555,191.667,75.000,355.556,1222.222,180.556,N
1235,-0.865,0.805,-0.720,197.222,83.333,402.778,1297.222,75.000,N
1236,-0.865,0.760,-0.600,197.222,86.111,380.556,1258.333,38.889,N
1237,-0.835,0.815,-0.610,197.222,77.778,383.333,1361.111,102.778,N
1238,-0.930,0.760,-0.815,194.444,80.556,386.111,1297.222,63.889,N
1239,-0.925,0.735,-0.615,197.222,83.333,388.889,1105.556,191.667,N
1240,-0.815,0.810,-0.500,197.222,86.111,380.556,1211.111,105.556,N
1241,-0.810,0.825,-0.620,194.444,86.111,372.222,1208.333,2.778,N
1242,-0.750,0.920,-0.425,197.222,80.556,380.556,1152.778,55.556,N
1243,-0.670,1.000,-0.475,197.222,77.778,372.222,1322.222,169.444,N
1244,-0.745,1.125,-0.485,197.222,83.333,369.444,1263.889,58.333,N
1245,-0.640,1.220,-0.315,191.667,83.333,386.111,1283.333,19.444,N
1246,-0.600,0.915,-0.395,197.222,86.111,380.556,1202.778,80.556,N
1247,-0.710,1.155,-0.485,197.222,77.778,369.444,1119.444,83.333,N
1248,-0.705,1.240,-0.265,180.556,86.111,375.000,1219.444,100.000,N
1249,-0.560,1.210,-0.290,194.444,69.444,361.111,1311.111,91.667,N
1250,-0.540,1.270,-0.390,197.222,66.667,352.778,1366.667,55.556,N
1251,-0.575,1.290,-0.260,194.444,83.333,377.778,1325.000,41.667,N
1252,-0.600,1.140,-0.430,197.222,77.778,383.333,1355.556,30.556,N
1253,-0.765,1.140,-0.570,197.222,69.444,375.000,1066.667,288.889,N
1254,-0.755,1.165,-0.420,197.222,80.556,380.556,1069.444,2.778,N
1255,-0.710,1.100,-0.395,197.222,80.556,380.556,1069.444,0.000,N
1256,-0.825,1.335,-0.380,188.889,80.556,388.889,1033.333,36.111,N
1257,-0.730,1.215,-0.300,197.222,77.778,380.556,1094.444,61.111,N
1258,-0.625,1.120,-0.340,197.222,69.444,377.778,1327.778,233.333,N
1259,-0.705,1.115,-0.455,194.444,77.778,380.556,1375.000,47.222,N
1260,-0.635,1.170,-0.345,197.222,83.333,377.778,1452.778,77.778,N
1261,-0.655,1.180,-0.490,197.222,77.778,388.889,1411.111,41.667,N
1262,-0.715,1.175,-0.385,197.222,77.778,383.333,1308.333,102.778,N
1263,-0.570,1.320,-0.330,197.222,77.778,377.778,1372.222,63.889,N
1264,-0.710,1.120,-0.580,197.222,80.556,372.222,1283.333,88.889,N
1265,-0.765,1.120,-0.485,197.222,86.111,386.111,1161.111,122.222,N
1266,-0.755,1.195,-0.405,186.111,83.333,400.000,1272.222,111.111,N
1267,-0.770,0.895,-0.560,194.444,83.333,380.556,1227.778,44.444,N
1268,-0.830,1.065,-0.570,197.222,86.111,386.111,1130.556,97.222,N
1269,-0.775,1.160,-0.395,197.222,86.111,400.000,1144.444,13.889,N
1270,-0.395,0.715,-0.245,191.667,100.000,113.889,533.333,611.111,V
1271,-0.835,1.175,-0.605,197.222,69.444,377.778,677.778,144.444,N
1272,-0.810,1.120,-0.635,197.222,75.000,380.556,1005.556,327.778,N
1273,-0.765,1.225,-0.475,191.667,75.000,369.444,1058.333,52.778,N
1274,-0.710,1.095,-0.425,197.222,75.000,380.556,1072.222,13.889,N
1275,-0.770,1.185,-0.570,197.222,72.222,366.667,991.667,80.556,N
1276,-0.725,1.260,-0.380,197.222,83.333,391.667,986.111,5.556,N
1277,-0.710,1.205,-0.375,197.222,83.333,386.111,1030.556,44.444,N
1278,-0.720,1.055,-0.485,197.222,66.667,347.222,1022.222,8.333,N
1279,-0.850,1.020,-0.430,180.556,83.333,377.778,1055.556,33.333,N
1280,-0.695,1.140,-0.375,191.667,66.667,352.778,1247.222,191.667,N
1281,-0.760,1.145,-0.550,197.222,72.222,383.333,1305.556,58.333,N
1282,-0.720,1.040,-0.420,194.444,86.111,372.222,1325.000,19.444,N
1283,-0.655,0.945,-0.440,197.222,72.222,377.778,1305.556,19.444,N
1284,-0.740,0.915,-0.615,194.444,86.111,377.778,1225.000,80.556,N
1285,-0.755,1.050,-0.455,175.000,86.111,383.333,1197.222,27.778,N
1286,-0.705,0.970,-0.475,197.222,77.778,380.556,1355.556,158.333,N
1287,-0.760,1.045,-0.605,197.222,69.444,386.111,1300.000,55.556,N
1288,-0.715,1.065,-0.420,197.222,69.444,383.333,1163.889,136.111,N
1289,-0.685,0.995,-0.400,197.222,83.333,388.889,1272.222,108.333,N
1290,-0.730,1.110,-0.550,197.222,83.333,386.111,1177.778,94.444,N
1291,-0.705,1.240,-0.365,191.667,83.333,377.778,1108.333,69.444,N
1292,-0.625,1.230,-0.295,197.222,83.333,377.778,1222.222,113.889,N
1293,-0.640,1.190,-0.460,197.222,83.333,383.333,1219.444,2.778,N
1294,-0.640,1.320,-0.255,197.222,83.333,380.556,1150.000,69.444,N
1295,-0.555,1.330,-0.255,197.222,80.556,377.778,1272.222,122.222,N
1296,-0.640,1.055,-0.455,183.333,86.111,383.333,1338.889,66.667,N
1297,-0.765,1.240,-0.550,197.222,77.778,361.111,1080.556,258.333,N
1298,-0.745,1.235,-0.400,197.222,77.778,380.556,1002.778,77.778,N
1299,-0.680,1.110,-0.395,197.222,80.556,377.778,1005.556,2.778,N
1300,-0.730,1.180,-0.390,197.222,86.111,372.222,991.667,13.889,N
1301,-0.720,1.395,-0.240,197.222,72.222,358.333,1041.667,50.000,N
1302,-0.610,1.230,-0.235,197.222,80.556,358.333,1105.556,63.889,N
1303,-0.745,1.175,-0.485,197.222,83.333,386.111,1369.444,263.889,N
1304,-0.605,1.160,-0.310,197.222,69.444,350.000,1388.889,19.444,N
1305,-0.580,1.110,-0.495,197.222,69.444,358.333,1402.778,13.889,N
1306,-0.695,1.210,-0.425,197.222,72.222,383.333,1333.333,69.444,N
1307,-0.610,1.130,-0.365,191.667,83.333,377.778,1394.444,61.111,N
1308,-0.555,0.985,-0.450,194.444,77.778,383.333,1311.111,83.333,N
1309,-0.680,1.260,-0.445,194.444,83.333,375.000,1219.444,91.667,N
1310,-0.630,1.225,-0.340,194.444,83.333,372.222,1238.889,19.444,N
1311,-0.570,1.050,-0.390,194.444,72.222,380.556,1277.778,38.889,N
1312,-0.675,1.075,-0.540,197.222,77.778,386.111,1133.333,144.444,N
1313,-0.740,1.205,-0.370,194.444,83.333,386.111,1208.333,75.000,N
1314,-0.685,1.115,-0.440,197.222,80.556,375.000,1247.222,38.889,N
1315,-0.755,1.115,-0.525,186.111,83.333,400.000,1172.222,75.000,N
1316,-0.735,1.115,-0.510,191.667,72.222,388.889,1069.444,102.778,N
1317,-0.680,1.185,-0.380,191.667,66.667,358.333,1030.556,38.889,N
1318,-0.680,1.085,-0.445,191.667,86.111,372.222,1030.556,0.000,N
1319,-0.725,1.085,-0.425,197.222,75.000,383.333,983.333,47.222,N
1320,-0.740,1.100,-0.310,177.778,86.111,380.556,1047.222,63.889,N
1321,-0.710,1.110,-0.455,197.222,83.333,375.000,1166.667,119.444,N
1322,-0.720,1.220,-0.365,197.222,77.778,372.222,1183.333,16.667,N
1323,-0.605,1.145,-0.375,197.222,83.333,386.111,1477.778,294.444,N
1324,-0.725,1.025,-0.620,197.222,86.111,383.333,1311.111,166.667,N
1325,-0.700,1.155,-0.450,197.222,80.556,366.667,1280.556,30.556,N
1326,-0.730,1.015,-0.530,197.222,86.111,383.333,1352.778,72.222,N
1327,-0.740,1.045,-0.655,197.222,77.778,383.333,1255.556,97.222,N
1328,-0.765,1.120,-0.445,191.667,72.222,388.889,1191.667,63.889,N
1329,-0.725,0.935,-0.480,197.222,86.111,394.444,1272.222,80.556,N
1330,-0.775,1.030,-0.595,197.222,69.444,391.667,1161.111,111.111,N
1331,-0.720,1.010,-0.440,197.222,83.333,377.778,1127.778,33.333,N
1332,-0.780,0.995,-0.485,197.222,83.333,391.667,1275.000,147.222,N
1333,-0.825,0.860,-0.695,197.222,80.556,377.778,1355.556,80.556,N
1334,-0.820,1.025,-0.480,197.222,80.556,388.889,1191.667,163.889,N
1335,-0.660,1.130,-0.455,194.444,80.556,388.889,1336.111,144.444,N
1336,-0.765,1.030,-0.595,191.667,80.556,400.000,1216.667,119.444,N
1337,-0.680,0.950,-0.410,194.444,72.222,380.556,1277.778,61.111,N
1338,-0.735,1.015,-0.555,197.222,83.333,375.000,1291.667,13.889,N
1339,-0.755,1.000,-0.465,197.222,83.333,386.111,1188.889,102.778,N
1340,-0.610,1.055,-0.355,197.222,77.778,386.111,1391.667,202.778,N
1341,-0.615,1.085,-0.510,188.889,86.111,405.556,1355.556,36.111,N
1342,-0.725,1.110,-0.505,191.667,63.889,355.556,1172.222,183.333,N
1343,-0.650,1.095,-0.425,194.444,86.111,388.889,1269.444,97.222,N
1344,-0.790,1.065,-0.595,197.222,80.556,375.000,1227.778,41.667,N
1345,-0.830,1.165,-0.570,194.444,83.333,372.222,1038.889,188.889,N
1346,-0.835,1.155,-0.490,197.222,72.222,377.778,1005.556,33.333,N
1347,-0.905,0.985,-0.535,186.111,86.111,383.333,1022.222,16.667,N
1348,-0.900,1.190,-0.475,197.222,86.111,383.333,997.222,25.000,N
1349,-0.795,1.205,-0.320,197.222,83.333,375.000,1072.222,75.000,N
1350,-0.645,1.170,-0.475,188.889,66.667,369.444,1438.889,366.667,N
1351,-0.715,1.235,-0.460,197.222,66.667,358.333,1302.778,136.111,N
1352,-0.655,1.135,-0.385,194.444,72.222,369.444,1380.556,77.778,N
1353,-0.695,1.085,-0.600,194.444,72.222,391.667,1291.667,88.889,N
1354,-0.655,1.250,-0.405,194.444,83.333,397.222,1233.333,58.333,N
1355,-0.640,1.180,-0.415,197.222,77.778,397.222,1338.889,105.556,N
1356,-0.675,1.110,-0.570,197.222,83.333,402.778,1191.667,147.222,N
1357,-0.725,1.385,-0.405,194.444,80.556,397.222,1141.667,50.000,N
1358,-0.640,1.140,-0.380,197.222,83.333,383.333,1286.111,144.444,N
1359,-0.665,1.115,-0.560,197.222,75.000,388.889,1252.778,33.333,N
1360,-0.725,1.080,-0.415,197.222,75.000,383.333,1205.556,47.222,N
1361,-0.685,1.065,-0.400,186.111,77.778,375.000,1305.556,100.000,N
1362,-0.705,0.950,-0.545,194.444,83.333,380.556,1272.222,33.333,N
1363,-0.705,1.170,-0.410,197.222,72.222,380.556,1155.556,116.667,N
1364,-0.670,1.020,-0.390,197.222,83.333,380.556,1275.000,119.444,N
1365,-0.670,1.120,-0.575,197.222,72.222,361.111,1188.889,86.111,N
1366,-0.765,1.070,-0.440,186.111,83.333,383.333,1150.000,38.889,N
1367,-0.765,1.110,-0.425,197.222,80.556,380.556,1227.778,77.778,N
1368,-0.765,1.080,-0.575,197.222,83.333,388.889,1166.667,61.111,N
1369,-0.770,1.160,-0.425,197.222,75.000,383.333,1125.000,41.667,N
1370,-0.715,1.150,-0.430,197.222,83.333,383.333,1252.778,127.778,N
1371,-0.710,1.110,-0.465,197.222,83.333,380.556,1169.444,83.333,N
1372,-0.675,1.065,-0.405,197.222,66.667,386.111,1141.667,27.778,N
1373,-0.695,1.010,-0.400,197.222,83.333,375.000,1297.222,155.556,N
1374,-0.705,0.990,-0.570,188.889,63.889,383.333,1236.111,61.111,N
1375,-0.710,1.150,-0.375,197.222,77.778,383.333,1183.333,52.778,N
1376,-0.710,1.100,-0.380,197.222,83.333,383.333,1280.556,97.222,N
1377,-0.720,0.905,-0.565,191.667,86.111,377.778,1272.222,8.333,N
1378,-0.720,1.125,-0.345,197.222,86.111,377.778,1130.556,141.667,N
1379,-0.680,1.095,-0.375,197.222,77.778,380.556,1258.333,127.778,N
1380,-0.735,1.080,-0.525,197.222,86.111,372.222,1144.444,113.889,N
1381,-0.785,1.270,-0.360,197.222,83.333,386.111,1088.889,55.556,N
1382,-0.635,1.185,-0.305,197.222,75.000,369.444,1191.667,102.778,N
1383,-0.705,1.165,-0.445,175.000,83.333,383.333,1183.333,8.333,N
1384,-0.735,1.215,-0.390,194.444,83.333,388.889,1116.667,66.667,N
1385,-0.695,1.375,-0.290,197.222,72.222,394.444,1294.444,177.778,N
1386,-0.625,1.210,-0.410,197.222,75.000,391.667,1333.333,38.889,N
1387,-0.625,1.395,-0.305,194.444,75.000,386.111,1144.444,188.889,N
1388,-0.525,1.410,-0.190,197.222,75.000,383.333,1269.444,125.000,N
1389,-0.540,1.315,-0.290,197.222,72.222,386.111,1327.778,58.333,N
1390,-0.625,1.435,-0.385,197.222,80.556,383.333,1183.333,144.444,N
1391,-0.600,1.230,-0.280,194.444,86.111,380.556,1177.778,5.556,N
1392,-0.540,1.170,-0.300,188.889,83.333,369.444,1305.556,127.778,N
1393,-0.590,1.305,-0.455,197.222,83.333,361.111,1180.556,125.000,N
1394,-0.615,1.415,-0.295,197.222,80.556,386.111,1066.667,113.889,N
1395,-0.545,1.275,-0.225,197.222,72.222,377.778,1130.556,63.889,N
1396,-0.310,0.820,-0.180,197.222,100.000,113.889,544.444,586.111,V
1397,-0.665,1.390,-0.525,197.222,83.333,383.333,605.556,61.111,N
1398,-0.625,1.280,-0.460,197.222,80.556,386.111,852.778,247.222,N
1399,-0.640,1.255,-0.340,197.222,83.333,380.556,975.000,122.222,N
1400,-0.750,1.125,-0.420,180.556,86.111,377.778,1008.333,33.333,N
1401,-0.710,1.250,-0.280,180.556,86.111,383.333,1100.000,91.667,N
1402,-0.485,1.315,-0.255,194.444,77.778,386.111,1522.222,422.222,N
1403,-0.565,1.250,-0.415,197.222,80.556,386.111,1372.222,150.000,N
1404,-0.470,1.215,-0.235,197.222,86.111,380.556,1408.333,36.111,N
1405,-0.500,1.015,-0.355,186.111,86.111,383.333,1402.778,5.556,N
1406,-0.580,1.095,-0.420,177.778,86.111,383.333,1297.222,105.556,N
1407,-0.490,1.140,-0.270,191.667,69.444,361.111,1377.778,80.556,N
1408,-0.515,1.060,-0.405,191.667,80.556,380.556,1330.556,47.222,N
1409,-0.630,0.950,-0.520,197.222,75.000,383.333,1216.667,113.889,N
1410,-0.650,1.050,-0.385,191.667,66.667,352.778,1225.000,8.333,N
1411,-0.575,0.950,-0.405,197.222,69.444,375.000,1238.889,13.889,N
1412,-0.685,1.080,-0.535,197.222,83.333,380.556,1188.889,50.000,N
1413,-0.665,1.065,-0.395,197.222,77.778,383.333,1152.778,36.111,N
1414,-0.705,1.040,-0.440,197.222,72.222,380.556,1230.556,77.778,N
1415,-0.710,0.805,-0.540,194.444,69.444,386.111,1258.333,27.778,N
1416,-0.750,1.105,-0.480,183.333,83.333,380.556,1161.111,97.222,N
1417,-0.675,1.050,-0.380,197.222,83.333,377.778,1302.778,141.667,N
1418,-0.700,0.815,-0.480,186.111,86.111,405.556,1269.444,33.333,N
1419,-0.680,1.100,-0.405,197.222,77.778,383.333,1147.222,122.222,N
1420,-0.635,1.105,-0.315,197.222,77.778,380.556,1197.222,50.000,N
1421,-0.685,0.920,-0.500,194.444,72.222,363.889,1166.667,30.556,N
1422,-0.725,1.060,-0.380,197.222,86.111,377.778,1091.667,75.000,N
1423,-0.625,1.045,-0.330,197.222,77.778,380.556,1188.889,97.222,N
1424,-0.680,1.110,-0.485,197.222,86.111,383.333,1147.222,41.667,N
1425,-0.700,1.240,-0.330,183.333,80.556,372.222,1133.333,13.889,N
1426,-0.630,1.215,-0.305,197.222,80.556,380.556,1258.333,125.000,N
1427,-0.630,1.085,-0.475,197.222,83.333,391.667,1225.000,33.333,N
1428,-0.615,1.220,-0.340,197.222,77.778,380.556,1169.444,55.556,N
1429,-0.670,1.170,-0.430,197.222,72.222,377.778,1263.889,94.444,N
1430,-0.730,0.895,-0.585,197.222,63.889,363.889,1191.667,72.222,N
1431,-0.790,1.100,-0.430,197.222,83.333,394.444,1086.111,105.556,N
1432,-0.710,0.985,-0.410,194.444,83.333,397.222,1211.111,125.000,N
1433,-0.730,1.045,-0.550,191.667,83.333,383.333,1127.778,83.333,N
1434,-0.715,1.225,-0.325,194.444,86.111,377.778,1105.556,22.222,N
1435,-0.650,1.245,-0.345,197.222,75.000,369.444,1180.556,75.000,N
1436,-0.690,1.195,-0.460,197.222,83.333,377.778,1125.000,55.556,N
1437,-0.740,1.150,-0.410,197.222,83.333,377.778,1025.000,100.000,N
1438,-0.705,1.350,-0.320,188.889,86.111,394.444,1008.333,16.667,N
1439,-0.630,1.250,-0.345,197.222,86.111,372.222,1008.333,0.000,N
1440,-0.645,1.370,-0.320,197.222,77.778,361.111,975.000,33.333,N
1441,-0.685,1.350,-0.235,183.333,77.778,375.000,1050.000,75.000,N
1442,-0.625,1.335,-0.380,197.222,77.778,383.333,1355.556,305.556,N
1443,-0.660,1.300,-0.395,191.667,80.556,391.667,1316.667,38.889,N
1444,-0.605,1.335,-0.340,197.222,83.333,383.333,1391.667,75.000,N
1445,-0.585,1.200,-0.490,197.222,75.000,386.111,1358.333,33.333,N
1446,-0.705,1.260,-0.490,191.667,69.444,383.333,1191.667,166.667,N
1447,-0.610,1.260,-0.415,197.222,72.222,383.333,1305.556,113.889,N
1448,-0.720,0.955,-0.575,197.222,86.111,405.556,1286.111,19.444,N
1449,-0.750,1.095,-0.590,197.222,75.000,383.333,1180.556,105.556,N
1450,-0.685,1.280,-0.370,197.222,77.778,386.111,1205.556,25.000,N
1451,-0.645,1.080,-0.455,191.667,80.556,383.333,1302.778,97.222,N
1452,-0.680,1.095,-0.595,188.889,83.333,372.222,1183.333,119.444,N
1453,-0.710,1.315,-0.430,197.222,77.778,363.889,1116.667,66.667,N
1454,-0.715,1.150,-0.445,197.222,75.000,375.000,1238.889,122.222,N
1455,-0.725,1.230,-0.570,197.222,80.556,383.333,1205.556,33.333,N
1456,-0.765,1.095,-0.435,188.889,72.222,363.889,1113.889,91.667,N
1457,-0.720,1.090,-0.425,197.222,77.778,386.111,1213.889,100.000,N
1458,-0.785,1.100,-0.545,197.222,77.778,383.333,1138.889,75.000,N
1459,-0.685,1.075,-0.360,194.444,86.111,375.000,1111.111,27.778,N
1460,-0.670,1.165,-0.390,194.444,72.222,361.111,1208.333,97.222,N
1461,-0.715,0.990,-0.460,197.222,86.111,377.778,1194.444,13.889,N
1462,-0.715,1.170,-0.380,197.222,83.333,383.333,1155.556,38.889,N
1463,-0.565,1.080,-0.290,197.222,77.778,369.444,1294.444,138.889,N
1464,-0.635,1.055,-0.405,194.444,83.333,380.556,1375.000,80.556,N
1465,-0.650,1.255,-0.450,197.222,72.222,352.778,1227.778,147.222,N
1466,-0.620,1.315,-0.300,197.222,77.778,369.444,1194.444,33.333,N
1467,-0.580,1.095,-0.290,197.222,80.556,380.556,1208.333,13.889,N
1468,-0.710,1.275,-0.470,183.333,77.778,391.667,1155.556,52.778,N
1469,-0.640,1.215,-0.295,197.222,83.333,388.889,1183.333,27.778,N
1470,-0.655,1.235,-0.330,197.222,86.111,400.000,1352.778,169.444,N
1471,-0.710,1.165,-0.535,197.222,69.444,383.333,1269.444,83.333,N
1472,-0.750,1.185,-0.360,177.778,86.111,380.556,1225.000,44.444,N
1473,-0.650,1.200,-0.355,191.667,83.333,380.556,1266.667,41.667,N
1474,-0.680,1.260,-0.500,197.222,80.556,383.333,1225.000,41.667,N
1475,-0.675,1.365,-0.345,197.222,80.556,383.333,1133.333,91.667,N
1476,-0.675,1.215,-0.345,194.444,83.333,394.444,1241.667,108.333,N
1477,-0.680,1.095,-0.515,197.222,61.111,380.556,1241.667,0.000,N
1478,-0.685,1.250,-0.380,194.444,63.889,352.778,1138.889,102.778,N
1479,-0.660,1.265,-0.355,194.444,83.333,394.444,1197.222,58.333,N
1480,-0.680,1.215,-0.425,197.222,72.222,380.556,1208.333,11.111,N
1481,-0.710,1.455,-0.405,197.222,83.333,380.556,1108.333,100.000,N
1482,-0.605,1.370,-0.305,197.222,72.222,375.000,1200.000,91.667,N
1483,-0.650,1.215,-0.370,197.222,83.333,377.778,1280.556,80.556,N
1484,-0.720,1.345,-0.495,175.000,77.778,380.556,1158.333,122.222,N
1485,-0.735,1.215,-0.350,197.222,86.111,402.778,1077.778,80.556,N
1486,-0.665,1.240,-0.325,188.889,83.333,372.222,1172.222,94.444,N
1487,-0.570,1.230,-0.395,197.222,75.000,380.556,1144.444,27.778,N
1488,-0.640,1.250,-0.385,194.444,69.444,361.111,1122.222,22.222,N
1489,-0.660,1.255,-0.390,197.222,75.000,383.333,1147.222,25.000,N
1490,-0.745,1.035,-0.460,197.222,83.333,380.556,1119.444,27.778,N
1491,-0.730,1.090,-0.580,197.222,80.556,363.889,1013.889,105.556,N
1492,-0.775,1.285,-0.465,194.444,72.222,377.778,936.111,77.778,N
1493,-0.710,1.050,-0.420,194.444,72.222,358.333,961.111,25.000,N
1494,-0.675,1.155,-0.370,188.889,83.333,372.222,925.000,36.111,N
1495,-0.685,1.100,-0.355,197.222,80.556,386.111,947.222,22.222,N
1496,-0.710,1.220,-0.405,194.444,86.111,372.222,986.111,38.889,N
1497,-0.720,1.225,-0.345,191.667,83.333,372.222,1005.556,19.444,N
1498,-0.625,1.115,-0.290,197.222,86.111,383.333,1119.444,113.889,N
1499,-0.640,1.070,-0.415,197.222,83.333,383.333,1136.111,16.667,N
1500,-0.735,1.050,-0.515,194.444,72.222,352.778,1055.556,80.556,N
1501,-0.880,1.200,-0.470,136.111,83.333,380.556,1094.444,38.889,N
1502,-0.920,0.780,-0.615,186.111,80.556,400.000,1069.444,25.000,N
1503,-0.735,1.020,-0.575,194.444,72.222,361.111,1008.333,61.111,N
1504,-0.795,0.995,-0.505,191.667,86.111,372.222,986.111,22.222,N
1505,-0.665,1.335,-0.425,194.444,75.000,380.556,1244.444,258.333,N
1506,-0.675,1.120,-0.380,197.222,83.333,380.556,1119.444,125.000,N
1507,-0.635,1.090,-0.380,197.222,83.333,386.111,1058.333,61.111,N
1508,-0.615,0.985,-0.455,197.222,75.000,383.333,1058.333,0.000,N
1509,-0.705,0.880,-0.620,197.222,86.111,391.667,1077.778,19.444,N
1510,-0.790,1.030,-0.615,194.444,72.222,375.000,1030.556,47.222,N
1511,-0.730,1.055,-0.475,197.222,77.778,366.667,1030.556,0.000,N
1512,-0.745,0.910,-0.375,188.889,86.111,386.111,1052.778,22.222,N
1513,-0.760,0.730,-0.450,197.222,86.111,383.333,1030.556,22.222,N
1514,-0.690,0.985,-0.585,191.667,77.778,352.778,958.333,72.222,N