id,Pamp,Ramp,Tamp,PR,QRS,QT,RRI,dRRI,label
1,-0.350,1.200,0.060,163.889,86.111,302.778,733.333,8.333,N
2,-0.455,0.995,0.170,177.778,86.111,283.333,716.667,16.667,N
3,-0.175,0.960,0.275,169.444,86.111,283.333,727.778,11.111,N
4,-0.250,1.545,-0.140,177.778,88.889,316.667,738.889,11.111,N
5,-0.175,1.355,-0.225,61.111,88.889,327.778,722.222,16.667,N
6,-0.150,1.475,-0.245,58.333,88.889,311.111,758.333,36.111,N
7,-0.220,1.675,-0.250,58.333,86.111,316.667,744.444,13.889,N
8,-0.115,1.700,-0.145,175.000,86.111,283.333,719.444,25.000,N
9,-0.210,1.710,-0.195,58.333,86.111,316.667,719.444,0.000,N
10,-0.290,1.640,-0.235,166.667,86.111,105.556,716.667,2.778,N
11,-0.245,1.840,-0.200,169.444,88.889,322.222,719.444,2.778,N
12,-0.180,1.595,-0.225,166.667,88.889,300.000,725.000,5.556,N
13,-0.115,1.775,-0.190,58.333,86.111,325.000,730.556,5.556,N
14,-0.210,1.740,-0.230,58.333,86.111,297.222,761.111,30.556,N
15,-0.140,1.800,-0.160,172.222,86.111,280.556,750.000,11.111,N
16,-0.135,1.680,-0.040,58.333,86.111,327.778,752.778,2.778,N
17,-0.150,1.510,-0.080,58.333,86.111,308.333,761.111,8.333,N
18,-0.080,1.905,-0.005,58.333,86.111,322.222,755.556,5.556,N
19,-0.105,1.445,0.395,166.667,86.111,291.667,763.889,8.333,N
20,-0.055,1.275,0.290,166.667,80.556,291.667,733.333,30.556,N
21,-0.150,1.270,0.140,161.111,80.556,269.444,741.667,8.333,N
22,-0.210,1.105,0.200,155.556,86.111,280.556,736.111,5.556,N
23,-0.145,1.190,0.150,163.889,86.111,286.111,761.111,25.000,N
24,-0.255,1.095,0.300,169.444,80.556,291.667,758.333,2.778,N
25,-0.095,1.095,0.230,141.667,61.111,255.556,713.889,44.444,N
26,-0.050,1.255,0.200,169.444,88.889,291.667,727.778,13.889,N
27,-0.300,1.195,0.200,172.222,86.111,286.111,700.000,27.778,N
28,-0.105,1.160,0.340,163.889,75.000,291.667,688.889,11.111,N
29,-0.180,1.115,0.235,169.444,83.333,272.222,691.667,2.778,N
30,-0.180,1.135,0.070,169.444,88.889,308.333,694.444,2.778,N
31,-0.145,1.215,0.310,166.667,83.333,294.444,719.444,25.000,N
32,-0.235,1.180,0.155,152.778,58.333,252.778,750.000,30.556,N
33,-0.235,1.210,0.180,163.889,86.111,283.333,769.444,19.444,N
34,-0.240,1.725,-0.125,58.333,86.111,302.778,747.222,22.222,N
35,-0.095,1.825,-0.085,58.333,86.111,308.333,761.111,13.889,N
36,-0.050,1.905,-0.050,172.222,86.111,319.444,788.889,27.778,N
37,-0.105,1.650,-0.080,58.333,88.889,300.000,780.556,8.333,N
38,-0.155,1.590,-0.085,158.333,88.889,319.444,777.778,2.778,N
39,-0.135,1.850,-0.095,158.333,86.111,327.778,758.333,19.444,N
40,-0.135,1.180,0.265,166.667,88.889,275.000,747.222,11.111,N
41,-0.155,1.345,0.425,158.333,69.444,275.000,758.333,11.111,N
42,-0.155,1.240,0.305,169.444,88.889,280.556,758.333,0.000,N
43,-0.145,1.240,0.210,175.000,86.111,280.556,761.111,2.778,N
44,-0.155,1.175,0.245,161.111,69.444,255.556,775.000,13.889,N
45,-0.210,0.855,0.285,172.222,86.111,283.333,791.667,16.667,N
46,-0.030,1.205,0.320,163.889,72.222,252.778,777.778,13.889,N
47,-0.130,1.725,-0.015,172.222,88.889,330.556,791.667,13.889,N
48,-0.040,1.665,-0.060,58.333,88.889,305.556,805.556,13.889,N
49,-0.065,2.130,-0.090,58.333,86.111,319.444,786.111,19.444,N
50,-0.095,1.955,-0.025,58.333,86.111,316.667,763.889,22.222,N
51,-0.065,1.780,-0.070,166.667,86.111,316.667,766.667,2.778,N
52,-0.090,1.840,-0.060,58.333,88.889,322.222,772.222,5.556,N
53,-0.100,1.870,-0.040,169.444,86.111,311.111,738.889,33.333,N
54,-0.045,1.920,0.080,172.222,86.111,283.333,769.444,30.556,N
55,0.035,1.370,0.365,163.889,69.444,277.778,780.556,11.111,N
56,-0.140,1.310,0.285,158.333,86.111,294.444,761.111,19.444,N
57,-0.080,1.235,0.235,158.333,88.889,277.778,763.889,2.778,N
58,-0.110,1.210,0.190,166.667,86.111,280.556,794.444,30.556,N
59,-0.205,1.195,0.240,166.667,86.111,275.000,836.111,41.667,N
60,-0.125,1.080,0.245,163.889,86.111,283.333,825.000,11.111,N
61,-0.105,1.100,0.210,163.889,77.778,288.889,822.222,2.778,N
62,-0.120,1.020,0.225,155.556,83.333,288.889,800.000,22.222,N
63,-0.130,0.815,0.185,155.556,80.556,261.111,769.444,30.556,N
64,-0.040,0.725,0.150,158.333,88.889,263.889,775.000,5.556,N
65,-0.070,0.725,0.300,155.556,86.111,305.556,752.778,22.222,N
66,-0.190,0.775,0.135,163.889,80.556,280.556,783.333,30.556,N
67,-0.120,0.630,0.235,163.889,86.111,277.778,805.556,22.222,N
68,-0.130,0.995,0.220,155.556,80.556,283.333,788.889,16.667,N
69,-0.120,0.785,0.195,166.667,86.111,286.111,775.000,13.889,N
70,-0.160,0.625,0.225,163.889,80.556,277.778,769.444,5.556,N
71,-0.100,0.980,0.250,161.111,86.111,286.111,802.778,33.333,N
72,-0.045,1.070,0.235,158.333,88.889,280.556,808.333,5.556,N
73,-0.045,1.120,0.280,155.556,69.444,263.889,805.556,2.778,N
74,-0.050,1.140,0.300,147.222,88.889,305.556,761.111,44.444,N
75,-0.065,1.160,0.240,163.889,86.111,277.778,769.444,8.333,N
76,-0.040,1.140,0.295,155.556,83.333,283.333,788.889,19.444,N
77,-0.040,1.065,0.285,158.333,86.111,272.222,816.667,27.778,N
78,-0.010,1.180,0.295,166.667,88.889,283.333,855.556,38.889,N
79,0.000,1.200,0.275,161.111,86.111,272.222,844.444,11.111,N
80,0.000,1.035,0.275,152.778,77.778,280.556,816.667,27.778,N
81,0.050,1.145,0.285,163.889,80.556,286.111,833.333,16.667,N
82,-0.035,1.130,0.305,144.444,86.111,277.778,847.222,13.889,N
83,0.050,1.270,0.400,161.111,69.444,255.556,813.889,33.333,N
84,0.070,1.320,0.415,155.556,61.111,247.222,791.667,22.222,N
85,0.130,1.310,0.390,161.111,72.222,275.000,777.778,13.889,N
86,0.060,1.085,0.295,166.667,86.111,286.111,805.556,27.778,N
87,-0.055,1.050,0.255,161.111,86.111,286.111,836.111,30.556,N
88,-0.120,0.870,0.130,163.889,75.000,252.778,825.000,11.111,N
89,-0.170,0.800,0.055,158.333,86.111,269.444,827.778,2.778,N
90,-0.200,0.815,0.165,150.000,88.889,308.333,830.556,2.778,N
91,-0.170,0.765,0.270,147.222,83.333,277.778,786.111,44.444,N
92,-0.160,0.835,0.275,155.556,83.333,283.333,727.778,58.333,N
93,0.025,1.200,0.335,163.889,77.778,280.556,736.111,8.333,N
94,0.005,1.245,0.275,155.556,83.333,277.778,747.222,11.111,N
95,-0.035,1.180,0.255,158.333,83.333,280.556,727.778,19.444,N
96,-0.045,1.190,0.220,155.556,86.111,280.556,763.889,36.111,N
97,-0.015,1.230,0.200,163.889,83.333,286.111,800.000,36.111,N
98,-0.080,1.120,0.190,152.778,86.111,275.000,813.889,13.889,N
99,-0.070,1.055,0.185,158.333,80.556,277.778,813.889,0.000,N
100,-0.115,1.080,0.190,150.000,80.556,272.222,825.000,11.111,N
101,-0.065,1.115,0.210,158.333,72.222,266.667,838.889,13.889,N
102,-0.070,1.190,0.145,163.889,77.778,258.333,805.556,33.333,N
103,-0.100,1.145,0.155,158.333,75.000,250.000,802.778,2.778,N
104,-0.100,1.095,0.205,158.333,77.778,269.444,788.889,13.889,N
105,-0.115,1.115,0.195,161.111,86.111,300.000,802.778,13.889,N
106,-0.080,1.135,0.230,152.778,86.111,311.111,827.778,25.000,N
107,-0.060,1.150,0.180,155.556,86.111,280.556,833.333,5.556,N
108,-0.085,1.165,0.255,161.111,77.778,272.222,800.000,33.333,N
109,-0.055,1.075,0.250,161.111,75.000,286.111,780.556,19.444,N
110,-0.085,1.145,0.200,144.444,80.556,272.222,750.000,30.556,N
111,-0.115,1.110,0.140,161.111,83.333,283.333,763.889,13.889,N
112,-0.075,1.180,0.195,158.333,66.667,255.556,813.889,50.000,N
113,-0.125,1.090,0.130,158.333,72.222,255.556,808.333,5.556,N
114,-0.125,1.000,0.160,152.778,69.444,255.556,822.222,13.889,N
115,-0.115,1.025,0.170,158.333,88.889,286.111,819.444,2.778,N
116,-0.080,1.145,0.180,163.889,86.111,305.556,858.333,38.889,N
117,-0.070,1.090,0.220,158.333,66.667,255.556,858.333,0.000,N
118,-0.090,1.065,0.200,166.667,86.111,286.111,816.667,41.667,N
119,-0.090,1.040,0.220,152.778,77.778,277.778,794.444,22.222,N
120,-0.100,1.100,0.235,158.333,77.778,283.333,794.444,0.000,N
121,-0.120,0.935,0.305,163.889,86.111,261.111,788.889,5.556,N
122,-0.295,0.530,-0.655,133.333,69.444,111.111,777.778,11.111,N
123,-0.380,-0.135,-0.625,97247.222,86.111,294.444,805.556,27.778,N
124,-0.380,0.105,-0.550,98080.556,75.000,263.889,833.333,27.778,N
125,-0.635,0.765,0.085,158.333,86.111,269.444,863.889,30.556,N
126,0.105,1.600,0.950,58.333,86.111,291.667,908.333,44.444,N
127,0.620,2.115,1.200,163.889,80.556,291.667,869.444,38.889,N
128,0.615,1.960,0.915,105.556,75.000,275.000,875.000,5.556,N
129,0.395,1.690,0.715,166.667,86.111,277.778,875.000,0.000,N
130,0.195,1.515,0.425,166.667,75.000,275.000,816.667,58.333,N
131,-0.540,0.970,0.095,161.111,86.111,291.667,811.111,5.556,N
132,-0.390,1.095,0.035,163.889,80.556,305.556,797.222,13.889,N
133,-0.180,1.125,0.170,163.889,75.000,263.889,813.889,16.667,N
134,-0.135,1.235,0.190,169.444,86.111,277.778,830.556,16.667,N
135,-0.090,1.140,0.240,158.333,86.111,280.556,863.889,33.333,N
136,-0.030,1.275,0.365,161.111,86.111,283.333,863.889,0.000,N
137,-0.035,1.320,0.375,172.222,86.111,277.778,805.556,58.333,N
138,-0.090,1.160,0.185,163.889,83.333,288.889,791.667,13.889,N
139,-0.060,1.165,0.200,163.889,69.444,250.000,788.889,2.778,N
140,-0.115,1.240,0.265,158.333,80.556,294.444,800.000,11.111,N
141,-0.205,1.120,0.315,152.778,83.333,291.667,769.444,30.556,N
142,-0.095,1.095,0.305,166.667,86.111,277.778,780.556,11.111,N
143,-0.170,0.990,0.260,166.667,77.778,283.333,788.889,8.333,N
144,-0.230,0.815,0.170,166.667,80.556,288.889,766.667,22.222,N
145,-0.130,1.485,-0.160,58.333,88.889,325.000,805.556,38.889,N
146,-0.055,1.675,-0.135,58.333,88.889,327.778,825.000,19.444,N
147,-0.040,1.575,-0.105,58.333,86.111,311.111,858.333,33.333,N
148,-0.115,1.070,0.250,166.667,86.111,280.556,833.333,25.000,N
149,-0.080,0.835,0.230,166.667,83.333,280.556,852.778,19.444,N
150,-0.105,0.825,0.220,155.556,86.111,272.222,883.333,30.556,N
151,-0.075,1.150,0.200,169.444,86.111,277.778,861.111,22.222,N
152,-0.055,1.080,0.255,161.111,77.778,275.000,819.444,41.667,N
153,-0.120,0.985,0.200,158.333,88.889,294.444,766.667,52.778,N
154,-0.085,1.035,0.175,155.556,72.222,252.778,761.111,5.556,N
155,-0.110,1.045,0.175,166.667,77.778,277.778,741.667,19.444,N
156,-0.110,1.005,0.130,155.556,88.889,275.000,750.000,8.333,N
157,-0.160,1.075,0.205,144.444,86.111,311.111,763.889,13.889,N
158,-0.105,1.190,0.240,166.667,86.111,311.111,738.889,25.000,N
159,0.000,1.405,0.440,161.111,80.556,258.333,747.222,8.333,N
160,0.150,1.455,0.640,161.111,61.111,291.667,755.556,8.333,N
161,0.210,1.620,0.550,177.778,86.111,277.778,763.889,8.333,N
162,0.145,1.435,0.390,158.333,61.111,244.444,772.222,8.333,N
163,-0.010,1.285,0.315,141.667,86.111,288.889,755.556,16.667,N
164,-0.245,1.175,0.070,166.667,83.333,283.333,794.444,38.889,N
165,-0.405,1.160,-0.015,152.778,83.333,283.333,902.778,108.333,N
166,-0.395,1.530,-0.415,141.667,88.889,325.000,905.556,2.778,N
167,-0.375,1.645,-0.380,58.333,86.111,352.778,927.778,22.222,N
168,-0.210,1.580,-0.140,58.333,88.889,313.889,875.000,52.778,N
169,-0.135,1.525,-0.120,58.333,88.889,319.444,830.556,44.444,N
170,-0.060,1.675,-0.105,58.333,86.111,319.444,816.667,13.889,N
171,-0.135,1.715,-0.075,58.333,86.111,311.111,822.222,5.556,N
172,-0.035,1.970,-0.170,58.333,86.111,319.444,805.556,16.667,N
173,-0.215,1.840,-0.065,58.333,86.111,325.000,788.889,16.667,N
174,0.005,1.970,0.010,158.333,88.889,313.889,786.111,2.778,N
175,0.015,2.050,-0.015,58.333,86.111,313.889,769.444,16.667,N
176,0.035,2.180,-0.010,175.000,86.111,316.667,780.556,11.111,N
177,0.055,1.955,0.030,58.333,88.889,325.000,794.444,13.889,N
178,-0.025,1.990,-0.055,58.333,86.111,322.222,805.556,11.111,N
179,0.045,1.970,-0.065,58.333,88.889,338.889,816.667,11.111,N
180,0.010,2.010,-0.215,58.333,88.889,313.889,819.444,2.778,N
181,-0.125,2.085,-0.180,58.333,86.111,322.222,800.000,19.444,N
182,0.005,2.055,0.030,58.333,88.889,316.667,805.556,5.556,N
183,0.005,1.740,-0.005,175.000,88.889,330.556,833.333,27.778,N
184,0.005,2.025,-0.065,58.333,86.111,319.444,822.222,11.111,N
185,-0.040,1.970,0.050,58.333,86.111,319.444,794.444,27.778,N
186,-0.025,1.535,0.290,163.889,86.111,294.444,777.778,16.667,N
187,-0.045,1.925,-0.090,58.333,86.111,330.556,763.889,13.889,N
188,-0.060,1.385,0.365,166.667,63.889,269.444,763.889,0.000,N
189,-0.055,1.500,0.345,175.000,86.111,283.333,744.444,19.444,N
190,-0.070,1.470,0.220,166.667,75.000,258.333,752.778,8.333,N
191,-0.075,1.365,0.305,172.222,83.333,294.444,761.111,8.333,N
192,-0.110,1.415,0.225,172.222,86.111,277.778,758.333,2.778,N
193,-0.145,2.000,-0.105,166.667,88.889,322.222,788.889,30.556,N
194,-0.095,2.020,-0.190,58.333,88.889,333.333,816.667,27.778,N
195,-0.055,2.155,-0.150,186.111,86.111,322.222,808.333,8.333,N
196,-0.090,2.095,-0.085,58.333,88.889,330.556,761.111,47.222,N
197,-0.105,2.135,-0.180,175.000,86.111,311.111,755.556,5.556,N
198,-0.045,2.095,-0.195,58.333,86.111,322.222,733.333,22.222,N
199,-0.110,1.915,-0.160,163.889,88.889,283.333,733.333,0.000,N
200,-0.130,2.135,-0.135,58.333,83.333,322.222,727.778,5.556,N
201,-0.090,2.075,-0.065,58.333,86.111,313.889,747.222,19.444,N
202,-0.185,1.230,0.185,161.111,80.556,280.556,755.556,8.333,N
203,-0.175,1.930,-0.145,58.333,86.111,319.444,766.667,11.111,N
204,-0.180,1.960,-0.180,58.333,86.111,327.778,766.667,0.000,N
205,-0.050,1.860,-0.065,58.333,86.111,313.889,750.000,16.667,N
206,-0.115,1.635,-0.125,58.333,88.889,327.778,783.333,33.333,N
207,-0.110,1.545,0.070,169.444,88.889,311.111,816.667,33.333,N
208,-0.065,1.295,0.275,161.111,75.000,283.333,786.111,30.556,N
209,-0.040,1.155,0.270,163.889,86.111,302.778,752.778,33.333,N
210,-0.165,1.310,0.215,163.889,55.556,244.444,705.556,47.222,N
211,-0.130,1.195,0.215,180.556,86.111,302.778,691.667,13.889,N
212,-0.085,1.230,0.195,163.889,66.667,233.333,672.222,19.444,N
213,-0.175,1.160,0.255,183.333,83.333,305.556,663.889,8.333,N
214,-0.165,1.260,0.190,175.000,75.000,294.444,666.667,2.778,N
215,-0.200,1.215,0.150,169.444,80.556,272.222,686.111,19.444,N
216,-0.260,1.145,0.105,166.667,86.111,286.111,672.222,13.889,N
217,-0.235,1.255,0.210,161.111,80.556,291.667,688.889,16.667,N
218,-0.210,1.175,0.070,50.000,55.556,272.222,683.333,5.556,N
219,-0.240,1.030,0.030,166.667,69.444,280.556,713.889,30.556,N
220,-0.260,1.100,0.230,175.000,88.889,280.556,719.444,5.556,N
221,-0.220,1.815,-0.190,172.222,86.111,325.000,700.000,19.444,N
222,-0.170,1.765,-0.220,58.333,86.111,322.222,702.778,2.778,N
223,-0.205,1.760,-0.205,163.889,86.111,325.000,683.333,19.444,N
224,-0.155,1.615,-0.225,169.444,86.111,325.000,677.778,5.556,N
225,-0.120,1.860,-0.160,58.333,88.889,316.667,694.444,16.667,N
226,-0.155,1.815,-0.190,58.333,88.889,325.000,672.222,22.222,N
227,-0.100,1.650,-0.250,58.333,86.111,338.889,686.111,13.889,N
228,-0.180,1.330,-0.105,175.000,88.889,319.444,686.111,0.000,N
229,-0.170,1.060,0.175,163.889,83.333,286.111,658.333,27.778,N
230,-0.185,1.435,-0.150,58.333,88.889,302.778,661.111,2.778,N
231,-0.195,1.485,-0.235,141.667,88.889,311.111,650.000,11.111,N
232,-0.175,0.845,0.175,158.333,77.778,266.667,641.667,8.333,N
233,-0.120,0.980,0.245,175.000,86.111,288.889,655.556,13.889,N
234,-0.135,0.840,0.175,175.000,83.333,283.333,636.111,19.444,N
235,-0.145,0.770,0.215,169.444,80.556,280.556,630.556,5.556,N
236,-0.025,0.835,0.180,163.889,86.111,283.333,605.556,25.000,N
237,-0.160,1.190,0.165,169.444,83.333,294.444,608.333,2.778,N
238,-0.125,1.210,0.155,161.111,77.778,283.333,602.778,5.556,N
239,-0.105,1.110,0.140,166.667,63.889,275.000,647.222,44.444,N
240,-0.215,1.255,0.135,166.667,83.333,313.889,669.444,22.222,N
241,-0.180,1.205,0.075,161.111,69.444,252.778,722.222,52.778,N
242,-0.125,1.650,-0.135,163.889,86.111,325.000,780.556,58.333,N
243,-0.165,1.090,0.015,161.111,86.111,277.778,775.000,5.556,N
244,-0.180,1.170,0.205,166.667,83.333,269.444,761.111,13.889,N
245,-0.295,0.955,0.135,155.556,86.111,269.444,713.889,47.222,N
246,0.055,1.200,0.155,152.778,66.667,250.000,705.556,8.333,N
247,-0.135,1.175,0.250,161.111,77.778,241.667,680.556,25.000,N
248,-0.015,1.130,0.195,175.000,61.111,252.778,641.667,38.889,N
249,-0.240,1.085,0.225,155.556,88.889,269.444,641.667,0.000,N
250,-0.115,1.070,0.230,169.444,61.111,261.111,622.222,19.444,N
251,-0.260,1.160,0.095,163.889,83.333,294.444,630.556,8.333,N
252,-0.220,1.160,0.195,155.556,86.111,308.333,647.222,16.667,N
253,-0.285,1.185,0.095,183.333,66.667,300.000,661.111,13.889,N
254,-0.210,1.105,0.230,152.778,83.333,266.667,680.556,19.444,N
255,-0.170,1.185,0.175,152.778,72.222,286.111,730.556,50.000,N
256,-0.195,1.080,0.185,147.222,88.889,305.556,725.000,5.556,N
257,-0.215,1.045,0.105,161.111,75.000,266.667,727.778,2.778,N
258,-0.215,0.810,0.110,155.556,75.000,286.111,722.222,5.556,N
259,-0.155,0.825,0.175,155.556,72.222,280.556,761.111,38.889,N
260,-0.195,0.855,0.210,158.333,77.778,316.667,747.222,13.889,N
261,-0.055,0.970,0.185,150.000,86.111,338.889,711.111,36.111,N
262,-0.150,0.940,0.185,150.000,83.333,283.333,725.000,13.889,N
263,-0.135,0.995,0.190,163.889,80.556,313.889,697.222,27.778,N
264,-0.230,1.035,0.225,163.889,83.333,283.333,697.222,0.000,N
265,-0.025,0.725,0.245,150.000,75.000,266.667,697.222,0.000,N
266,-0.035,1.125,0.310,163.889,83.333,291.667,700.000,2.778,N
267,-0.090,1.005,0.200,155.556,88.889,275.000,727.778,27.778,N
268,-0.145,0.870,0.215,150.000,83.333,280.556,755.556,27.778,N
269,-0.155,0.780,0.130,166.667,86.111,288.889,730.556,25.000,N
270,-0.195,0.760,0.195,155.556,80.556,258.333,722.222,8.333,N
271,-0.205,0.735,0.035,155.556,88.889,308.333,725.000,2.778,N
272,-0.330,0.785,0.155,163.889,86.111,336.111,736.111,11.111,N
273,-0.270,1.000,0.080,155.556,86.111,311.111,733.333,2.778,N
274,-0.205,1.130,0.170,161.111,86.111,275.000,722.222,11.111,N
275,-0.220,1.140,0.130,163.889,83.333,313.889,730.556,8.333,N
276,-0.130,1.130,0.100,166.667,58.333,247.222,736.111,5.556,N
277,-0.240,1.725,-0.145,163.889,88.889,319.444,719.444,16.667,N
278,-0.195,1.655,-0.165,169.444,88.889,333.333,694.444,25.000,N
279,-0.080,1.835,-0.170,175.000,75.000,394.444,700.000,5.556,N
280,-0.090,1.725,-0.005,172.222,86.111,391.667,686.111,13.889,N
281,-0.100,1.850,-0.125,191.667,86.111,319.444,669.444,16.667,N
282,-0.165,1.790,-0.080,169.444,86.111,330.556,655.556,13.889,N
283,-0.075,1.730,-0.155,169.444,86.111,313.889,644.444,11.111,N
284,-0.140,1.725,-0.050,58.333,86.111,313.889,641.667,2.778,N
285,-0.155,1.625,-0.150,163.889,83.333,319.444,652.778,11.111,N
286,-0.150,1.890,-0.090,58.333,83.333,311.111,672.222,19.444,N
287,-0.170,1.550,-0.190,169.444,86.111,316.667,672.222,0.000,N
288,-0.165,1.860,-0.210,58.333,86.111,313.889,702.778,30.556,N
289,-0.265,1.800,-0.075,58.333,86.111,297.222,686.111,16.667,N
290,-0.185,1.755,-0.210,169.444,86.111,322.222,702.778,16.667,N
291,-0.280,1.785,-0.150,155.556,86.111,313.889,716.667,13.889,N
292,-0.260,1.635,-0.240,172.222,86.111,341.667,727.778,11.111,N
293,-0.170,1.715,-0.335,58.333,86.111,275.000,705.556,22.222,N
294,-0.200,1.690,-0.065,161.111,88.889,300.000,716.667,11.111,N
295,-0.115,1.795,-0.185,163.889,86.111,311.111,686.111,30.556,N
296,-0.120,1.800,-0.145,163.889,88.889,313.889,694.444,8.333,N
297,-0.165,1.960,-0.195,161.111,86.111,405.556,683.333,11.111,N
298,-0.130,2.015,-0.155,169.444,86.111,394.444,672.222,11.111,N
299,-0.120,1.570,-0.110,172.222,88.889,311.111,677.778,5.556,N
300,-0.120,0.910,0.125,161.111,72.222,286.111,650.000,27.778,N
301,-0.160,1.115,0.230,169.444,80.556,250.000,641.667,8.333,N
302,-0.160,1.150,0.175,163.889,75.000,283.333,630.556,11.111,N
303,-0.155,1.275,0.185,166.667,77.778,261.111,652.778,22.222,N
304,-0.220,1.255,0.100,169.444,63.889,252.778,694.444,41.667,N
305,-0.150,1.175,0.110,163.889,83.333,316.667,691.667,2.778,N
306,-0.265,1.610,-0.090,194.444,86.111,316.667,725.000,33.333,N
307,-0.155,1.675,-0.175,175.000,86.111,313.889,722.222,2.778,N
308,-0.110,1.795,-0.085,58.333,86.111,333.333,713.889,8.333,N
309,-0.075,1.770,-0.280,191.667,86.111,386.111,686.111,27.778,N
310,-0.130,1.795,-0.155,169.444,88.889,316.667,663.889,22.222,N
311,-0.220,1.585,-0.115,163.889,86.111,294.444,691.667,27.778,N
312,-0.080,1.155,0.195,180.556,88.889,275.000,683.333,8.333,N
313,-0.225,1.830,-0.115,166.667,86.111,336.111,669.444,13.889,N
314,-0.150,1.770,-0.175,58.333,86.111,300.000,677.778,8.333,N
315,-0.080,1.785,-0.095,152.778,86.111,322.222,672.222,5.556,N
316,-0.040,1.645,-0.100,163.889,86.111,322.222,727.778,55.556,N
317,-0.080,1.720,-0.205,172.222,86.111,322.222,747.222,19.444,N
318,-0.120,1.855,-0.090,166.667,86.111,319.444,694.444,52.778,N
319,-0.075,1.160,0.295,163.889,72.222,280.556,688.889,5.556,N
320,-0.115,1.205,0.235,166.667,83.333,272.222,691.667,2.778,N
321,-0.170,0.870,0.100,169.444,86.111,280.556,691.667,0.000,N
322,-0.220,0.855,0.080,191.667,86.111,269.444,686.111,5.556,N
323,-0.185,1.360,-0.180,169.444,88.889,319.444,677.778,8.333,N
324,-0.205,1.240,-0.230,166.667,88.889,316.667,686.111,8.333,N
325,-0.145,1.345,-0.220,58.333,88.889,322.222,697.222,11.111,N
326,-0.255,1.295,-0.250,58.333,86.111,294.444,680.556,16.667,N
327,-0.110,1.410,-0.225,169.444,88.889,308.333,686.111,5.556,N
328,-0.220,1.310,-0.110,166.667,88.889,322.222,683.333,2.778,N
329,-0.060,1.215,-0.085,155.556,88.889,302.778,725.000,41.667,N
330,-0.090,1.545,-0.040,58.333,88.889,313.889,761.111,36.111,N
331,-0.155,1.775,-0.205,166.667,88.889,319.444,722.222,38.889,N
332,-0.060,1.835,-0.165,177.778,83.333,322.222,736.111,13.889,N
333,-0.080,1.695,-0.090,172.222,86.111,308.333,772.222,36.111,N
334,-0.110,1.715,-0.240,166.667,88.889,302.778,708.333,63.889,N
335,-0.190,1.700,-0.135,161.111,86.111,308.333,702.778,5.556,N
336,-0.110,1.745,-0.195,161.111,86.111,269.444,697.222,5.556,N
337,-0.175,1.670,-0.150,163.889,88.889,305.556,722.222,25.000,N
338,-0.190,1.150,0.120,163.889,80.556,255.556,755.556,33.333,N
339,-0.185,1.060,0.120,152.778,69.444,255.556,752.778,2.778,N
340,-0.265,0.990,0.100,161.111,80.556,252.778,719.444,33.333,N
341,-0.220,1.135,0.040,155.556,83.333,252.778,705.556,13.889,N
342,-0.225,1.070,0.040,163.889,80.556,261.111,716.667,11.111,N
343,-0.200,1.015,0.160,125.000,80.556,252.778,713.889,2.778,N
344,-0.155,0.980,-0.005,158.333,75.000,233.333,744.444,30.556,N
345,-0.240,0.895,0.090,158.333,86.111,261.111,750.000,5.556,N
346,-0.260,0.940,0.075,150.000,86.111,266.667,727.778,22.222,N
347,-0.235,1.010,0.095,163.889,69.444,250.000,702.778,25.000,N
348,-0.225,0.985,0.080,158.333,75.000,252.778,694.444,8.333,N
349,-0.225,0.955,0.065,161.111,86.111,266.667,738.889,44.444,N
350,-0.250,0.850,0.040,158.333,83.333,266.667,827.778,88.889,N
351,-0.260,0.885,0.095,155.556,75.000,252.778,850.000,22.222,N
352,-0.160,1.115,0.245,150.000,75.000,255.556,866.667,16.667,N
353,0.020,1.090,0.275,72.222,61.111,236.111,852.778,13.889,N
354,-0.115,1.830,-0.075,186.111,86.111,325.000,819.444,33.333,N
355,-0.095,2.065,-0.115,169.444,86.111,375.000,747.222,72.222,N
356,-0.335,0.950,-0.055,188.889,75.000,258.333,736.111,11.111,N
357,-0.810,0.280,-0.575,172.222,80.556,294.444,716.667,19.444,N
358,-0.355,1.005,0.255,80.556,86.111,261.111,686.111,30.556,N
359,0.210,1.320,0.540,155.556,86.111,116.667,688.889,2.778,N
360,-0.180,0.960,-0.615,197.222,86.111,311.111,677.778,11.111,N
361,-0.365,1.110,-0.400,58.333,88.889,333.333,669.444,8.333,N
362,-0.005,1.860,0.380,58.333,88.889,319.444,677.778,8.333,N
363,0.465,2.110,0.450,188.889,88.889,327.778,658.333,19.444,N
364,0.185,2.005,0.055,58.333,86.111,288.889,672.222,13.889,N
365,-0.055,1.765,-0.175,150.000,86.111,311.111,655.556,16.667,N
366,-0.265,1.550,0.045,147.222,88.889,313.889,691.667,36.111,N
367,0.090,1.920,0.110,58.333,88.889,311.111,697.222,5.556,N
368,0.015,1.745,0.040,161.111,86.111,311.111,675.000,22.222,N
369,-0.060,1.505,-0.060,166.667,86.111,305.556,694.444,19.444,N
370,-0.085,1.635,-0.110,58.333,86.111,308.333,677.778,16.667,N
371,-0.135,1.430,-0.110,163.889,88.889,311.111,691.667,13.889,N
372,-0.105,1.515,-0.050,158.333,86.111,316.667,730.556,38.889,N
373,-0.040,1.420,-0.085,161.111,88.889,316.667,727.778,2.778,N
374,-0.045,1.645,-0.070,166.667,86.111,322.222,766.667,38.889,N
375,-0.040,1.790,-0.070,58.333,86.111,322.222,736.111,30.556,N
376,-0.040,1.665,-0.090,161.111,86.111,302.778,691.667,44.444,N
377,-0.095,1.585,-0.070,169.444,86.111,308.333,722.222,30.556,N
378,-0.090,1.600,-0.070,166.667,86.111,319.444,752.778,30.556,N
379,-0.100,1.510,-0.090,158.333,88.889,308.333,786.111,33.333,N
380,-0.110,1.550,-0.070,155.556,86.111,308.333,833.333,47.222,N
381,-0.030,1.705,-0.020,58.333,86.111,294.444,941.667,108.333,N
382,-0.070,1.735,-0.030,58.333,86.111,313.889,888.889,52.778,N
383,-0.045,1.765,-0.065,69.444,83.333,322.222,916.667,27.778,N
384,-0.080,1.850,-0.010,58.333,86.111,316.667,933.333,16.667,N
385,-0.010,1.865,-0.095,58.333,86.111,286.111,975.000,41.667,N
386,-0.045,1.680,-0.025,166.667,86.111,313.889,1002.778,27.778,N
387,0.080,1.800,0.100,163.889,88.889,291.667,894.444,108.333,N
388,-0.015,1.675,0.035,58.333,88.889,311.111,841.667,52.778,N
389,-0.040,1.765,0.030,169.444,88.889,319.444,866.667,25.000,N
390,-0.020,1.840,-0.010,169.444,86.111,297.222,916.667,50.000,N
391,-0.030,1.760,-0.065,161.111,88.889,322.222,983.333,66.667,N
392,-0.085,1.765,-0.025,58.333,88.889,319.444,1002.778,19.444,N
393,-0.005,1.865,-0.040,172.222,86.111,308.333,977.778,25.000,N
394,0.025,1.815,0.015,58.333,88.889,316.667,969.444,8.333,N
395,0.180,2.025,0.160,58.333,86.111,316.667,950.000,19.444,N
396,0.000,1.765,-0.100,169.444,86.111,302.778,947.222,2.778,N
397,-0.055,1.805,0.030,58.333,86.111,308.333,925.000,22.222,N
398,-0.010,1.775,-0.055,58.333,88.889,308.333,908.333,16.667,N
399,-0.170,1.735,-0.200,58.333,86.111,302.778,966.667,58.333,N
400,-0.115,1.740,-0.170,58.333,86.111,325.000,983.333,16.667,N
401,-0.055,1.845,-0.100,58.333,86.111,330.556,925.000,58.333,N
402,-0.080,1.635,-0.150,58.333,88.889,325.000,908.333,16.667,N
403,-0.110,1.550,-0.145,58.333,88.889,325.000,941.667,33.333,N
404,0.000,1.340,-0.095,58.333,88.889,313.889,905.556,36.111,N
405,-0.005,1.455,-0.070,58.333,88.889,313.889,938.889,33.333,N
406,0.020,1.445,-0.040,58.333,88.889,333.333,975.000,36.111,N
407,0.055,1.545,-0.050,58.333,86.111,327.778,902.778,72.222,N
408,0.000,1.465,-0.070,58.333,88.889,311.111,863.889,38.889,N
409,-0.055,1.220,-0.080,58.333,88.889,316.667,952.778,88.889,N
410,0.085,1.360,-0.025,177.778,88.889,308.333,983.333,30.556,N
411,0.100,1.600,0.010,58.333,86.111,327.778,938.889,44.444,N
412,0.085,1.825,0.060,58.333,88.889,316.667,952.778,13.889,N
413,0.125,1.800,0.005,58.333,88.889,327.778,838.889,113.889,N
414,0.075,1.525,-0.050,58.333,86.111,330.556,844.444,5.556,N
415,-0.120,1.610,-0.175,58.333,86.111,333.333,902.778,58.333,N
416,-0.055,1.690,-0.175,58.333,86.111,330.556,891.667,11.111,N
417,-0.200,1.535,-0.245,58.333,86.111,333.333,894.444,2.778,N
418,-0.065,1.740,-0.170,58.333,86.111,305.556,941.667,47.222,N
419,-0.120,1.715,-0.105,69.444,88.889,316.667,955.556,13.889,N
420,-0.140,1.665,-0.210,58.333,86.111,275.000,975.000,19.444,N
421,-0.135,1.635,-0.145,58.333,88.889,302.778,944.444,30.556,N
422,-0.125,1.545,-0.170,58.333,88.889,316.667,944.444,0.000,N
423,-0.135,1.400,-0.150,58.333,86.111,319.444,972.222,27.778,N
424,-0.115,1.045,0.190,177.778,86.111,277.778,941.667,30.556,N
425,-0.105,1.425,-0.175,58.333,88.889,313.889,905.556,36.111,N
426,-0.125,1.405,-0.185,58.333,86.111,313.889,927.778,22.222,N
427,-0.090,1.320,-0.135,58.333,88.889,319.444,955.556,27.778,N
428,-0.090,1.375,-0.155,58.333,88.889,319.444,1008.333,52.778,N
429,-0.015,1.540,-0.125,58.333,88.889,333.333,1019.444,11.111,N
430,-0.055,1.315,0.185,180.556,86.111,280.556,955.556,63.889,N
431,-0.115,1.430,-0.170,58.333,88.889,322.222,930.556,25.000,N
432,-0.075,1.345,-0.185,58.333,86.111,333.333,975.000,44.444,N
433,-0.070,1.575,-0.190,58.333,88.889,327.778,950.000,25.000,N
434,-0.030,1.420,-0.145,58.333,88.889,327.778,958.333,8.333,N
435,-0.035,1.405,-0.145,58.333,86.111,330.556,966.667,8.333,N
436,-0.085,1.545,-0.120,58.333,86.111,322.222,947.222,19.444,N
437,-0.060,1.470,-0.170,58.333,88.889,336.111,986.111,38.889,N
438,-0.340,1.365,-0.705,175.000,86.111,325.000,983.333,2.778,N
439,-0.480,1.580,-0.415,58.333,86.111,327.778,852.778,130.556,N
440,-0.345,1.760,0.235,58.333,88.889,316.667,858.333,5.556,N
441,0.110,1.990,0.075,58.333,88.889,325.000,883.333,25.000,N
442,0.005,1.855,-0.095,58.333,83.333,283.333,961.111,77.778,N
443,-0.045,1.965,-0.120,58.333,88.889,330.556,938.889,22.222,N
444,-0.145,1.835,-0.100,177.778,88.889,277.778,877.778,61.111,N
445,-0.185,1.795,-0.070,58.333,88.889,286.111,850.000,27.778,N
446,-0.660,1.130,-0.435,158.333,86.111,244.444,847.222,2.778,N
447,-0.585,1.355,-0.430,58.333,88.889,313.889,877.778,30.556,N
448,0.065,1.930,-0.085,58.333,86.111,302.778,938.889,61.111,N
449,-0.015,1.935,0.100,58.333,86.111,322.222,952.778,13.889,N
450,0.305,2.150,0.240,158.333,86.111,338.889,883.333,69.444,N
451,0.385,2.120,0.335,58.333,86.111,302.778,830.556,52.778,N
452,0.335,2.240,0.325,58.333,83.333,294.444,847.222,16.667,N
453,0.280,2.065,0.205,175.000,86.111,322.222,886.111,38.889,N
454,0.105,1.890,0.040,58.333,86.111,319.444,963.889,77.778,N
455,0.050,1.780,-0.015,166.667,88.889,322.222,986.111,22.222,N
456,0.125,1.440,0.425,166.667,80.556,286.111,969.444,16.667,N
457,0.110,1.445,0.370,163.889,72.222,258.333,961.111,8.333,N
458,0.030,1.185,0.305,166.667,83.333,280.556,875.000,86.111,N
459,-0.080,1.460,0.460,166.667,86.111,297.222,830.556,44.444,N
460,0.095,1.930,0.025,180.556,86.111,330.556,786.111,44.444,N
461,-0.050,1.780,-0.125,166.667,86.111,311.111,794.444,8.333,N
462,-0.150,1.730,-0.235,58.333,86.111,313.889,813.889,19.444,N
463,-0.160,1.665,-0.215,58.333,88.889,322.222,863.889,50.000,N
464,-0.105,1.360,0.205,172.222,86.111,283.333,958.333,94.444,N
465,-0.165,1.230,0.175,166.667,86.111,283.333,963.889,5.556,N
466,-0.105,1.200,0.245,172.222,83.333,275.000,969.444,5.556,N
467,-0.075,1.210,0.265,166.667,72.222,258.333,880.556,88.889,N
468,-0.080,1.200,0.345,169.444,80.556,308.333,880.556,0.000,N
469,-0.045,1.375,0.420,180.556,86.111,300.000,811.111,69.444,N
470,0.030,1.715,-0.030,58.333,88.889,338.889,808.333,2.778,N
471,-0.005,1.715,-0.070,58.333,88.889,325.000,847.222,38.889,N
472,0.060,1.910,0.020,58.333,86.111,333.333,913.889,66.667,N
473,0.075,1.905,0.060,61.111,86.111,322.222,922.222,8.333,N
474,-0.005,1.575,-0.110,58.333,88.889,336.111,1011.111,88.889,N
475,-0.075,1.330,-0.160,58.333,88.889,330.556,1038.889,27.778,N
476,-0.160,1.405,-0.170,58.333,88.889,319.444,991.667,47.222,N
477,-0.090,1.280,-0.135,58.333,88.889,319.444,969.444,22.222,N
478,-0.060,1.430,-0.105,58.333,88.889,336.111,975.000,5.556,N
479,-0.010,1.450,-0.070,58.333,88.889,319.444,930.556,44.444,N
480,0.070,1.430,-0.035,58.333,88.889,316.667,927.778,2.778,N
481,0.090,1.750,-0.065,58.333,86.111,333.333,880.556,47.222,N
482,-0.095,1.720,-0.125,58.333,88.889,322.222,916.667,36.111,N
483,-0.150,1.705,-0.250,58.333,86.111,322.222,969.444,52.778,N
484,-0.180,1.595,-0.280,58.333,88.889,327.778,925.000,44.444,N
485,-0.250,1.455,-0.305,58.333,88.889,327.778,933.333,8.333,N
486,-0.295,1.495,-0.290,58.333,88.889,325.000,938.889,5.556,N
487,-0.175,1.480,-0.295,58.333,88.889,338.889,980.556,41.667,N
488,-0.235,1.390,-0.235,58.333,86.111,325.000,983.333,2.778,N
489,-0.280,0.960,0.030,158.333,75.000,283.333,963.889,19.444,N
490,-0.140,1.005,-0.020,175.000,83.333,283.333,947.222,16.667,N
491,-0.315,1.055,0.010,166.667,75.000,288.889,886.111,61.111,N
492,-0.310,1.025,0.015,169.444,83.333,286.111,844.444,41.667,N
493,-0.285,1.095,0.065,183.333,86.111,302.778,847.222,2.778,N
494,-0.190,1.515,-0.225,58.333,88.889,336.111,869.444,22.222,N
495,-0.105,1.505,-0.150,58.333,86.111,336.111,897.222,27.778,N
496,-0.025,1.485,-0.065,58.333,88.889,344.444,933.333,36.111,N
497,0.015,1.420,-0.095,58.333,88.889,341.667,936.111,2.778,N
498,-0.040,1.290,-0.075,58.333,88.889,333.333,977.778,41.667,N
499,-0.040,1.565,-0.105,58.333,88.889,336.111,988.889,11.111,N
500,-0.115,1.580,-0.155,58.333,88.889,327.778,941.667,47.222,N
501,-0.085,1.605,-0.105,58.333,88.889,327.778,930.556,11.111,N
502,-0.085,1.525,-0.100,58.333,88.889,333.333,966.667,36.111,N
503,-0.050,1.410,-0.090,58.333,88.889,341.667,1027.778,61.111,N
504,-0.035,1.475,-0.120,58.333,88.889,352.778,1022.222,5.556,N
505,-0.035,1.470,-0.065,58.333,86.111,327.778,936.111,86.111,N
506,-0.020,1.420,-0.075,58.333,86.111,333.333,952.778,16.667,N
507,-0.040,1.330,-0.065,58.333,88.889,333.333,994.444,41.667,N
508,0.015,1.640,-0.050,58.333,86.111,322.222,950.000,44.444,N
509,0.010,1.530,-0.065,58.333,88.889,333.333,966.667,16.667,N
510,-0.055,1.455,-0.085,58.333,88.889,313.889,975.000,8.333,N
511,-0.025,1.430,-0.080,58.333,88.889,333.333,991.667,16.667,N
512,-0.080,1.230,0.265,177.778,88.889,313.889,1013.889,22.222,N
513,-0.120,1.295,0.250,163.889,80.556,283.333,925.000,88.889,N
514,-0.090,1.540,-0.150,58.333,86.111,330.556,897.222,27.778,N
515,0.000,1.630,-0.150,58.333,88.889,330.556,897.222,0.000,N
516,-0.065,1.470,-0.110,58.333,91.667,341.667,919.444,22.222,N
517,-0.120,1.325,0.345,161.111,86.111,300.000,977.778,58.333,N
518,-0.060,1.200,0.310,161.111,88.889,302.778,902.778,75.000,N
519,-0.100,1.715,-0.130,58.333,86.111,313.889,886.111,16.667,N
520,-0.055,1.635,-0.130,58.333,86.111,313.889,905.556,19.444,N
521,-0.055,1.645,0.265,58.333,86.111,283.333,908.333,2.778,N
522,-0.100,1.265,0.255,180.556,86.111,305.556,925.000,16.667,N
523,-0.005,1.755,-0.075,58.333,86.111,319.444,888.889,36.111,N
524,0.010,1.750,-0.040,58.333,88.889,330.556,888.889,0.000,N
525,0.035,1.735,-0.030,58.333,88.889,333.333,927.778,38.889,N
526,-0.110,1.285,0.200,177.778,80.556,275.000,963.889,36.111,N
527,-0.155,1.245,0.200,177.778,86.111,288.889,961.111,2.778,N
528,-0.205,1.035,0.175,169.444,86.111,297.222,891.667,69.444,N
529,-0.165,1.510,-0.200,58.333,86.111,338.889,888.889,2.778,N
530,-0.160,1.490,-0.195,58.333,88.889,330.556,911.111,22.222,N
531,-0.130,1.595,-0.200,58.333,86.111,341.667,855.556,55.556,N
532,-0.110,1.610,-0.190,58.333,88.889,336.111,933.333,77.778,N
533,-0.095,1.560,-0.115,58.333,86.111,344.444,994.444,61.111,N
534,-0.050,1.540,-0.115,58.333,86.111,325.000,1013.889,19.444,N
535,-0.080,1.695,-0.160,58.333,86.111,327.778,1038.889,25.000,N
536,-0.120,1.660,-0.135,58.333,86.111,325.000,897.222,141.667,N
537,-0.155,1.260,0.300,163.889,72.222,272.222,905.556,8.333,N
538,-0.165,1.140,0.240,186.111,80.556,302.778,911.111,5.556,N
539,-0.145,1.170,0.250,172.222,83.333,311.111,900.000,11.111,N
540,-0.190,1.135,0.205,172.222,80.556,286.111,836.111,63.889,N
541,-0.175,1.585,-0.200,58.333,88.889,336.111,811.111,25.000,N
542,-0.195,1.565,-0.200,58.333,88.889,325.000,855.556,44.444,N
543,-0.150,1.505,-0.205,58.333,88.889,286.111,891.667,36.111,N
544,-0.230,1.015,0.150,169.444,83.333,280.556,908.333,16.667,N
545,-0.210,0.905,0.140,169.444,83.333,286.111,930.556,22.222,N
546,-0.220,0.895,0.130,180.556,83.333,275.000,977.778,47.222,N
547,-0.185,0.840,0.160,166.667,83.333,294.444,947.222,30.556,N
548,-0.180,0.920,0.155,172.222,86.111,305.556,950.000,2.778,N
549,-0.150,0.955,0.205,161.111,86.111,283.333,844.444,105.556,N
550,-0.165,0.685,0.145,161.111,83.333,288.889,838.889,5.556,N
551,-0.190,1.005,0.165,169.444,80.556,280.556,847.222,8.333,N
552,-0.165,1.140,0.135,172.222,80.556,280.556,897.222,50.000,N
553,-0.135,1.170,0.135,163.889,86.111,286.111,897.222,0.000,N
554,-0.145,1.055,0.200,163.889,72.222,283.333,894.444,2.778,N
555,-0.190,1.150,0.240,175.000,86.111,305.556,822.222,72.222,N
556,-0.055,1.320,0.230,175.000,75.000,302.778,791.667,30.556,N
557,-0.180,1.310,0.220,177.778,86.111,288.889,775.000,16.667,N
558,-0.140,1.235,0.240,183.333,69.444,269.444,805.556,30.556,N
559,-0.180,1.325,0.270,180.556,69.444,288.889,872.222,66.667,N
560,-0.110,1.670,-0.135,58.333,88.889,327.778,852.778,19.444,N
561,-0.075,1.640,-0.140,58.333,88.889,313.889,905.556,52.778,N
562,-0.110,1.700,-0.120,58.333,86.111,327.778,922.222,16.667,N
563,-0.120,1.425,0.370,172.222,80.556,288.889,927.778,5.556,N
564,-0.005,1.890,-0.045,58.333,88.889,336.111,822.222,105.556,N
565,-0.030,1.815,-0.020,58.333,88.889,333.333,800.000,22.222,N
566,0.005,1.970,-0.025,58.333,88.889,322.222,791.667,8.333,N
567,-0.015,1.780,-0.070,58.333,88.889,311.111,777.778,13.889,N
568,-0.090,1.570,-0.100,58.333,88.889,322.222,794.444,16.667,N
569,-0.030,1.505,-0.040,58.333,88.889,333.333,838.889,44.444,N
570,-0.065,1.505,-0.050,58.333,88.889,316.667,900.000,61.111,N
571,-0.090,1.295,0.280,166.667,77.778,288.889,916.667,16.667,N
572,-0.065,1.585,-0.070,58.333,88.889,333.333,861.111,55.556,N
573,-0.060,1.560,-0.120,58.333,86.111,327.778,888.889,27.778,N
574,-0.165,1.055,0.260,163.889,83.333,291.667,888.889,0.000,N
575,-0.035,1.575,-0.115,58.333,86.111,311.111,852.778,36.111,N
576,-0.060,1.540,-0.045,58.333,88.889,333.333,847.222,5.556,N
577,0.025,1.615,-0.040,58.333,88.889,336.111,852.778,5.556,N
578,0.010,1.635,0.010,58.333,86.111,319.444,863.889,11.111,N
579,0.035,1.655,0.000,58.333,88.889,316.667,888.889,25.000,N
580,0.000,1.415,0.400,177.778,86.111,316.667,905.556,16.667,N
581,-0.025,1.485,0.375,172.222,86.111,283.333,833.333,72.222,N
582,0.015,1.640,-0.050,58.333,88.889,305.556,850.000,16.667,N
583,0.010,1.600,-0.075,58.333,88.889,330.556,872.222,22.222,N
584,-0.035,1.500,-0.120,58.333,86.111,344.444,916.667,44.444,N
585,-0.095,1.345,0.310,172.222,83.333,313.889,897.222,19.444,N
586,-0.025,1.385,0.360,161.111,86.111,294.444,847.222,50.000,N
587,0.005,1.680,-0.050,58.333,88.889,325.000,838.889,8.333,N
588,0.040,1.675,-0.020,58.333,88.889,327.778,872.222,33.333,N
589,-0.010,1.585,-0.065,58.333,88.889,347.222,911.111,38.889,N
590,-0.095,1.305,0.330,169.444,75.000,288.889,922.222,11.111,N
591,0.005,1.735,-0.080,58.333,86.111,319.444,888.889,33.333,N
592,-0.075,1.630,-0.105,58.333,88.889,322.222,902.778,13.889,N
593,-0.060,1.545,-0.105,58.333,88.889,316.667,922.222,19.444,N
594,-0.040,1.585,-0.095,58.333,88.889,333.333,966.667,44.444,N
595,-0.005,1.580,-0.100,58.333,86.111,330.556,952.778,13.889,N
596,-0.120,1.330,0.230,169.444,86.111,286.111,913.889,38.889,N
597,-0.130,1.310,0.245,172.222,69.444,272.222,897.222,16.667,N
598,-0.145,1.310,0.255,175.000,86.111,283.333,869.444,27.778,N
599,0.005,1.715,-0.080,58.333,86.111,325.000,833.333,36.111,N
600,0.020,1.730,-0.040,58.333,88.889,336.111,852.778,19.444,N
601,0.050,1.720,-0.025,58.333,88.889,311.111,897.222,44.444,N
602,0.070,1.550,0.015,58.333,88.889,316.667,922.222,25.000,N
603,0.070,1.645,-0.005,58.333,88.889,336.111,950.000,27.778,N
604,0.035,1.580,-0.005,58.333,88.889,338.889,997.222,47.222,N
605,0.005,1.675,-0.095,58.333,88.889,338.889,1002.778,5.556,N
606,-0.100,1.400,0.355,169.444,77.778,286.111,911.111,91.667,N
607,0.005,1.795,-0.060,58.333,86.111,308.333,844.444,66.667,N
608,0.005,1.700,-0.050,58.333,88.889,319.444,866.667,22.222,N
609,0.030,1.700,-0.055,58.333,88.889,322.222,900.000,33.333,N
610,-0.070,1.330,0.270,180.556,83.333,300.000,972.222,72.222,N
611,-0.090,1.325,0.235,166.667,86.111,291.667,950.000,22.222,N
612,-0.140,1.175,0.260,169.444,83.333,288.889,944.444,5.556,N
613,-0.120,1.305,0.300,175.000,86.111,308.333,872.222,72.222,N
614,0.000,1.715,-0.110,58.333,88.889,338.889,905.556,33.333,N
615,-0.020,1.785,-0.035,58.333,88.889,319.444,861.111,44.444,N
616,0.025,1.700,-0.005,58.333,88.889,316.667,900.000,38.889,N
617,0.045,1.650,0.055,58.333,88.889,322.222,888.889,11.111,N
618,0.075,1.485,0.020,58.333,88.889,322.222,938.889,50.000,N
619,-0.030,1.225,0.405,166.667,86.111,294.444,963.889,25.000,N
620,-0.040,1.245,0.395,175.000,83.333,300.000,883.333,80.556,N
621,0.010,1.560,-0.035,58.333,88.889,322.222,888.889,5.556,N
622,0.010,1.580,-0.020,58.333,88.889,319.444,900.000,11.111,N
623,0.015,1.385,-0.070,58.333,88.889,338.889,916.667,16.667,N
624,0.000,1.440,-0.080,58.333,88.889,341.667,958.333,41.667,N
625,-0.115,1.205,0.265,169.444,86.111,313.889,938.889,19.444,N
626,-0.095,1.335,0.220,166.667,72.222,283.333,950.000,11.111,N
627,-0.100,1.245,0.205,172.222,86.111,288.889,911.111,38.889,N
628,-0.195,1.070,0.145,169.444,83.333,308.333,905.556,5.556,N
629,-0.215,1.110,0.195,172.222,77.778,291.667,922.222,16.667,N
630,-0.145,1.295,0.270,163.889,69.444,275.000,861.111,61.111,N
631,-0.135,1.295,0.260,172.222,80.556,291.667,833.333,27.778,N
632,-0.110,1.340,0.280,155.556,86.111,280.556,788.889,44.444,N
633,-0.110,1.275,0.230,177.778,86.111,308.333,766.667,22.222,N
634,-0.115,1.170,0.200,180.556,88.889,305.556,830.556,63.889,N
635,-0.200,1.115,0.190,177.778,86.111,277.778,872.222,41.667,N
636,-0.180,1.130,0.190,163.889,72.222,286.111,913.889,41.667,N
637,-0.220,1.160,0.195,175.000,86.111,297.222,919.444,5.556,N
638,-0.155,1.210,0.240,175.000,86.111,313.889,958.333,38.889,N
639,-0.215,1.100,0.180,177.778,86.111,313.889,866.667,91.667,N
640,-0.225,1.125,0.190,169.444,80.556,288.889,891.667,25.000,N
641,-0.230,1.010,0.200,163.889,86.111,311.111,916.667,25.000,N
642,-0.240,1.025,0.190,175.000,83.333,302.778,869.444,47.222,N
643,-0.205,1.205,0.235,175.000,86.111,311.111,863.889,5.556,N
644,-0.230,1.310,0.240,177.778,75.000,291.667,877.778,13.889,N
645,-0.120,1.655,-0.165,58.333,88.889,322.222,916.667,38.889,N
646,-0.085,1.665,-0.085,58.333,86.111,313.889,913.889,2.778,N
647,-0.120,1.660,-0.115,58.333,86.111,319.444,922.222,8.333,N
648,-0.075,1.515,-0.160,58.333,88.889,330.556,952.778,30.556,N
649,-0.150,1.565,-0.190,58.333,88.889,352.778,877.778,75.000,N
650,-0.120,1.560,-0.170,58.333,88.889,327.778,911.111,33.333,N
651,-0.180,1.425,-0.185,58.333,88.889,311.111,938.889,27.778,N
652,-0.180,1.450,-0.150,58.333,86.111,316.667,952.778,13.889,N
653,-0.205,1.255,0.235,169.444,77.778,291.667,963.889,11.111,N
654,-0.235,1.145,0.200,175.000,88.889,311.111,913.889,50.000,N
655,-0.115,1.530,-0.200,58.333,88.889,330.556,916.667,2.778,N
656,-0.130,1.505,-0.155,58.333,86.111,327.778,936.111,19.444,N
657,-0.140,1.535,-0.160,58.333,86.111,319.444,913.889,22.222,N
658,-0.070,1.495,-0.160,58.333,86.111,322.222,955.556,41.667,N
659,-0.195,1.210,0.210,177.778,69.444,288.889,919.444,36.111,N
660,-0.120,1.570,-0.165,58.333,86.111,333.333,908.333,11.111,N
661,-0.120,1.585,-0.130,58.333,86.111,311.111,927.778,19.444,N
662,-0.085,1.535,-0.085,58.333,88.889,327.778,941.667,13.889,N
663,-0.150,1.275,0.200,163.889,75.000,288.889,969.444,27.778,N
664,-0.220,1.110,0.165,175.000,86.111,311.111,983.333,13.889,N
665,-0.265,1.115,0.130,172.222,72.222,291.667,908.333,75.000,N
666,-0.265,1.175,0.115,163.889,83.333,300.000,902.778,5.556,N
667,-0.255,1.085,0.105,175.000,86.111,316.667,925.000,22.222,N
668,-0.260,1.220,0.195,169.444,83.333,283.333,927.778,2.778,N
669,-0.255,1.145,0.150,166.667,86.111,294.444,894.444,33.333,N
670,-0.220,1.145,0.185,172.222,77.778,288.889,902.778,8.333,N
671,-0.225,1.150,0.255,175.000,80.556,294.444,908.333,5.556,N
672,-0.135,1.310,0.295,169.444,77.778,291.667,858.333,50.000,N
673,-0.040,1.445,-0.135,58.333,88.889,308.333,852.778,5.556,N
674,0.005,1.630,-0.105,58.333,88.889,330.556,872.222,19.444,N
675,-0.035,1.655,-0.110,58.333,86.111,330.556,836.111,36.111,N
676,-0.075,1.535,-0.080,58.333,88.889,325.000,872.222,36.111,N
677,-0.040,1.420,-0.075,58.333,88.889,330.556,894.444,22.222,N
678,-0.070,1.510,-0.110,58.333,86.111,333.333,933.333,38.889,N
679,-0.020,1.605,-0.130,58.333,86.111,308.333,863.889,69.444,N
680,-0.085,1.545,-0.135,58.333,88.889,319.444,891.667,27.778,N
681,-0.060,1.470,-0.105,58.333,86.111,325.000,894.444,2.778,N
682,-0.045,1.615,-0.130,58.333,86.111,327.778,863.889,30.556,N
683,-0.060,1.570,-0.120,58.333,88.889,333.333,861.111,2.778,N
684,-0.080,1.555,-0.135,58.333,86.111,336.111,897.222,36.111,N
685,-0.125,1.185,0.225,169.444,86.111,291.667,913.889,16.667,N
686,-0.170,1.225,0.175,163.889,69.444,258.333,916.667,2.778,N
687,-0.255,1.155,0.155,175.000,72.222,288.889,869.444,47.222,N
688,-0.125,1.470,-0.200,58.333,88.889,313.889,861.111,8.333,N
689,-0.075,1.525,-0.205,58.333,86.111,330.556,847.222,13.889,N
690,-0.275,1.030,0.335,163.889,75.000,275.000,805.556,41.667,N
691,-0.300,0.885,0.265,177.778,86.111,286.111,777.778,27.778,N
692,-0.225,1.055,0.055,172.222,77.778,283.333,719.444,58.333,N
693,-0.365,0.840,0.250,169.444,80.556,283.333,694.444,25.000,N
694,-0.195,0.895,0.330,177.778,88.889,300.000,686.111,8.333,N
695,-0.175,0.940,0.245,183.333,86.111,308.333,697.222,11.111,N
696,-0.275,0.970,0.240,163.889,75.000,286.111,688.889,8.333,N
697,-0.035,1.060,0.340,169.444,88.889,294.444,672.222,16.667,N
698,-0.055,1.000,0.310,163.889,83.333,291.667,727.778,55.556,N
699,-0.005,1.325,0.400,166.667,77.778,286.111,908.333,180.556,N
700,-0.010,1.355,0.350,166.667,72.222,283.333,963.889,55.556,N
701,-0.045,1.365,0.300,177.778,83.333,316.667,944.444,19.444,N
702,-0.060,1.545,-0.080,58.333,86.111,327.778,988.889,44.444,N
703,-0.140,1.530,-0.130,58.333,86.111,319.444,972.222,16.667,N
704,-0.055,1.580,-0.030,58.333,88.889,308.333,922.222,50.000,N
705,-0.060,1.635,-0.005,58.333,88.889,316.667,922.222,0.000,N
706,-0.085,1.625,-0.045,58.333,88.889,300.000,911.111,11.111,N
707,-0.065,1.635,-0.060,58.333,88.889,325.000,872.222,38.889,N
708,-0.135,1.590,-0.100,58.333,88.889,325.000,872.222,0.000,N
709,-0.095,1.640,-0.085,58.333,86.111,305.556,894.444,22.222,N
710,-0.120,1.275,0.305,158.333,86.111,305.556,933.333,38.889,N
711,-0.105,1.330,0.325,158.333,75.000,291.667,936.111,2.778,N
712,-0.165,1.165,0.220,169.444,86.111,311.111,947.222,11.111,N
713,-0.185,1.110,0.245,175.000,86.111,308.333,911.111,36.111,N
714,-0.095,1.540,-0.040,58.333,86.111,294.444,911.111,0.000,N
715,-0.005,1.555,0.025,58.333,88.889,319.444,913.889,2.778,N
716,0.015,1.395,0.460,175.000,86.111,286.111,938.889,25.000,N
717,0.050,1.365,0.400,172.222,86.111,316.667,897.222,41.667,N
718,-0.055,1.150,0.335,166.667,77.778,313.889,897.222,0.000,N
719,-0.005,1.385,0.420,166.667,72.222,288.889,861.111,36.111,N
720,-0.055,1.280,0.330,172.222,86.111,283.333,819.444,41.667,N
721,-0.075,1.330,0.360,158.333,69.444,286.111,777.778,41.667,N
722,-0.055,1.240,0.365,166.667,75.000,283.333,775.000,2.778,N
723,-0.085,1.180,0.335,166.667,80.556,286.111,836.111,61.111,N
724,-0.115,1.190,0.320,169.444,72.222,280.556,930.556,94.444,N
725,-0.070,1.215,0.300,175.000,83.333,283.333,947.222,16.667,N
726,-0.170,1.240,0.335,177.778,86.111,311.111,969.444,22.222,N
727,-0.030,1.755,-0.030,58.333,86.111,311.111,905.556,63.889,N
728,-0.030,1.725,-0.025,58.333,88.889,316.667,891.667,13.889,N
729,-0.035,1.620,-0.045,58.333,88.889,305.556,880.556,11.111,N
730,-0.020,1.680,-0.050,58.333,88.889,313.889,930.556,50.000,N
731,-0.050,1.620,-0.090,58.333,88.889,325.000,950.000,19.444,N
732,-0.035,1.705,-0.095,58.333,88.889,319.444,936.111,13.889,N
733,-0.070,1.665,-0.110,58.333,86.111,300.000,922.222,13.889,N
734,-0.075,1.610,-0.060,58.333,88.889,308.333,925.000,2.778,N
735,-0.050,1.680,-0.090,58.333,86.111,330.556,913.889,11.111,N
736,-0.005,1.785,-0.040,58.333,88.889,333.333,916.667,2.778,N
737,0.025,1.820,0.000,58.333,88.889,327.778,913.889,2.778,N
738,-0.040,1.770,0.010,58.333,88.889,319.444,919.444,5.556,N
739,0.055,1.700,0.000,58.333,88.889,311.111,913.889,5.556,N
740,-0.015,1.750,-0.060,58.333,88.889,316.667,922.222,8.333,N
741,0.015,1.775,-0.050,58.333,86.111,336.111,883.333,38.889,N
742,-0.015,1.605,-0.060,58.333,88.889,330.556,902.778,19.444,N
743,-0.140,1.190,0.270,163.889,83.333,286.111,908.333,5.556,N
744,-0.175,1.255,0.240,158.333,86.111,297.222,855.556,52.778,N
745,-0.110,1.570,-0.135,58.333,88.889,327.778,836.111,19.444,N
746,-0.080,1.600,-0.060,58.333,88.889,327.778,869.444,33.333,N
747,-0.125,1.330,0.305,161.111,77.778,286.111,900.000,30.556,N
748,-0.095,1.115,0.275,169.444,80.556,283.333,908.333,8.333,N
749,-0.150,1.190,0.260,175.000,80.556,286.111,861.111,47.222,N
750,-0.200,1.295,0.195,180.556,86.111,316.667,877.778,16.667,N
751,-0.215,1.235,0.210,175.000,80.556,286.111,863.889,13.889,N
752,-0.220,1.185,0.200,186.111,86.111,305.556,886.111,22.222,N
753,-0.215,1.160,0.215,169.444,75.000,280.556,875.000,11.111,N
754,-0.195,1.175,0.230,175.000,83.333,305.556,852.778,22.222,N
755,-0.170,1.275,0.215,163.889,75.000,294.444,875.000,22.222,N
756,-0.185,1.240,0.290,166.667,80.556,313.889,875.000,0.000,N
757,-0.190,1.115,0.220,177.778,86.111,283.333,877.778,2.778,N
758,-0.090,1.545,-0.105,58.333,88.889,316.667,897.222,19.444,N
759,-0.085,1.560,-0.070,58.333,88.889,322.222,902.778,5.556,N
760,-0.005,1.615,-0.050,58.333,88.889,336.111,886.111,16.667,N
761,0.010,1.595,-0.035,58.333,86.111,311.111,925.000,38.889,N
762,-0.035,1.655,-0.080,58.333,88.889,313.889,900.000,25.000,N
763,-0.080,1.575,-0.090,58.333,88.889,319.444,930.556,30.556,N
764,-0.045,1.440,-0.045,58.333,88.889,319.444,927.778,2.778,N
765,-0.110,1.100,0.365,175.000,86.111,302.778,911.111,16.667,N
766,-0.135,1.205,0.290,183.333,72.222,288.889,877.778,33.333,N
767,-0.150,1.040,0.255,177.778,86.111,288.889,916.667,38.889,N
768,-0.125,1.165,0.280,183.333,86.111,300.000,913.889,2.778,N
769,-0.170,1.070,0.235,175.000,88.889,302.778,891.667,22.222,N
770,-0.235,0.850,0.235,169.444,77.778,288.889,883.333,8.333,N
771,-0.065,1.480,-0.105,58.333,86.111,327.778,902.778,19.444,N
772,-0.025,1.565,-0.095,58.333,86.111,313.889,919.444,16.667,N
773,-0.135,1.315,0.345,180.556,80.556,277.778,897.222,22.222,N
774,-0.025,1.740,-0.060,58.333,86.111,325.000,813.889,83.333,N
775,-0.030,1.750,-0.055,58.333,86.111,325.000,805.556,8.333,N
776,-0.090,1.350,0.345,169.444,69.444,277.778,800.000,5.556,N
777,-0.065,1.330,0.310,188.889,69.444,280.556,891.667,91.667,N
778,-0.095,1.225,0.265,177.778,86.111,300.000,933.333,41.667,N
779,-0.155,1.175,0.255,175.000,83.333,280.556,891.667,41.667,N
780,-0.160,1.235,0.270,172.222,69.444,286.111,875.000,16.667,N
781,-0.155,1.310,0.235,169.444,83.333,286.111,888.889,13.889,N
782,-0.180,1.325,0.265,180.556,75.000,288.889,880.556,8.333,N
783,-0.175,1.280,0.260,177.778,86.111,305.556,866.667,13.889,N
784,-0.155,1.310,0.275,172.222,86.111,294.444,850.000,16.667,N
785,-0.160,1.325,0.285,166.667,83.333,291.667,866.667,16.667,N
786,-0.155,1.270,0.280,172.222,86.111,311.111,902.778,36.111,N
787,-0.160,1.115,0.265,177.778,86.111,313.889,938.889,36.111,N
788,-0.165,1.165,0.295,172.222,80.556,280.556,933.333,5.556,N
789,-0.075,1.415,-0.070,58.333,88.889,313.889,933.333,0.000,N
790,-0.050,1.485,-0.060,58.333,86.111,319.444,938.889,5.556,N
791,-0.110,1.370,0.380,163.889,77.778,286.111,922.222,16.667,N
792,-0.075,1.405,0.380,169.444,80.556,297.222,872.222,50.000,N
793,0.055,1.695,0.020,58.333,88.889,330.556,880.556,8.333,N
794,0.020,1.635,0.025,58.333,86.111,313.889,902.778,22.222,N
795,-0.090,1.325,0.330,172.222,77.778,283.333,886.111,16.667,N
796,-0.130,1.180,0.315,172.222,86.111,308.333,875.000,11.111,N
797,0.015,1.480,0.015,58.333,88.889,327.778,952.778,77.778,N
798,0.015,1.540,-0.065,58.333,88.889,327.778,955.556,2.778,N
799,-0.010,1.650,-0.025,58.333,86.111,316.667,897.222,58.333,N
800,-0.005,1.630,0.045,58.333,88.889,319.444,883.333,13.889,N
801,0.015,1.515,-0.005,58.333,86.111,311.111,919.444,36.111,N
802,-0.080,1.200,0.395,177.778,83.333,305.556,863.889,55.556,N
803,-0.010,1.660,-0.055,58.333,86.111,325.000,841.667,22.222,N
804,-0.055,1.635,-0.020,58.333,88.889,313.889,858.333,16.667,N
805,-0.030,1.725,-0.015,58.333,86.111,302.778,875.000,16.667,N
806,-0.095,1.310,0.360,180.556,66.667,291.667,902.778,27.778,N
807,-0.130,1.225,0.310,180.556,80.556,294.444,897.222,5.556,N
808,-0.140,1.260,0.320,169.444,83.333,294.444,855.556,41.667,N
809,-0.125,1.230,0.330,169.444,75.000,288.889,852.778,2.778,N
810,-0.125,1.340,0.295,183.333,69.444,280.556,866.667,13.889,N
811,-0.120,1.265,0.315,169.444,80.556,308.333,880.556,13.889,N
812,-0.115,1.345,0.365,180.556,86.111,311.111,847.222,33.333,N
813,-0.080,1.285,0.345,172.222,88.889,316.667,825.000,22.222,N
814,-0.080,1.340,0.335,161.111,72.222,283.333,850.000,25.000,N
815,-0.140,1.320,0.300,163.889,69.444,283.333,833.333,16.667,N
816,-0.145,1.335,0.305,166.667,72.222,280.556,808.333,25.000,N
817,-0.075,1.270,0.310,172.222,86.111,316.667,813.889,5.556,N
818,-0.125,1.415,0.295,169.444,77.778,283.333,855.556,41.667,N
819,-0.080,1.435,0.345,163.889,72.222,286.111,861.111,5.556,N
820,-0.025,1.300,0.305,169.444,77.778,280.556,877.778,16.667,N
821,-0.035,1.400,0.380,155.556,86.111,305.556,877.778,0.000,N
822,0.000,1.160,0.380,175.000,86.111,305.556,863.889,13.889,N
823,-0.065,1.315,0.320,183.333,66.667,288.889,811.111,52.778,N
824,-0.140,1.250,0.300,175.000,83.333,308.333,822.222,11.111,N
825,-0.090,1.390,0.335,169.444,83.333,291.667,827.778,5.556,N
826,-0.105,1.405,0.310,183.333,86.111,311.111,811.111,16.667,N
827,-0.120,1.400,0.280,172.222,77.778,272.222,827.778,16.667,N
828,-0.025,1.585,-0.080,58.333,86.111,319.444,900.000,72.222,N
829,-0.010,1.590,-0.085,58.333,86.111,325.000,952.778,52.778,N
830,-0.150,1.210,0.270,180.556,86.111,308.333,916.667,36.111,N
831,-0.085,1.635,-0.085,58.333,88.889,319.444,894.444,22.222,N
832,-0.015,1.575,-0.035,58.333,88.889,327.778,963.889,69.444,N
833,0.020,1.770,-0.080,58.333,86.111,338.889,944.444,19.444,N
834,-0.015,1.610,-0.065,58.333,86.111,330.556,922.222,22.222,N
835,0.005,1.610,-0.040,58.333,86.111,305.556,925.000,2.778,N
836,-0.115,1.355,0.380,180.556,69.444,286.111,866.667,58.333,N
837,-0.005,1.650,-0.040,58.333,88.889,316.667,861.111,5.556,N
838,0.015,1.550,-0.035,58.333,88.889,316.667,913.889,52.778,N
839,-0.035,1.460,-0.050,58.333,88.889,330.556,961.111,47.222,N
840,0.000,1.505,-0.045,58.333,86.111,288.889,947.222,13.889,N
841,-0.025,1.330,-0.015,58.333,88.889,316.667,969.444,22.222,N
842,0.040,1.345,-0.060,58.333,88.889,330.556,980.556,11.111,N
843,-0.135,1.105,0.275,186.111,83.333,297.222,911.111,69.444,N
844,-0.135,1.025,0.305,177.778,86.111,311.111,886.111,25.000,N
845,-0.140,1.160,0.335,177.778,80.556,302.778,875.000,11.111,N
846,-0.150,1.340,0.355,161.111,80.556,286.111,844.444,30.556,N
847,-0.065,1.320,0.350,175.000,80.556,308.333,841.667,2.778,N
848,-0.090,1.400,0.310,188.889,72.222,286.111,858.333,16.667,N
849,-0.040,1.635,-0.015,58.333,88.889,325.000,872.222,13.889,N
850,0.055,1.740,0.005,58.333,88.889,305.556,891.667,19.444,N
851,0.090,1.780,-0.010,58.333,88.889,308.333,894.444,2.778,N
852,-0.075,1.240,0.355,175.000,86.111,302.778,894.444,0.000,N
853,-0.135,1.285,0.305,172.222,83.333,291.667,855.556,38.889,N
854,-0.110,1.395,0.290,175.000,86.111,286.111,875.000,19.444,N
855,-0.150,1.260,0.300,166.667,77.778,294.444,886.111,11.111,N
856,-0.120,1.285,0.320,166.667,80.556,291.667,877.778,8.333,N
857,-0.125,1.250,0.315,166.667,72.222,280.556,827.778,50.000,N
858,-0.095,1.460,0.350,177.778,83.333,311.111,850.000,22.222,N
859,-0.085,1.425,0.330,186.111,72.222,280.556,880.556,30.556,N
860,-0.150,1.280,0.230,186.111,75.000,288.889,833.333,47.222,N
861,-0.240,1.080,0.190,172.222,80.556,275.000,847.222,13.889,N
862,-0.225,1.060,0.200,172.222,86.111,288.889,872.222,25.000,N
863,-0.175,1.085,0.225,172.222,83.333,280.556,897.222,25.000,N
864,-0.170,1.100,0.270,183.333,88.889,300.000,916.667,19.444,N
865,-0.185,1.190,0.265,175.000,86.111,313.889,863.889,52.778,N
866,-0.205,1.165,0.220,169.444,80.556,283.333,822.222,41.667,N
867,-0.230,1.180,0.165,175.000,86.111,283.333,808.333,13.889,N
868,-0.245,1.155,0.195,163.889,75.000,288.889,783.333,25.000,N
869,-0.210,1.105,0.170,177.778,86.111,300.000,861.111,77.778,N
870,-0.170,1.080,0.190,180.556,86.111,286.111,922.222,61.111,N
871,-0.190,1.060,0.200,169.444,75.000,283.333,886.111,36.111,N
872,-0.215,1.045,0.175,175.000,83.333,308.333,841.667,44.444,N
873,-0.195,1.095,0.205,177.778,86.111,300.000,869.444,27.778,N
874,-0.180,1.135,0.270,166.667,86.111,286.111,872.222,2.778,N
875,-0.150,1.255,0.350,180.556,83.333,300.000,872.222,0.000,N
876,-0.125,1.330,0.305,169.444,75.000,283.333,883.333,11.111,N
877,-0.160,1.155,0.260,175.000,88.889,308.333,858.333,25.000,N
878,-0.195,1.105,0.215,161.111,75.000,294.444,869.444,11.111,N
879,-0.255,1.055,0.195,177.778,86.111,305.556,825.000,44.444,N
880,-0.205,1.020,0.185,175.000,83.333,280.556,822.222,2.778,N
881,-0.205,1.050,0.205,175.000,86.111,305.556,841.667,19.444,N
882,-0.145,1.115,0.220,166.667,83.333,286.111,861.111,19.444,N
883,-0.155,1.055,0.210,169.444,75.000,277.778,861.111,0.000,N
884,-0.125,1.175,0.295,172.222,80.556,308.333,877.778,16.667,N
885,-0.205,1.155,0.205,161.111,72.222,280.556,786.111,91.667,N
886,-0.225,1.180,0.200,169.444,75.000,286.111,797.222,11.111,N
887,-0.185,1.275,0.215,172.222,83.333,286.111,811.111,13.889,N
888,-0.160,1.100,0.215,169.444,75.000,311.111,797.222,13.889,N
889,-0.215,1.195,0.205,163.889,83.333,302.778,794.444,2.778,N
890,-0.160,1.185,0.240,177.778,86.111,308.333,791.667,2.778,N
891,-0.190,1.190,0.200,177.778,86.111,305.556,800.000,8.333,N
892,-0.210,1.055,0.140,169.444,83.333,286.111,819.444,19.444,N
893,-0.215,1.165,0.185,161.111,75.000,294.444,855.556,36.111,N
894,-0.200,1.140,0.160,175.000,86.111,277.778,855.556,0.000,N
895,-0.175,1.145,0.200,180.556,86.111,311.111,875.000,19.444,N
896,-0.225,1.085,0.165,166.667,80.556,283.333,819.444,55.556,N
897,-0.230,1.105,0.200,169.444,86.111,311.111,841.667,22.222,N
898,-0.225,1.255,0.210,172.222,86.111,283.333,830.556,11.111,N
899,-0.200,1.260,0.220,177.778,86.111,302.778,811.111,19.444,N
900,-0.220,1.175,0.210,169.444,77.778,283.333,819.444,8.333,N
901,-0.235,1.290,0.275,183.333,86.111,305.556,852.778,33.333,N
902,-0.160,1.370,0.330,183.333,77.778,288.889,905.556,52.778,N
903,-0.005,1.700,-0.040,58.333,88.889,336.111,930.556,25.000,N
904,-0.015,1.630,-0.005,58.333,86.111,319.444,941.667,11.111,N
905,-0.025,1.570,-0.030,58.333,86.111,311.111,947.222,5.556,N
906,-0.150,1.260,0.310,163.889,75.000,286.111,925.000,22.222,N
907,-0.175,1.310,0.355,158.333,80.556,302.778,855.556,69.444,N
908,-0.120,1.430,0.340,177.778,83.333,302.778,827.778,27.778,N
909,-0.095,1.405,0.400,177.778,86.111,302.778,836.111,8.333,N
910,-0.125,1.440,0.335,166.667,80.556,291.667,847.222,11.111,N
911,-0.060,1.565,-0.040,55.556,86.111,313.889,908.333,61.111,N
912,0.025,1.680,0.050,58.333,88.889,319.444,933.333,25.000,N
913,0.040,1.675,0.050,58.333,88.889,327.778,925.000,8.333,N
914,-0.040,1.350,-0.075,58.333,88.889,322.222,913.889,11.111,N
915,-0.180,1.150,0.270,161.111,72.222,283.333,883.333,30.556,N
916,-0.195,1.135,0.215,172.222,86.111,297.222,880.556,2.778,N
917,-0.205,1.080,0.200,175.000,83.333,288.889,869.444,11.111,N
918,-0.255,1.055,0.230,175.000,80.556,313.889,830.556,38.889,N
919,-0.230,1.095,0.200,161.111,83.333,286.111,830.556,0.000,N
920,-0.230,0.815,0.220,161.111,86.111,305.556,852.778,22.222,N
921,-0.215,1.110,0.250,163.889,86.111,294.444,883.333,30.556,N
922,-0.170,1.275,0.265,161.111,69.444,286.111,925.000,41.667,N
923,-0.150,1.160,0.265,161.111,66.667,283.333,900.000,25.000,N
924,-0.130,1.280,0.295,161.111,72.222,280.556,908.333,8.333,N
925,-0.175,1.255,0.270,177.778,69.444,288.889,891.667,16.667,N
926,-0.155,1.315,0.335,183.333,86.111,302.778,900.000,8.333,N
927,-0.175,1.325,0.340,183.333,86.111,305.556,836.111,63.889,N
928,-0.140,1.335,0.295,175.000,86.111,297.222,844.444,8.333,N
929,-0.160,1.280,0.245,172.222,77.778,272.222,877.778,33.333,N
930,-0.200,1.240,0.245,177.778,69.444,277.778,883.333,5.556,N
931,-0.170,1.315,0.310,175.000,80.556,308.333,883.333,0.000,N
932,-0.180,1.300,0.270,183.333,86.111,313.889,877.778,5.556,N
933,-0.185,1.330,0.260,180.556,86.111,311.111,897.222,19.444,N
934,-0.160,1.255,0.270,177.778,86.111,283.333,894.444,2.778,N
935,-0.190,1.215,0.290,183.333,69.444,286.111,880.556,13.889,N
936,-0.215,1.130,0.190,180.556,88.889,311.111,866.667,13.889,N
937,-0.260,1.090,0.160,166.667,80.556,286.111,886.111,19.444,N
938,-0.275,0.910,0.145,177.778,86.111,308.333,913.889,27.778,N
939,-0.280,1.090,0.180,172.222,77.778,283.333,919.444,5.556,N
940,-0.270,1.025,0.165,166.667,83.333,283.333,830.556,88.889,N
941,-0.245,1.165,0.195,172.222,86.111,288.889,844.444,13.889,N
942,-0.215,1.205,0.180,175.000,83.333,313.889,863.889,19.444,N
943,-0.260,1.165,0.135,163.889,75.000,283.333,927.778,63.889,N
944,-0.320,1.300,0.195,183.333,63.889,283.333,888.889,38.889,N
945,-0.255,1.275,0.220,172.222,86.111,316.667,858.333,30.556,N
946,-0.235,1.190,0.230,163.889,77.778,300.000,880.556,22.222,N
947,-0.235,1.195,0.215,175.000,83.333,280.556,886.111,5.556,N
948,-0.130,1.430,-0.125,58.333,88.889,308.333,911.111,25.000,N
949,-0.060,1.580,-0.085,58.333,86.111,327.778,908.333,2.778,N
950,-0.165,1.270,0.305,180.556,72.222,288.889,830.556,77.778,N
951,-0.145,1.285,0.280,172.222,80.556,280.556,813.889,16.667,N
952,-0.165,1.335,0.275,169.444,77.778,283.333,794.444,19.444,N
953,-0.160,1.375,0.270,183.333,69.444,280.556,861.111,66.667,N
954,-0.195,1.175,0.230,172.222,75.000,288.889,869.444,8.333,N
955,-0.215,1.330,0.230,169.444,77.778,283.333,908.333,38.889,N
956,-0.180,1.305,0.300,172.222,83.333,286.111,938.889,30.556,N
957,-0.235,1.210,0.250,180.556,86.111,291.667,872.222,66.667,N
958,-0.195,1.360,0.265,166.667,77.778,288.889,891.667,19.444,N
959,-0.180,1.345,0.310,183.333,72.222,288.889,925.000,33.333,N
960,-0.205,1.240,0.270,172.222,75.000,277.778,911.111,13.889,N
961,-0.230,1.255,0.230,172.222,83.333,286.111,875.000,36.111,N
962,-0.250,1.255,0.220,158.333,86.111,308.333,875.000,0.000,N
963,-0.205,1.135,0.225,177.778,88.889,313.889,900.000,25.000,N
964,-0.180,1.200,0.215,166.667,77.778,294.444,916.667,16.667,N
965,-0.185,1.145,0.250,155.556,86.111,302.778,891.667,25.000,N
966,-0.195,1.330,0.285,161.111,69.444,286.111,872.222,19.444,N
967,-0.195,1.300,0.260,161.111,77.778,288.889,805.556,66.667,N
968,-0.185,1.155,0.260,169.444,83.333,305.556,775.000,30.556,N
969,-0.170,1.215,0.260,172.222,83.333,291.667,800.000,25.000,N
970,-0.205,1.285,0.220,180.556,69.444,291.667,850.000,50.000,N
971,-0.220,1.125,0.175,169.444,86.111,288.889,886.111,36.111,N
972,-0.230,0.730,0.190,166.667,75.000,294.444,919.444,33.333,N
973,-0.225,1.185,0.225,169.444,83.333,286.111,886.111,33.333,N
974,-0.215,1.280,0.240,166.667,72.222,283.333,886.111,0.000,N
975,-0.210,1.310,0.245,169.444,83.333,308.333,877.778,8.333,N
976,-0.165,1.265,0.235,158.333,86.111,300.000,886.111,8.333,N
977,-0.195,1.230,0.245,158.333,72.222,283.333,905.556,19.444,N
978,-0.170,1.140,0.220,158.333,66.667,280.556,930.556,25.000,N
979,-0.225,1.130,0.185,155.556,66.667,283.333,936.111,5.556,N
980,-0.400,1.140,0.175,172.222,80.556,283.333,880.556,55.556,N
981,-0.195,1.205,0.135,169.444,83.333,288.889,833.333,47.222,N
982,-0.250,1.220,0.270,169.444,80.556,286.111,802.778,30.556,N
983,-0.120,1.300,0.285,169.444,72.222,283.333,858.333,55.556,N
984,-0.125,1.205,0.260,180.556,69.444,291.667,897.222,38.889,N
985,-0.180,1.215,0.205,180.556,86.111,308.333,894.444,2.778,N
986,-0.260,1.050,0.175,177.778,86.111,283.333,825.000,69.444,N
987,-0.260,1.080,0.170,166.667,75.000,280.556,788.889,36.111,N
988,-0.245,1.070,0.185,180.556,88.889,311.111,780.556,8.333,N
989,-0.185,0.960,0.235,166.667,83.333,291.667,786.111,5.556,N
990,-0.200,1.105,0.255,155.556,86.111,300.000,825.000,38.889,N
991,-0.185,1.025,0.245,183.333,88.889,302.778,800.000,25.000,N
992,-0.200,1.010,0.185,180.556,69.444,277.778,805.556,5.556,N
993,-0.255,0.950,0.165,169.444,83.333,283.333,850.000,44.444,N
994,-0.285,1.070,0.165,166.667,77.778,286.111,858.333,8.333,N
995,-0.255,0.920,0.195,180.556,86.111,311.111,880.556,22.222,N
996,-0.235,1.085,0.255,175.000,77.778,291.667,847.222,33.333,N
997,-0.190,1.300,0.285,172.222,66.667,286.111,863.889,16.667,N
998,-0.145,1.200,0.305,161.111,69.444,288.889,866.667,2.778,N
999,-0.220,1.130,0.240,177.778,75.000,291.667,802.778,63.889,N
1000,-0.235,1.225,0.180,172.222,86.111,311.111,800.000,2.778,N
1001,-0.250,1.305,0.215,172.222,86.111,319.444,819.444,19.444,N
1002,-0.195,1.105,0.205,158.333,72.222,286.111,850.000,30.556,N
1003,-0.235,1.200,0.180,172.222,72.222,286.111,869.444,19.444,N
1004,-0.205,1.225,0.250,161.111,69.444,280.556,872.222,2.778,N
1005,-0.230,1.215,0.240,172.222,77.778,283.333,841.667,30.556,N
1006,-0.215,1.215,0.195,161.111,75.000,283.333,855.556,13.889,N
1007,-0.245,1.225,0.225,177.778,86.111,305.556,830.556,25.000,N
1008,-0.190,1.180,0.230,161.111,75.000,288.889,838.889,8.333,N
1009,-0.170,1.150,0.265,172.222,86.111,308.333,858.333,19.444,N
1010,-0.190,1.095,0.275,175.000,83.333,302.778,833.333,25.000,N
1011,-0.200,1.315,0.245,177.778,86.111,313.889,791.667,41.667,N
1012,-0.185,1.215,0.250,183.333,83.333,308.333,783.333,8.333,N
1013,-0.200,1.160,0.220,161.111,75.000,286.111,802.778,19.444,N
1014,-0.200,1.025,0.220,175.000,69.444,286.111,833.333,30.556,N
1015,-0.220,0.910,0.215,169.444,83.333,286.111,813.889,19.444,N
1016,-0.130,1.155,0.265,169.444,83.333,302.778,863.889,50.000,N
1017,-0.160,1.115,0.315,166.667,77.778,294.444,925.000,61.111,N
1018,-0.205,1.130,0.205,175.000,83.333,280.556,852.778,72.222,N
1019,-0.230,1.150,0.235,155.556,72.222,288.889,844.444,8.333,N
1020,-0.230,1.185,0.220,177.778,86.111,302.778,863.889,19.444,N
1021,-0.200,1.095,0.290,166.667,86.111,302.778,872.222,8.333,N
1022,-0.180,1.040,0.325,166.667,75.000,283.333,844.444,27.778,N
1023,-0.150,1.200,0.320,180.556,80.556,300.000,794.444,50.000,N
1024,-0.125,1.115,0.295,175.000,86.111,305.556,758.333,36.111,N
1025,-0.120,1.250,0.300,180.556,83.333,288.889,761.111,2.778,N
1026,-0.140,1.260,0.305,177.778,69.444,280.556,755.556,5.556,N
1027,-0.115,1.215,0.330,175.000,83.333,308.333,808.333,52.778,N
1028,-0.110,1.335,0.345,172.222,83.333,286.111,869.444,61.111,N
1029,-0.060,1.300,0.380,172.222,88.889,311.111,902.778,33.333,N
1030,-0.095,1.220,0.395,161.111,88.889,308.333,905.556,2.778,N
1031,0.015,1.630,-0.020,58.333,88.889,327.778,947.222,41.667,N
1032,-0.040,1.670,0.015,58.333,88.889,319.444,944.444,2.778,N
1033,-0.060,1.600,-0.035,58.333,86.111,316.667,936.111,8.333,N
1034,-0.130,1.355,0.385,180.556,86.111,300.000,911.111,25.000,N
1035,-0.070,1.715,-0.085,58.333,88.889,333.333,838.889,72.222,N
1036,-0.075,1.595,-0.060,58.333,86.111,333.333,838.889,0.000,N
1037,-0.005,1.730,-0.030,58.333,88.889,319.444,850.000,11.111,N
1038,0.015,1.810,-0.030,58.333,86.111,319.444,838.889,11.111,N
1039,0.040,1.755,0.015,58.333,86.111,311.111,866.667,27.778,N
1040,0.030,1.730,0.030,58.333,86.111,305.556,908.333,41.667,N
1041,0.000,1.595,0.005,58.333,88.889,316.667,922.222,13.889,N
1042,-0.075,1.340,0.370,169.444,72.222,277.778,933.333,11.111,N
1043,-0.005,1.710,-0.055,58.333,88.889,325.000,888.889,44.444,N
1044,-0.045,1.670,-0.090,58.333,88.889,336.111,900.000,11.111,N
1045,-0.120,1.355,0.425,163.889,77.778,286.111,905.556,5.556,N
1046,-0.145,1.270,0.410,169.444,75.000,288.889,800.000,105.556,N
1047,-0.005,1.995,-0.080,58.333,88.889,311.111,786.111,13.889,N
1048,0.040,1.820,-0.010,58.333,88.889,327.778,813.889,27.778,N
1049,-0.005,1.485,-0.065,58.333,88.889,311.111,825.000,11.111,N
1050,0.055,1.790,0.090,58.333,86.111,322.222,841.667,16.667,N
1051,0.085,1.650,0.035,58.333,86.111,319.444,880.556,38.889,N
1052,-0.065,1.435,0.365,166.667,80.556,288.889,894.444,13.889,N
1053,-0.080,1.425,0.340,163.889,75.000,288.889,858.333,36.111,N
1054,-0.015,1.555,-0.060,58.333,88.889,338.889,894.444,36.111,N
1055,-0.040,1.545,-0.075,58.333,86.111,319.444,894.444,0.000,N
1056,-0.130,1.290,0.305,177.778,86.111,308.333,869.444,25.000,N
1057,-0.080,1.625,-0.105,58.333,88.889,330.556,816.667,52.778,N
1058,-0.075,1.555,-0.075,58.333,88.889,327.778,830.556,13.889,N
1059,-0.115,1.360,0.260,166.667,83.333,283.333,877.778,47.222,N
1060,-0.120,1.385,0.265,163.889,75.000,275.000,863.889,13.889,N
1061,-0.095,1.230,0.290,172.222,77.778,280.556,875.000,11.111,N
1062,-0.165,1.230,0.280,172.222,86.111,308.333,841.667,33.333,N
1063,-0.145,1.170,0.260,169.444,77.778,275.000,802.778,38.889,N
1064,-0.165,1.280,0.265,166.667,77.778,283.333,783.333,19.444,N
1065,-0.175,1.175,0.215,163.889,88.889,305.556,794.444,11.111,N
1066,-0.175,0.950,0.245,166.667,83.333,277.778,816.667,22.222,N
1067,-0.175,1.105,0.265,169.444,80.556,283.333,794.444,22.222,N
1068,-0.105,1.300,0.335,172.222,86.111,283.333,808.333,13.889,N
1069,0.000,1.485,0.030,58.333,88.889,316.667,836.111,27.778,N
1070,0.085,1.640,0.050,58.333,88.889,322.222,888.889,52.778,N
1071,0.135,1.605,0.070,58.333,88.889,327.778,930.556,41.667,N
1072,0.090,1.495,-0.025,58.333,88.889,316.667,913.889,16.667,N
1073,0.010,1.610,-0.025,58.333,88.889,322.222,941.667,27.778,N
1074,-0.010,1.720,-0.005,58.333,86.111,319.444,922.222,19.444,N
1075,-0.035,1.625,-0.040,58.333,88.889,319.444,933.333,11.111,N
1076,-0.155,1.250,0.305,169.444,75.000,294.444,919.444,13.889,N
1077,-0.185,1.285,0.265,172.222,72.222,288.889,872.222,47.222,N
1078,-0.175,1.345,0.295,166.667,75.000,288.889,841.667,30.556,N
1079,-0.180,1.380,0.300,175.000,86.111,294.444,841.667,0.000,N
1080,-0.155,1.330,0.275,177.778,72.222,286.111,850.000,8.333,N
1081,-0.210,1.250,0.205,172.222,88.889,288.889,852.778,2.778,N
1082,-0.275,1.100,0.170,166.667,86.111,300.000,877.778,25.000,N
1083,-0.315,1.215,0.140,163.889,69.444,286.111,844.444,33.333,N
1084,-0.290,1.595,-0.245,58.333,86.111,325.000,866.667,22.222,N
1085,-0.170,1.560,-0.240,58.333,88.889,325.000,866.667,0.000,N
1086,-0.135,1.675,-0.185,58.333,86.111,322.222,875.000,8.333,N
1087,-0.190,1.325,0.240,172.222,83.333,283.333,875.000,0.000,N
1088,-0.245,1.165,0.240,166.667,86.111,302.778,813.889,61.111,N
1089,-0.125,1.610,-0.185,58.333,88.889,336.111,797.222,16.667,N
1090,-0.105,1.575,-0.190,58.333,88.889,316.667,819.444,22.222,N
1091,-0.155,1.515,-0.190,58.333,86.111,313.889,836.111,16.667,N
1092,-0.155,1.455,-0.185,58.333,86.111,313.889,866.667,30.556,N
1093,-0.235,1.305,0.225,166.667,80.556,286.111,891.667,25.000,N
1094,-0.250,1.255,0.225,183.333,75.000,286.111,863.889,27.778,N
1095,-0.160,1.575,-0.200,58.333,86.111,327.778,872.222,8.333,N
1096,-0.190,1.610,-0.225,58.333,88.889,333.333,900.000,27.778,N
1097,-0.155,1.635,-0.210,58.333,86.111,313.889,886.111,13.889,N
1098,-0.080,1.610,-0.120,58.333,88.889,322.222,911.111,25.000,N
1099,-0.085,1.645,-0.150,58.333,86.111,319.444,925.000,13.889,N
1100,0.025,1.780,-0.050,58.333,88.889,338.889,930.556,5.556,N
1101,0.060,1.805,0.010,58.333,86.111,297.222,952.778,22.222,N
1102,0.070,1.725,0.050,58.333,86.111,316.667,938.889,13.889,N
1103,0.045,1.640,0.005,58.333,86.111,325.000,930.556,8.333,N
1104,-0.140,1.340,0.290,166.667,69.444,283.333,902.778,27.778,N
1105,-0.065,1.685,-0.145,58.333,86.111,325.000,866.667,36.111,N
1106,-0.185,1.340,0.230,175.000,80.556,288.889,872.222,5.556,N
1107,-0.170,1.255,0.250,169.444,75.000,283.333,900.000,27.778,N
1108,-0.135,1.325,0.260,166.667,72.222,280.556,922.222,22.222,N
1109,-0.140,1.225,0.230,175.000,86.111,311.111,927.778,5.556,N
1110,-0.135,1.250,0.215,175.000,86.111,311.111,961.111,33.333,N
1111,-0.135,1.160,0.225,172.222,83.333,280.556,930.556,30.556,N
1112,-0.260,1.080,0.130,158.333,86.111,297.222,883.333,47.222,N
1113,-0.255,1.245,0.165,163.889,75.000,286.111,838.889,44.444,N
1114,-0.265,1.145,0.165,175.000,88.889,300.000,827.778,11.111,N
1115,-0.240,1.150,0.200,172.222,69.444,291.667,800.000,27.778,N
1116,-0.205,1.330,0.240,175.000,86.111,305.556,836.111,36.111,N
1117,-0.120,1.405,0.275,180.556,86.111,272.222,900.000,63.889,N
1118,-0.125,1.260,0.300,169.444,77.778,286.111,913.889,13.889,N
1119,-0.140,1.345,0.290,163.889,83.333,286.111,902.778,11.111,N
1120,-0.025,1.675,-0.080,58.333,88.889,333.333,925.000,22.222,N
1121,-0.040,1.710,-0.050,58.333,88.889,327.778,941.667,16.667,N
1122,-0.025,1.690,-0.100,58.333,88.889,319.444,938.889,2.778,N
1123,-0.050,1.535,-0.065,58.333,88.889,322.222,905.556,33.333,N
1124,-0.115,1.315,0.290,175.000,72.222,291.667,911.111,5.556,N
1125,-0.090,1.335,0.270,166.667,72.222,275.000,880.556,30.556,N
1126,-0.130,1.225,0.215,177.778,86.111,305.556,883.333,2.778,N
1127,-0.160,1.150,0.235,161.111,86.111,300.000,875.000,8.333,N
1128,-0.185,1.320,0.250,175.000,80.556,286.111,822.222,52.778,N
1129,-0.170,1.340,0.235,172.222,80.556,300.000,772.222,50.000,N
1130,-0.170,1.315,0.225,180.556,83.333,300.000,772.222,0.000,N
1131,-0.205,1.340,0.225,180.556,80.556,300.000,805.556,33.333,N
1132,-0.195,1.255,0.195,177.778,88.889,300.000,833.333,27.778,N
1133,-0.200,1.275,0.180,163.889,80.556,288.889,911.111,77.778,N
1134,-0.270,1.085,0.120,177.778,86.111,283.333,913.889,2.778,N
1135,-0.315,1.250,0.115,169.444,80.556,286.111,888.889,25.000,N
1136,-0.175,1.510,-0.245,58.333,86.111,336.111,888.889,0.000,N
1137,-0.180,1.425,-0.205,58.333,88.889,336.111,930.556,41.667,N
1138,-0.140,1.450,-0.165,58.333,88.889,316.667,927.778,2.778,N
1139,-0.200,1.200,0.170,175.000,77.778,275.000,900.000,27.778,N
1140,-0.265,0.940,0.095,175.000,86.111,305.556,875.000,25.000,N
1141,-0.315,0.765,0.055,180.556,88.889,300.000,836.111,38.889,N
1142,-0.285,0.955,0.115,163.889,77.778,283.333,816.667,19.444,N
1143,-0.305,0.860,0.050,180.556,88.889,302.778,783.333,33.333,N
1144,-0.310,0.760,0.085,180.556,83.333,305.556,766.667,16.667,N
1145,-0.260,0.845,0.110,172.222,83.333,302.778,794.444,27.778,N
1146,-0.205,0.940,0.185,169.444,86.111,286.111,861.111,66.667,N
1147,-0.165,0.885,0.205,172.222,80.556,297.222,916.667,55.556,N
1148,-0.195,1.195,0.205,172.222,86.111,305.556,894.444,22.222,N
1149,-0.130,1.280,0.260,175.000,77.778,308.333,900.000,5.556,N
1150,-0.175,1.235,0.280,172.222,86.111,291.667,861.111,38.889,N
1151,-0.070,1.660,-0.090,58.333,88.889,330.556,855.556,5.556,N
1152,-0.015,1.600,-0.060,58.333,88.889,319.444,880.556,25.000,N
1153,0.005,1.570,-0.065,58.333,86.111,333.333,850.000,30.556,N
1154,-0.045,1.465,-0.040,58.333,88.889,313.889,852.778,2.778,N
1155,-0.115,1.120,0.240,177.778,86.111,280.556,838.889,13.889,N
1156,-0.165,1.110,0.190,163.889,80.556,291.667,822.222,16.667,N
1157,-0.195,1.005,0.185,155.556,69.444,280.556,791.667,30.556,N
1158,-0.255,1.135,0.135,172.222,86.111,311.111,786.111,5.556,N
1159,-0.210,1.140,0.180,180.556,86.111,286.111,769.444,16.667,N
1160,-0.185,1.155,0.235,172.222,77.778,286.111,722.222,47.222,N
1161,-0.215,1.100,0.190,177.778,80.556,294.444,719.444,2.778,N
1162,-0.195,1.280,0.200,177.778,72.222,283.333,713.889,5.556,N
1163,-0.170,1.205,0.240,180.556,80.556,286.111,730.556,16.667,N
1164,-0.175,1.180,0.220,169.444,80.556,277.778,808.333,77.778,N
1165,-0.165,1.115,0.210,175.000,80.556,280.556,869.444,61.111,N
1166,-0.210,0.980,0.215,172.222,86.111,302.778,813.889,55.556,N
1167,-0.175,1.025,0.255,166.667,69.444,280.556,841.667,27.778,N
1168,-0.125,1.090,0.250,166.667,86.111,286.111,850.000,8.333,N
1169,-0.165,1.125,0.230,172.222,83.333,286.111,833.333,16.667,N
1170,-0.195,1.225,0.270,177.778,75.000,313.889,791.667,41.667,N
1171,-0.145,1.310,0.280,169.444,72.222,272.222,775.000,16.667,N
1172,-0.125,1.195,0.280,180.556,66.667,280.556,783.333,8.333,N
1173,-0.190,1.275,0.260,169.444,69.444,288.889,769.444,13.889,N
1174,-0.200,1.270,0.245,183.333,86.111,305.556,797.222,27.778,N
1175,-0.205,1.140,0.190,177.778,88.889,277.778,827.778,30.556,N
1176,-0.250,1.110,0.170,161.111,72.222,291.667,844.444,16.667,N
1177,-0.215,1.185,0.190,158.333,86.111,302.778,872.222,27.778,N
1178,-0.230,1.130,0.230,166.667,69.444,286.111,866.667,5.556,N
1179,-0.225,1.225,0.215,152.778,80.556,286.111,863.889,2.778,N
1180,-0.150,1.245,0.270,183.333,88.889,283.333,855.556,8.333,N
1181,-0.110,1.280,0.280,175.000,88.889,294.444,866.667,11.111,N
1182,-0.115,1.360,0.285,166.667,80.556,283.333,894.444,27.778,N
1183,-0.145,1.070,0.200,161.111,80.556,286.111,897.222,2.778,N
1184,-0.215,1.265,0.220,169.444,86.111,311.111,844.444,52.778,N
1185,-0.185,1.265,0.250,163.889,83.333,291.667,822.222,22.222,N
1186,-0.130,1.405,0.320,175.000,75.000,286.111,794.444,27.778,N
1187,-0.135,1.380,0.250,183.333,77.778,288.889,772.222,22.222,N
1188,-0.170,1.360,0.295,172.222,75.000,286.111,736.111,36.111,N
1189,-0.150,1.295,0.265,163.889,86.111,300.000,755.556,19.444,N
1190,-0.085,1.385,0.360,172.222,75.000,291.667,836.111,80.556,N
1191,-0.005,1.425,0.420,183.333,86.111,308.333,894.444,58.333,N
1192,-0.050,1.405,0.375,172.222,80.556,311.111,858.333,36.111,N
1193,-0.075,1.265,0.305,175.000,69.444,286.111,847.222,11.111,N
1194,-0.030,1.515,-0.065,58.333,86.111,313.889,863.889,16.667,N
1195,-0.070,1.725,-0.140,58.333,86.111,316.667,830.556,33.333,N
1196,-0.060,1.580,-0.140,58.333,88.889,322.222,858.333,27.778,N
1197,-0.135,1.635,-0.150,58.333,88.889,327.778,802.778,55.556,N
1198,-0.140,1.560,-0.085,58.333,88.889,319.444,794.444,8.333,N
1199,-0.085,1.605,-0.085,58.333,88.889,316.667,780.556,13.889,N
1200,-0.140,1.465,-0.145,58.333,88.889,327.778,786.111,5.556,N
1201,-0.195,1.160,0.135,161.111,77.778,280.556,802.778,16.667,N
1202,-0.240,0.920,0.065,172.222,80.556,280.556,808.333,5.556,N
1203,-0.370,1.020,0.030,166.667,72.222,283.333,788.889,19.444,N
1204,-0.340,1.015,-0.025,175.000,75.000,280.556,738.889,50.000,N
1205,-0.345,1.055,0.105,172.222,77.778,294.444,727.778,11.111,N
1206,-0.270,1.085,0.115,166.667,86.111,288.889,711.111,16.667,N
1207,-0.245,1.085,0.135,175.000,86.111,316.667,741.667,30.556,N
1208,-0.245,1.155,0.130,163.889,75.000,283.333,786.111,44.444,N
1209,-0.315,1.090,0.070,180.556,66.667,280.556,794.444,8.333,N
1210,-0.410,0.980,-0.025,155.556,86.111,308.333,797.222,2.778,N
1211,-0.325,1.150,0.100,166.667,75.000,283.333,816.667,19.444,N
1212,-0.320,1.175,0.090,172.222,77.778,283.333,833.333,16.667,N
1213,-0.245,1.315,0.215,175.000,86.111,302.778,786.111,47.222,N
1214,-0.215,1.195,0.270,169.444,77.778,283.333,783.333,2.778,N
1215,-0.160,1.325,0.215,175.000,86.111,288.889,772.222,11.111,N
1216,-0.200,1.170,0.250,166.667,75.000,283.333,755.556,16.667,N
1217,-0.205,1.115,0.165,175.000,86.111,283.333,783.333,27.778,N
1218,-0.225,1.135,0.170,169.444,86.111,286.111,802.778,19.444,N
1219,-0.200,1.220,0.170,175.000,86.111,319.444,827.778,25.000,N
1220,-0.270,0.935,-0.170,169.444,77.778,280.556,797.222,30.556,N
1221,-0.550,0.690,-0.115,166.667,83.333,283.333,766.667,30.556,N
1222,-0.110,1.455,-0.055,58.333,88.889,319.444,761.111,5.556,N
1223,-0.130,1.540,-0.045,58.333,88.889,325.000,777.778,16.667,N
1224,-0.025,1.630,-0.045,58.333,86.111,313.889,780.556,2.778,N
1225,0.000,1.405,-0.050,58.333,88.889,313.889,794.444,13.889,N
1226,-0.055,1.620,-0.090,58.333,88.889,327.778,786.111,8.333,N
1227,-0.070,1.590,-0.175,58.333,88.889,322.222,775.000,11.111,N
1228,-0.145,1.305,-0.220,58.333,88.889,316.667,772.222,2.778,N
1229,-0.180,1.515,-0.195,58.333,86.111,316.667,766.667,5.556,N
1230,-0.135,1.580,-0.145,58.333,88.889,316.667,808.333,41.667,N
1231,-0.145,1.570,-0.105,58.333,88.889,319.444,847.222,38.889,N
1232,-0.050,1.660,-0.035,58.333,88.889,316.667,883.333,36.111,N
1233,-0.085,1.560,-0.070,58.333,86.111,311.111,902.778,19.444,N
1234,-0.140,1.225,0.260,161.111,75.000,291.667,913.889,11.111,N
1235,-0.175,1.255,0.295,169.444,83.333,288.889,844.444,69.444,N
1236,-0.115,1.710,-0.080,58.333,86.111,325.000,827.778,16.667,N
1237,-0.075,1.645,-0.055,58.333,88.889,308.333,819.444,8.333,N
1238,-0.050,1.570,-0.105,58.333,88.889,322.222,822.222,2.778,N
1239,-0.215,1.190,0.285,172.222,80.556,300.000,813.889,8.333,N
1240,-0.175,1.295,0.190,177.778,86.111,308.333,791.667,22.222,N
1241,-0.185,1.270,0.260,183.333,86.111,311.111,808.333,16.667,N
1242,-0.165,1.220,0.305,163.889,72.222,269.444,808.333,0.000,N
1243,0.010,1.750,-0.065,58.333,86.111,305.556,836.111,27.778,N
1244,-0.040,1.740,-0.115,58.333,86.111,330.556,844.444,8.333,N
1245,-0.220,1.510,-0.255,58.333,88.889,327.778,855.556,11.111,N
1246,-0.090,1.495,-0.110,58.333,88.889,325.000,875.000,19.444,N
1247,0.000,1.570,-0.025,58.333,88.889,302.778,861.111,13.889,N
1248,0.035,1.685,0.040,58.333,88.889,322.222,880.556,19.444,N
1249,0.085,1.760,0.105,58.333,88.889,325.000,875.000,5.556,N
1250,-0.020,1.705,-0.145,58.333,88.889,319.444,836.111,38.889,N
1251,-0.305,1.670,-0.225,177.778,88.889,316.667,797.222,38.889,N
1252,-0.190,1.690,-0.100,58.333,88.889,341.667,772.222,25.000,N
1253,-0.070,1.725,-0.095,58.333,88.889,319.444,769.444,2.778,N
1254,-0.080,1.705,-0.150,58.333,86.111,319.444,808.333,38.889,N
1255,-0.110,1.650,-0.210,58.333,86.111,325.000,830.556,22.222,N
1256,-0.120,1.640,-0.190,58.333,86.111,336.111,866.667,36.111,N
1257,-0.165,1.580,-0.185,58.333,88.889,325.000,880.556,13.889,N
1258,-0.090,1.595,-0.155,58.333,88.889,336.111,916.667,36.111,N
1259,-0.095,1.610,-0.160,58.333,86.111,325.000,919.444,2.778,N
1260,-0.180,1.210,0.220,177.778,83.333,277.778,847.222,72.222,N
1261,-0.145,1.745,-0.145,58.333,86.111,313.889,836.111,11.111,N
1262,-0.105,1.715,-0.140,58.333,88.889,330.556,841.667,5.556,N
1263,-0.170,1.320,0.250,169.444,75.000,280.556,877.778,36.111,N
1264,-0.150,1.270,0.255,175.000,86.111,294.444,866.667,11.111,N
1265,-0.075,1.615,-0.110,58.333,88.889,325.000,866.667,0.000,N
1266,-0.075,1.630,-0.095,58.333,86.111,316.667,905.556,38.889,N
1267,-0.070,1.535,-0.085,58.333,86.111,330.556,922.222,16.667,N
1268,-0.120,1.280,0.245,155.556,72.222,288.889,933.333,11.111,N
1269,-0.180,1.135,0.220,172.222,86.111,283.333,886.111,47.222,N
1270,-0.210,1.160,0.245,158.333,80.556,286.111,822.222,63.889,N
1271,-0.185,1.185,0.275,169.444,83.333,283.333,813.889,8.333,N
1272,-0.095,1.725,-0.190,58.333,86.111,322.222,808.333,5.556,N
1273,-0.085,1.695,-0.140,58.333,86.111,322.222,847.222,38.889,N
1274,-0.110,1.705,-0.115,58.333,86.111,308.333,850.000,2.778,N
1275,-0.030,1.715,-0.100,58.333,86.111,319.444,886.111,36.111,N
1276,-0.190,1.320,0.255,172.222,69.444,280.556,866.667,19.444,N
1277,-0.080,1.730,-0.240,58.333,88.889,313.889,855.556,11.111,N
1278,-0.155,1.715,-0.175,58.333,88.889,336.111,841.667,13.889,N
1279,-0.080,1.675,-0.130,58.333,88.889,330.556,866.667,25.000,N
1280,-0.025,1.660,-0.070,58.333,88.889,333.333,894.444,27.778,N
1281,-0.025,1.635,-0.085,58.333,88.889,322.222,913.889,19.444,N
1282,-0.095,1.485,-0.190,58.333,86.111,319.444,908.333,5.556,N
1283,-0.290,1.090,0.105,169.444,83.333,300.000,927.778,19.444,N
1284,-0.295,1.120,0.170,166.667,77.778,294.444,891.667,36.111,N
1285,-0.130,1.570,-0.130,58.333,88.889,305.556,900.000,8.333,N
1286,-0.020,1.630,-0.065,58.333,88.889,311.111,888.889,11.111,N
1287,-0.145,1.200,0.255,152.778,86.111,302.778,908.333,19.444,N
1288,-0.135,1.225,0.220,158.333,77.778,288.889,902.778,5.556,N
1289,-0.175,1.185,0.225,155.556,72.222,283.333,905.556,2.778,N
1290,-0.110,1.165,0.240,158.333,86.111,277.778,894.444,11.111,N
1291,-0.180,1.160,0.155,175.000,86.111,291.667,880.556,13.889,N
1292,-0.280,1.095,0.125,163.889,72.222,288.889,791.667,88.889,N
1293,-0.275,1.110,0.125,169.444,80.556,302.778,775.000,16.667,N
1294,-0.160,1.240,0.225,180.556,83.333,283.333,777.778,2.778,N
1295,-0.145,1.245,0.450,172.222,66.667,297.222,713.889,63.889,N
1296,-0.160,1.150,0.235,177.778,83.333,300.000,736.111,22.222,N
1297,-0.180,1.210,0.155,186.111,86.111,277.778,766.667,30.556,N
1298,-0.245,1.025,0.135,175.000,86.111,288.889,825.000,58.333,N
1299,-0.375,0.515,-0.075,175.000,88.889,308.333,869.444,44.444,N
1300,-0.315,0.765,0.120,155.556,77.778,288.889,844.444,25.000,N
1301,-0.100,1.495,-0.185,58.333,88.889,313.889,813.889,30.556,N
1302,-0.080,1.450,-0.135,58.333,88.889,305.556,788.889,25.000,N
1303,-0.090,1.300,0.270,58.333,88.889,319.444,772.222,16.667,N
1304,0.295,1.975,0.080,58.333,88.889,175.000,750.000,22.222,N
1305,0.015,1.620,-0.130,58.333,88.889,338.889,750.000,0.000,N
1306,0.140,1.510,0.200,155.556,88.889,302.778,738.889,11.111,N
1307,0.100,1.525,-0.155,191.667,72.222,166.667,708.333,30.556,N
1308,-0.005,2.290,-0.100,58.333,86.111,308.333,680.556,27.778,N
1309,-0.090,2.225,-0.080,58.333,88.889,322.222,680.556,0.000,N
1310,-0.030,2.140,-0.045,58.333,88.889,316.667,672.222,8.333,N
1311,-0.025,1.665,0.440,172.222,83.333,288.889,661.111,11.111,N
1312,-0.040,1.570,0.330,188.889,86.111,283.333,669.444,8.333,N
1313,-0.090,1.535,0.230,172.222,77.778,308.333,663.889,5.556,N
1314,-0.120,1.475,0.085,175.000,77.778,272.222,675.000,11.111,N
1315,-0.240,1.415,0.190,180.556,83.333,269.444,647.222,27.778,N
1316,-0.135,1.340,0.190,161.111,72.222,280.556,644.444,2.778,N
1317,-0.075,1.475,0.070,169.444,72.222,280.556,633.333,11.111,N
1318,-0.205,1.415,0.095,163.889,86.111,288.889,638.889,5.556,N
1319,-0.255,1.275,0.080,163.889,75.000,291.667,627.778,11.111,N
1320,-0.170,1.375,0.070,166.667,86.111,305.556,616.667,11.111,N
1321,-0.225,1.110,-0.150,161.111,69.444,275.000,613.889,2.778,N
1322,-0.440,1.210,0.165,155.556,88.889,308.333,594.444,19.444,N
1323,0.115,1.555,0.440,161.111,80.556,294.444,611.111,16.667,N
1324,0.140,1.570,0.395,166.667,86.111,322.222,622.222,11.111,N
1325,0.100,1.440,0.440,155.556,72.222,288.889,647.222,25.000,N
1326,0.035,1.385,0.340,161.111,72.222,319.444,663.889,16.667,N
1327,-0.070,1.400,0.205,158.333,77.778,316.667,675.000,11.111,N
1328,-0.115,1.260,0.180,161.111,86.111,313.889,711.111,36.111,N
1329,-0.180,1.025,0.040,161.111,75.000,322.222,683.333,27.778,N
1330,-0.145,1.095,0.080,155.556,83.333,291.667,705.556,22.222,N
1331,-0.150,1.015,0.105,161.111,80.556,316.667,700.000,5.556,N
1332,0.015,1.435,0.195,161.111,75.000,280.556,736.111,36.111,N
1333,-0.140,1.395,0.250,161.111,77.778,286.111,763.889,27.778,N
1334,-0.205,1.355,0.135,155.556,86.111,333.333,758.333,5.556,N
1335,-0.115,1.525,0.280,158.333,77.778,258.333,738.889,19.444,N
1336,-0.050,1.455,0.270,161.111,83.333,283.333,716.667,22.222,N
1337,-0.145,1.445,0.215,166.667,88.889,283.333,702.778,13.889,N
1338,-0.180,1.315,0.175,158.333,72.222,302.778,722.222,19.444,N
1339,-0.160,1.350,0.210,163.889,80.556,250.000,741.667,19.444,N
1340,-0.285,1.115,-0.020,152.778,83.333,272.222,713.889,27.778,N
1341,-0.290,1.400,0.370,150.000,83.333,316.667,694.444,19.444,N
1342,0.010,1.645,0.420,161.111,83.333,294.444,680.556,13.889,N
1343,0.080,1.495,0.365,166.667,83.333,291.667,647.222,33.333,N
1344,0.005,1.550,0.320,166.667,69.444,277.778,658.333,11.111,N
1345,-0.175,1.335,0.250,172.222,75.000,305.556,683.333,25.000,N
1346,-0.180,1.320,0.110,161.111,86.111,272.222,711.111,27.778,N
1347,-0.270,1.150,0.130,169.444,88.889,272.222,725.000,13.889,N
1348,-0.305,1.300,0.095,155.556,66.667,258.333,733.333,8.333,N
1349,-0.225,1.255,0.190,166.667,77.778,258.333,752.778,19.444,N
1350,-0.235,1.175,0.165,163.889,83.333,283.333,772.222,19.444,N
1351,-0.295,1.295,0.175,158.333,69.444,252.778,750.000,22.222,N
1352,-0.180,1.155,0.175,161.111,63.889,300.000,750.000,0.000,N
1353,-0.210,1.220,0.210,144.444,55.556,280.556,744.444,5.556,N
1354,-0.325,0.905,0.040,161.111,72.222,288.889,680.556,63.889,N
1355,-0.300,1.100,0.180,163.889,86.111,294.444,675.000,5.556,N
1356,-0.280,1.260,0.145,163.889,72.222,255.556,627.778,47.222,N
1357,-0.210,1.465,0.205,166.667,77.778,313.889,638.889,11.111,N
1358,-0.085,1.265,0.315,180.556,88.889,300.000,622.222,16.667,N
1359,-0.105,1.360,0.300,180.556,77.778,269.444,627.778,5.556,N
1360,-0.215,1.390,0.360,166.667,86.111,283.333,636.111,8.333,N
1361,-0.200,1.280,0.310,158.333,86.111,286.111,666.667,30.556,N
1362,-0.190,1.520,0.430,166.667,80.556,286.111,691.667,25.000,N
1363,-0.145,1.545,0.430,161.111,88.889,300.000,716.667,25.000,N
1364,-0.085,2.140,0.045,147.222,86.111,319.444,722.222,5.556,N
1365,-0.090,1.920,0.095,136.111,86.111,316.667,791.667,69.444,N
1366,-0.180,2.010,-0.190,161.111,86.111,313.889,783.333,8.333,N
1367,-0.230,2.050,-0.140,58.333,83.333,300.000,744.444,38.889,N
1368,-0.325,1.885,-0.220,172.222,88.889,311.111,747.222,2.778,N
1369,-0.295,1.920,-0.125,158.333,86.111,302.778,719.444,27.778,N
1370,-0.265,1.905,-0.055,175.000,88.889,311.111,722.222,2.778,N
1371,-0.215,1.985,-0.130,177.778,86.111,316.667,727.778,5.556,N
1372,-0.210,1.790,-0.015,58.333,88.889,319.444,702.778,25.000,N
1373,-0.100,2.010,-0.080,166.667,86.111,305.556,705.556,2.778,N
1374,-0.165,2.105,-0.155,166.667,86.111,316.667,697.222,8.333,N
1375,-0.205,1.930,-0.095,172.222,86.111,316.667,702.778,5.556,N
1376,-0.110,1.915,-0.040,166.667,86.111,294.444,725.000,22.222,N
1377,-0.175,2.135,-0.075,58.333,86.111,311.111,741.667,16.667,N
1378,-0.140,2.100,-0.045,172.222,88.889,322.222,733.333,8.333,N
1379,-0.105,2.140,-0.015,166.667,86.111,302.778,750.000,16.667,N
1380,-0.095,2.075,0.040,163.889,86.111,313.889,747.222,2.778,N
1381,-0.110,2.115,-0.015,166.667,88.889,313.889,730.556,16.667,N
1382,-0.025,1.475,0.450,166.667,80.556,286.111,733.333,2.778,N
1383,-0.080,2.140,-0.055,172.222,86.111,316.667,736.111,2.778,N
1384,-0.085,2.105,-0.065,58.333,86.111,111.111,705.556,30.556,N
1385,-0.275,2.065,-0.445,172.222,86.111,316.667,697.222,8.333,N
1386,-0.585,1.760,-0.555,166.667,88.889,316.667,658.333,38.889,N
1387,-0.530,1.145,0.415,166.667,86.111,277.778,686.111,27.778,N
1388,-0.205,1.370,0.295,197.222,72.222,277.778,683.333,2.778,N
1389,-0.145,1.385,0.360,166.667,86.111,277.778,680.556,2.778,N
1390,-0.130,1.345,0.295,169.444,80.556,255.556,694.444,13.889,N
1391,-0.070,1.780,-0.020,163.889,86.111,319.444,688.889,5.556,N
1392,-0.045,1.850,-0.025,161.111,86.111,319.444,677.778,11.111,N
1393,-0.055,1.685,-0.145,158.333,88.889,311.111,683.333,5.556,N
1394,-0.110,1.290,0.320,161.111,83.333,272.222,680.556,2.778,N
1395,-0.025,1.230,0.295,161.111,83.333,263.889,691.667,11.111,N
1396,-0.010,1.145,0.245,158.333,88.889,300.000,733.333,41.667,N
1397,-0.140,0.820,0.170,158.333,83.333,275.000,725.000,8.333,N
1398,-0.125,1.105,0.180,163.889,77.778,255.556,719.444,5.556,N
1399,-0.130,1.065,0.290,158.333,80.556,283.333,705.556,13.889,N
1400,-0.210,0.750,0.130,161.111,83.333,266.667,683.333,22.222,N
1401,-0.160,1.090,0.185,163.889,72.222,250.000,672.222,11.111,N
1402,-0.085,1.275,0.240,166.667,75.000,277.778,677.778,5.556,N
1403,-0.245,1.110,0.160,158.333,86.111,308.333,688.889,11.111,N
1404,-0.155,1.410,0.260,172.222,80.556,272.222,680.556,8.333,N
1405,-0.160,1.390,0.385,166.667,88.889,275.000,677.778,2.778,N
1406,-0.160,1.440,0.200,175.000,80.556,275.000,697.222,19.444,N
1407,-0.215,1.350,0.215,169.444,86.111,275.000,702.778,5.556,N
1408,-0.230,1.265,0.155,166.667,88.889,275.000,708.333,5.556,N
1409,-0.170,2.025,-0.460,175.000,88.889,108.333,725.000,16.667,N
1410,-0.510,2.000,0.165,58.333,86.111,319.444,722.222,2.778,N
1411,0.195,2.515,0.210,58.333,86.111,316.667,725.000,2.778,N
1412,0.125,2.280,0.250,58.333,86.111,316.667,686.111,38.889,N
1413,0.230,2.270,0.175,163.889,86.111,308.333,719.444,33.333,N
1414,-0.045,1.985,-0.105,188.889,88.889,308.333,694.444,25.000,N
1415,-0.110,1.925,0.045,166.667,88.889,327.778,677.778,16.667,N
1416,0.040,1.405,0.315,163.889,77.778,263.889,691.667,13.889,N
1417,-0.075,1.420,0.415,150.000,69.444,280.556,675.000,16.667,N
1418,0.035,1.500,0.345,177.778,86.111,269.444,658.333,16.667,N
1419,-0.080,1.445,0.245,175.000,80.556,247.222,652.778,5.556,N
1420,-0.135,1.290,0.310,161.111,86.111,286.111,644.444,8.333,N
1421,-0.120,1.210,0.090,166.667,80.556,297.222,655.556,11.111,N
1422,-0.190,1.335,-0.045,91.667,72.222,213.889,666.667,11.111,N
1423,-0.135,0.975,0.120,191.667,77.778,383.333,688.889,22.222,N
1424,-0.180,1.045,-0.410,169.444,88.889,141.667,691.667,2.778,N
1425,-0.900,0.490,-0.740,155.556,75.000,255.556,677.778,13.889,N
1426,-0.995,0.470,-0.470,169.444,61.111,280.556,686.111,8.333,N
1427,-0.710,0.890,-0.205,177.778,86.111,272.222,702.778,16.667,N
1428,-0.570,0.880,0.015,158.333,88.889,272.222,702.778,0.000,N
1429,-0.290,1.705,1.080,166.667,86.111,280.556,727.778,25.000,N
1430,0.750,2.255,1.075,166.667,88.889,288.889,769.444,41.667,N
1431,0.300,1.740,0.540,161.111,77.778,263.889,769.444,0.000,N
1432,0.310,1.825,0.785,163.889,86.111,272.222,772.222,2.778,N
1433,0.120,1.500,0.410,152.778,86.111,269.444,761.111,11.111,N
1434,-0.035,1.595,0.385,161.111,86.111,272.222,755.556,5.556,N
1435,0.030,1.485,0.385,172.222,86.111,275.000,780.556,25.000,N
1436,-0.075,1.350,0.240,163.889,77.778,261.111,744.444,36.111,N
1437,-0.165,1.370,0.050,158.333,86.111,272.222,761.111,16.667,N
1438,-0.255,1.245,0.365,161.111,86.111,280.556,786.111,25.000,N
1439,-0.215,1.235,0.125,161.111,72.222,252.778,758.333,27.778,N
1440,-0.110,1.445,0.300,155.556,83.333,275.000,755.556,2.778,N
1441,-0.165,1.510,0.310,166.667,75.000,275.000,783.333,27.778,N
1442,-0.145,1.505,0.275,183.333,80.556,266.667,758.333,25.000,N
1443,-0.180,1.400,0.340,169.444,86.111,308.333,752.778,5.556,N
1444,-0.190,1.440,0.365,161.111,75.000,280.556,755.556,2.778,N
1445,-0.230,1.405,0.245,166.667,80.556,297.222,722.222,33.333,N
1446,-0.105,2.000,0.045,177.778,88.889,313.889,766.667,44.444,N
1447,-0.125,2.175,-0.195,58.333,86.111,305.556,769.444,2.778,N
1448,-0.085,1.950,-0.035,172.222,88.889,316.667,755.556,13.889,N
1449,-0.090,2.125,-0.050,177.778,86.111,308.333,772.222,16.667,N
1450,-0.115,2.060,-0.090,172.222,86.111,311.111,733.333,38.889,N
1451,-0.100,1.440,0.360,166.667,86.111,283.333,736.111,2.778,N
1452,-0.095,1.310,0.240,166.667,86.111,288.889,755.556,19.444,N
1453,-0.215,1.265,0.175,161.111,66.667,252.778,752.778,2.778,N
1454,-0.215,1.225,0.170,161.111,77.778,266.667,780.556,27.778,N
1455,-0.245,1.045,0.140,155.556,69.444,258.333,786.111,5.556,N
1456,-0.100,1.230,0.265,158.333,77.778,255.556,783.333,2.778,N
1457,-0.110,1.190,0.145,161.111,75.000,291.667,791.667,8.333,N
1458,-0.150,1.130,0.190,155.556,69.444,258.333,827.778,36.111,N
1459,-0.170,1.280,0.220,161.111,75.000,252.778,780.556,47.222,N
1460,-0.120,1.195,0.240,166.667,83.333,277.778,777.778,2.778,N
1461,-0.090,1.430,0.325,150.000,83.333,275.000,802.778,25.000,N
1462,-0.070,1.240,0.320,163.889,86.111,272.222,833.333,30.556,N
1463,-0.045,1.255,0.330,155.556,86.111,272.222,847.222,13.889,N
1464,0.030,1.615,0.465,163.889,72.222,250.000,875.000,27.778,N
1465,0.030,1.640,0.570,169.444,86.111,280.556,847.222,27.778,N
1466,0.135,1.615,0.495,155.556,75.000,266.667,816.667,30.556,N
1467,0.025,1.465,0.410,150.000,86.111,277.778,825.000,8.333,N
1468,-0.115,1.305,0.155,163.889,83.333,280.556,786.111,38.889,N
1469,-0.310,1.170,0.035,163.889,75.000,275.000,794.444,8.333,N
1470,-0.345,1.095,0.035,166.667,86.111,286.111,808.333,13.889,N
1471,-0.315,1.070,0.075,158.333,66.667,244.444,822.222,13.889,N
1472,-0.300,1.105,0.055,155.556,86.111,275.000,827.778,5.556,N
1473,-0.290,1.190,0.065,158.333,86.111,269.444,836.111,8.333,N
1474,-0.240,1.220,0.120,150.000,86.111,272.222,863.889,27.778,N
1475,-0.240,1.205,0.150,161.111,83.333,269.444,872.222,8.333,N
1476,-0.245,1.110,0.110,158.333,72.222,255.556,838.889,33.333,N
1477,-0.160,1.265,0.190,161.111,80.556,277.778,841.667,2.778,N
1478,-0.105,1.220,0.215,161.111,83.333,269.444,852.778,11.111,N
1479,-0.175,0.980,0.175,166.667,83.333,286.111,816.667,36.111,N
1480,-0.140,0.970,0.210,161.111,77.778,280.556,833.333,16.667,N
1481,-0.125,0.940,0.230,163.889,86.111,283.333,841.667,8.333,N
1482,-0.150,1.000,0.225,152.778,88.889,277.778,841.667,0.000,N
1483,-0.100,1.090,0.180,163.889,75.000,252.778,816.667,25.000,N
1484,-0.165,0.905,0.170,155.556,86.111,277.778,819.444,2.778,N
1485,-0.130,1.005,0.180,152.778,86.111,283.333,827.778,8.333,N
1486,-0.110,1.015,0.335,161.111,72.222,258.333,813.889,13.889,N
1487,-0.035,1.100,0.240,166.667,83.333,277.778,786.111,27.778,N
1488,-0.135,1.380,0.340,169.444,86.111,280.556,769.444,16.667,N
1489,-0.080,1.365,0.220,163.889,83.333,269.444,744.444,25.000,N
1490,-0.080,1.315,0.135,169.444,86.111,288.889,755.556,11.111,N
1491,-0.120,1.270,0.195,169.444,88.889,280.556,769.444,13.889,N
1492,-0.140,1.385,0.155,169.444,86.111,291.667,791.667,22.222,N
1493,-0.205,1.320,0.200,172.222,86.111,277.778,783.333,8.333,N
1494,-0.090,1.350,0.260,155.556,86.111,277.778,800.000,16.667,N
1495,-0.135,1.305,0.160,158.333,83.333,277.778,825.000,25.000,N
1496,-0.095,1.360,0.225,169.444,86.111,280.556,836.111,11.111,N
1497,-0.155,1.225,0.165,163.889,86.111,275.000,844.444,8.333,N
1498,-0.255,1.325,0.170,172.222,80.556,277.778,822.222,22.222,N
1499,-0.175,1.325,0.215,163.889,77.778,277.778,830.556,8.333,N
1500,-0.285,1.245,0.190,155.556,86.111,277.778,783.333,47.222,N
1501,-0.090,1.535,0.365,161.111,75.000,258.333,775.000,8.333,N
1502,-0.135,1.390,0.295,158.333,75.000,263.889,766.667,8.333,N
1503,-0.105,1.410,0.240,172.222,83.333,286.111,780.556,13.889,N
1504,-0.145,1.405,0.250,155.556,86.111,300.000,783.333,2.778,N
1505,-0.165,1.125,0.185,161.111,86.111,269.444,808.333,25.000,N
1506,-0.230,1.130,0.115,152.778,86.111,269.444,827.778,19.444,N
1507,-0.190,1.030,0.155,163.889,80.556,277.778,847.222,19.444,N
1508,-0.225,1.085,0.135,155.556,88.889,302.778,850.000,2.778,N
1509,-0.205,1.225,0.210,152.778,72.222,261.111,838.889,11.111,N
1510,-0.165,1.185,0.180,158.333,69.444,252.778,838.889,0.000,N
1511,-0.255,1.200,0.060,163.889,75.000,258.333,800.000,38.889,N
1512,-0.225,1.255,0.235,158.333,86.111,277.778,791.667,8.333,N
1513,-0.065,1.340,0.295,166.667,72.222,255.556,808.333,16.667,N
1514,-0.090,1.425,0.150,166.667,80.556,258.333,847.222,38.889,N
1515,-0.160,1.365,0.330,155.556,80.556,272.222,813.889,33.333,N
1516,-0.060,1.530,0.360,144.444,86.111,280.556,825.000,11.111,N
1517,-0.090,1.340,0.270,161.111,69.444,258.333,850.000,25.000,N
1518,-0.095,1.540,0.355,169.444,80.556,286.111,877.778,27.778,N
1519,-0.185,1.435,0.345,172.222,83.333,283.333,875.000,2.778,N
1520,-0.105,1.490,0.395,169.444,83.333,288.889,894.444,19.444,N
1521,-0.110,1.305,0.355,161.111,77.778,277.778,900.000,5.556,N
1522,-0.135,1.475,0.285,169.444,83.333,280.556,875.000,25.000,N
1523,-0.255,1.345,0.230,169.444,88.889,280.556,838.889,36.111,N
1524,-0.250,1.350,0.165,172.222,86.111,280.556,866.667,27.778,N
1525,-0.295,1.445,0.265,169.444,86.111,286.111,861.111,5.556,N
1526,-0.205,1.590,0.495,166.667,88.889,286.111,802.778,58.333,N
1527,-0.090,1.810,0.450,163.889,83.333,288.889,794.444,8.333,N
1528,-0.225,1.690,0.405,161.111,86.111,294.444,827.778,33.333,N
1529,-0.165,1.520,0.465,150.000,72.222,261.111,758.333,69.444,N
1530,-0.080,1.655,0.395,177.778,72.222,280.556,772.222,13.889,N
1531,-0.050,1.685,0.440,169.444,80.556,291.667,777.778,5.556,N
1532,-0.095,1.300,0.335,161.111,66.667,272.222,755.556,22.222,N
1533,-0.280,1.210,0.290,163.889,86.111,288.889,705.556,50.000,N
1534,-0.190,1.440,0.300,175.000,86.111,288.889,680.556,25.000,N
1535,-0.005,1.750,0.335,169.444,83.333,288.889,694.444,13.889,N
1536,0.050,1.750,0.485,177.778,75.000,280.556,730.556,36.111,N
1537,0.015,1.645,0.400,166.667,69.444,250.000,763.889,33.333,N
1538,-0.140,1.495,0.365,150.000,63.889,258.333,794.444,30.556,N
1539,-0.025,1.515,0.345,172.222,83.333,283.333,794.444,0.000,N
1540,-0.195,1.380,0.255,172.222,86.111,283.333,800.000,5.556,N
1541,-0.085,1.415,0.225,161.111,75.000,275.000,822.222,22.222,N
1542,-0.110,1.235,0.110,172.222,80.556,305.556,808.333,13.889,N
1543,-0.125,1.295,0.285,169.444,83.333,277.778,766.667,41.667,N
1544,-0.080,1.305,0.265,161.111,75.000,252.778,725.000,41.667,N
1545,-0.125,1.300,0.285,155.556,77.778,261.111,727.778,2.778,N
1546,-0.125,1.365,0.195,152.778,75.000,261.111,727.778,0.000,N
1547,-0.070,1.245,0.240,169.444,72.222,277.778,747.222,19.444,N
1548,-0.045,1.550,0.405,169.444,72.222,286.111,758.333,11.111,N
1549,-0.005,1.395,0.420,163.889,83.333,283.333,722.222,36.111,N
1550,-0.110,1.290,0.340,161.111,69.444,233.333,761.111,38.889,N
1551,-0.110,1.490,0.280,172.222,83.333,302.778,741.667,19.444,N
1552,-0.220,1.330,0.495,172.222,80.556,283.333,763.889,22.222,N
1553,-0.235,1.260,0.120,144.444,61.111,258.333,800.000,36.111,N
1554,-0.315,1.140,0.105,158.333,83.333,272.222,813.889,13.889,N
1555,-0.285,1.235,-0.015,169.444,86.111,286.111,825.000,11.111,N
1556,-0.345,1.185,0.230,163.889,83.333,280.556,794.444,30.556,N
1557,-0.210,1.285,0.205,152.778,86.111,302.778,777.778,16.667,N
1558,-0.115,1.475,0.260,163.889,83.333,294.444,780.556,2.778,N
1559,-0.075,1.370,0.285,166.667,83.333,283.333,813.889,33.333,N
1560,-0.115,1.245,0.260,158.333,86.111,275.000,808.333,5.556,N
1561,-0.085,1.390,0.285,166.667,86.111,272.222,802.778,5.556,N
1562,-0.025,1.225,0.310,161.111,80.556,280.556,808.333,5.556,N
1563,-0.050,1.125,0.335,166.667,83.333,294.444,838.889,30.556,N
1564,0.000,1.295,0.370,155.556,80.556,272.222,788.889,50.000,N
1565,0.020,1.335,0.335,169.444,86.111,277.778,794.444,5.556,N
1566,-0.120,1.190,0.325,166.667,86.111,288.889,777.778,16.667,N
1567,-0.070,1.095,0.275,161.111,80.556,291.667,741.667,36.111,N
1568,-0.125,1.135,0.250,172.222,86.111,302.778,722.222,19.444,N
1569,-0.085,1.135,0.255,169.444,80.556,277.778,722.222,0.000,N
1570,-0.075,1.170,0.240,166.667,88.889,286.111,763.889,41.667,N
1571,-0.150,1.260,0.195,166.667,88.889,280.556,808.333,44.444,N
1572,-0.190,1.365,0.150,163.889,77.778,275.000,791.667,16.667,N
1573,-0.175,1.450,0.195,163.889,69.444,280.556,833.333,41.667,N
1574,-0.125,1.385,0.235,161.111,75.000,263.889,858.333,25.000,N
1575,-0.210,1.415,0.240,169.444,83.333,283.333,825.000,33.333,N
1576,-0.150,1.350,0.145,163.889,69.444,283.333,811.111,13.889,N
1577,-0.180,1.280,0.215,163.889,80.556,280.556,813.889,2.778,N
1578,-0.230,1.355,0.175,169.444,86.111,277.778,775.000,38.889,N
1579,-0.185,1.260,0.120,166.667,77.778,283.333,750.000,25.000,N
1580,-0.120,1.245,0.210,166.667,75.000,272.222,744.444,5.556,N
1581,-0.215,1.160,0.140,163.889,80.556,269.444,725.000,19.444,N
1582,-0.165,1.415,0.245,158.333,72.222,286.111,758.333,33.333,N
1583,-0.015,1.375,0.270,163.889,75.000,283.333,777.778,19.444,N
1584,-0.135,1.425,0.260,166.667,72.222,280.556,794.444,16.667,N
1585,-0.155,1.450,0.300,166.667,86.111,275.000,752.778,41.667,N
1586,-0.160,1.310,0.220,163.889,80.556,275.000,788.889,36.111,N
1587,-0.190,1.270,0.165,163.889,75.000,280.556,800.000,11.111,N
1588,-0.270,1.145,0.125,169.444,80.556,277.778,777.778,22.222,N
1589,-0.215,1.180,0.175,169.444,86.111,277.778,808.333,30.556,N
1590,-0.115,1.110,0.250,163.889,75.000,275.000,816.667,8.333,N
1591,-0.075,1.255,0.275,161.111,72.222,255.556,825.000,8.333,N
1592,-0.100,1.375,0.300,155.556,86.111,305.556,794.444,30.556,N
1593,0.035,1.415,0.315,161.111,75.000,272.222,808.333,13.889,N
1594,0.040,1.435,0.340,166.667,75.000,280.556,811.111,2.778,N
1595,-0.015,1.400,0.350,169.444,75.000,280.556,802.778,8.333,N
1596,-0.055,1.295,0.315,155.556,86.111,277.778,775.000,27.778,N
1597,0.010,1.350,0.265,161.111,77.778,286.111,788.889,13.889,N
1598,-0.130,1.385,0.235,169.444,77.778,258.333,797.222,8.333,N
1599,-0.110,1.280,0.300,166.667,69.444,288.889,761.111,36.111,N
1600,-0.165,1.290,0.030,169.444,80.556,280.556,744.444,16.667,N
1601,-0.200,1.365,0.235,172.222,80.556,288.889,736.111,8.333,N
1602,-0.120,1.320,0.160,169.444,86.111,288.889,705.556,30.556,N
1603,-0.215,1.270,0.070,152.778,83.333,280.556,741.667,36.111,N
1604,-0.225,1.215,0.125,163.889,80.556,288.889,747.222,5.556,N
1605,-0.245,1.280,0.165,172.222,86.111,280.556,786.111,38.889,N
1606,-0.085,1.475,0.290,166.667,80.556,288.889,819.444,33.333,N
1607,-0.180,1.300,0.110,175.000,86.111,308.333,816.667,2.778,N
1608,-0.300,1.350,0.165,158.333,86.111,288.889,802.778,13.889,N
1609,-0.225,1.375,0.260,163.889,80.556,294.444,777.778,25.000,N
1610,-0.085,1.555,0.330,161.111,77.778,286.111,802.778,25.000,N
1611,-0.145,1.400,0.280,163.889,80.556,283.333,775.000,27.778,N
1612,-0.095,1.495,0.305,169.444,86.111,275.000,777.778,2.778,N
1613,-0.070,1.420,0.270,163.889,75.000,277.778,786.111,8.333,N
1614,-0.165,1.385,0.160,169.444,75.000,272.222,775.000,11.111,N
1615,-0.180,1.395,0.285,152.778,86.111,272.222,775.000,0.000,N
1616,-0.080,1.395,0.310,161.111,86.111,305.556,775.000,0.000,N
1617,-0.220,1.270,0.280,172.222,83.333,283.333,777.778,2.778,N
1618,-0.020,1.450,0.295,169.444,88.889,283.333,775.000,2.778,N
1619,-0.125,1.400,0.210,166.667,83.333,275.000,769.444,5.556,N
1620,-0.200,1.460,0.260,163.889,86.111,277.778,777.778,8.333,N
1621,-0.035,1.385,0.240,169.444,88.889,277.778,794.444,16.667,N
1622,-0.135,1.305,0.170,150.000,86.111,280.556,802.778,8.333,N
1623,-0.215,1.345,0.285,152.778,86.111,272.222,805.556,2.778,N
1624,-0.095,1.365,0.270,161.111,83.333,275.000,800.000,5.556,N
1625,-0.210,1.240,0.235,152.778,83.333,277.778,791.667,8.333,N
1626,-0.200,1.250,0.205,150.000,86.111,277.778,769.444,22.222,N
1627,-0.155,1.250,0.210,163.889,75.000,266.667,747.222,22.222,N
1628,-0.145,1.110,0.215,175.000,83.333,277.778,755.556,8.333,N
1629,-0.150,1.290,0.175,163.889,80.556,283.333,758.333,2.778,N
1630,-0.205,1.285,0.155,172.222,80.556,280.556,733.333,25.000,N
1631,-0.225,1.290,0.105,163.889,83.333,288.889,727.778,5.556,N
1632,-0.230,1.130,0.115,163.889,80.556,283.333,769.444,41.667,N
1633,-0.175,1.325,0.155,166.667,83.333,305.556,816.667,47.222,N
1634,-0.225,1.270,0.145,161.111,83.333,297.222,813.889,2.778,N
1635,-0.170,1.205,0.215,161.111,69.444,283.333,833.333,19.444,N
1636,-0.115,1.255,0.275,163.889,80.556,280.556,844.444,11.111,N
1637,-0.080,1.280,0.265,163.889,86.111,308.333,822.222,22.222,N
1638,-0.140,1.155,0.145,166.667,83.333,283.333,816.667,5.556,N
1639,-0.210,1.230,0.295,144.444,83.333,283.333,772.222,44.444,N
1640,-0.025,1.315,0.395,169.444,83.333,280.556,763.889,8.333,N
1641,-0.080,1.330,0.330,166.667,86.111,283.333,727.778,36.111,N
1642,0.000,1.435,0.310,169.444,86.111,286.111,741.667,13.889,N
1643,-0.080,1.445,0.260,155.556,72.222,283.333,747.222,5.556,N
1644,-0.155,1.280,0.135,163.889,72.222,255.556,730.556,16.667,N
1645,-0.165,1.170,0.145,163.889,77.778,280.556,744.444,13.889,N
1646,-0.115,1.035,0.255,163.889,88.889,288.889,730.556,13.889,N
1647,-0.070,0.945,0.270,169.444,83.333,302.778,763.889,33.333,N
1648,-0.110,1.030,0.105,158.333,83.333,269.444,797.222,33.333,N
1649,-0.230,1.055,0.155,169.444,86.111,280.556,794.444,2.778,N
1650,-0.155,1.055,0.125,163.889,86.111,283.333,800.000,5.556,N
1651,-0.285,0.860,0.015,161.111,72.222,255.556,811.111,11.111,N
1652,-0.290,0.950,0.120,166.667,77.778,283.333,811.111,0.000,N
1653,-0.190,0.910,0.200,155.556,88.889,308.333,783.333,27.778,N
1654,-0.200,0.860,0.170,155.556,72.222,261.111,775.000,8.333,N
1655,-0.200,1.130,0.125,166.667,75.000,288.889,736.111,38.889,N
1656,-0.155,1.285,0.225,163.889,80.556,283.333,744.444,8.333,N
1657,-0.110,1.165,0.135,158.333,86.111,305.556,750.000,5.556,N
1658,-0.305,1.105,0.085,169.444,80.556,252.778,780.556,30.556,N
1659,-0.185,1.275,0.165,169.444,88.889,283.333,775.000,5.556,N
1660,-0.235,1.210,0.160,161.111,83.333,313.889,775.000,0.000,N
1661,-0.130,1.175,0.260,161.111,86.111,277.778,802.778,27.778,N
1662,-0.115,1.335,0.285,163.889,75.000,275.000,788.889,13.889,N
1663,-0.170,1.275,0.220,166.667,83.333,288.889,800.000,11.111,N
1664,-0.155,1.355,0.255,169.444,83.333,283.333,805.556,5.556,N
1665,-0.080,1.425,0.275,163.889,75.000,280.556,783.333,22.222,N
1666,-0.205,1.260,0.315,163.889,77.778,258.333,775.000,8.333,N
1667,-0.080,0.965,-0.015,172.222,58.333,291.667,769.444,5.556,N
1668,0.010,1.510,0.380,180.556,83.333,277.778,747.222,22.222,N
1669,-0.090,1.295,0.315,158.333,83.333,275.000,747.222,0.000,N
1670,-0.135,1.270,0.125,150.000,63.889,258.333,788.889,41.667,N
1671,-0.280,1.120,0.225,163.889,77.778,283.333,825.000,36.111,N
1672,-0.285,1.050,0.150,147.222,63.889,255.556,775.000,50.000,N
1673,-0.270,0.790,0.190,166.667,77.778,280.556,788.889,13.889,N
1674,-0.255,0.965,0.205,172.222,86.111,283.333,777.778,11.111,N
1675,-0.200,0.860,0.180,177.778,88.889,272.222,802.778,25.000,N
1676,-0.325,1.195,0.195,158.333,75.000,283.333,819.444,16.667,N
1677,-0.195,1.110,0.345,172.222,86.111,305.556,852.778,33.333,N
1678,-0.300,1.145,0.170,161.111,80.556,294.444,813.889,38.889,N
1679,-0.240,1.200,0.170,150.000,83.333,297.222,819.444,5.556,N
1680,-0.285,1.055,0.050,166.667,61.111,277.778,777.778,41.667,N
1681,-0.205,1.315,0.235,172.222,77.778,272.222,783.333,5.556,N
1682,-0.145,1.330,0.320,175.000,80.556,280.556,763.889,19.444,N
1683,-0.210,1.260,0.225,166.667,77.778,286.111,733.333,30.556,N
1684,-0.240,1.230,0.230,161.111,80.556,294.444,758.333,25.000,N
1685,-0.105,1.335,0.245,166.667,75.000,275.000,772.222,13.889,N
1686,-0.215,1.290,0.250,169.444,75.000,280.556,794.444,22.222,N
1687,-0.085,1.335,0.280,152.778,83.333,297.222,822.222,27.778,N
1688,-0.125,1.330,0.285,166.667,77.778,275.000,825.000,2.778,N
1689,-0.165,1.315,0.290,158.333,80.556,291.667,788.889,36.111,N
1690,-0.050,1.495,0.380,163.889,69.444,297.222,836.111,47.222,N
1691,-0.060,1.390,0.350,161.111,77.778,280.556,838.889,2.778,N
1692,-0.135,1.205,0.280,166.667,72.222,286.111,827.778,11.111,N
1693,-0.095,1.330,0.260,166.667,77.778,272.222,819.444,8.333,N
1694,-0.110,1.225,0.205,147.222,80.556,297.222,802.778,16.667,N
1695,-0.200,1.080,0.030,158.333,61.111,252.778,769.444,33.333,N
1696,-0.280,1.140,0.150,169.444,83.333,280.556,758.333,11.111,N
1697,0.115,1.270,0.250,133.333,66.667,269.444,763.889,5.556,N
1698,-0.130,1.355,0.200,163.889,80.556,277.778,766.667,2.778,N
1699,-0.265,1.265,0.120,163.889,75.000,280.556,716.667,50.000,N
1700,-0.285,1.185,0.105,169.444,83.333,277.778,719.444,2.778,N
1701,-0.230,1.315,0.140,175.000,83.333,305.556,705.556,13.889,N
1702,-0.230,1.355,0.230,175.000,86.111,302.778,702.778,2.778,N
1703,-0.120,1.470,0.270,166.667,83.333,283.333,722.222,19.444,N
1704,-0.120,1.485,0.285,166.667,86.111,275.000,750.000,27.778,N
1705,-0.110,1.455,0.260,172.222,72.222,294.444,766.667,16.667,N
1706,-0.200,1.250,0.245,163.889,83.333,283.333,758.333,8.333,N
1707,-0.170,1.180,0.145,166.667,86.111,286.111,736.111,22.222,N
1708,-0.215,1.365,0.150,166.667,77.778,283.333,722.222,13.889,N
1709,-0.095,1.355,0.265,169.444,88.889,283.333,747.222,25.000,N
1710,-0.165,1.280,0.190,172.222,83.333,283.333,725.000,22.222,N
1711,-0.300,1.250,0.190,166.667,86.111,283.333,711.111,13.889,N
1712,0.030,1.360,0.245,166.667,86.111,286.111,722.222,11.111,N
1713,-0.135,1.430,0.335,166.667,86.111,302.778,705.556,16.667,N
1714,-0.075,1.310,0.200,163.889,66.667,275.000,688.889,16.667,N
1715,-0.090,1.465,0.370,169.444,83.333,286.111,711.111,22.222,N
1716,-0.090,1.455,0.270,175.000,83.333,269.444,719.444,8.333,N
1717,-0.055,1.100,0.425,169.444,69.444,244.444,708.333,11.111,N
1718,-0.025,1.905,0.565,61.111,69.444,111.111,702.778,5.556,N
1719,0.135,1.725,0.160,172.222,69.444,308.333,700.000,2.778,N
1720,0.035,1.350,0.415,44.444,58.333,291.667,700.000,0.000,N
1721,-0.085,1.735,0.120,166.667,88.889,347.222,680.556,19.444,N
1722,-0.115,1.370,-0.800,158.333,77.778,125.000,675.000,5.556,N
1723,-0.405,1.245,-0.395,58.333,88.889,319.444,663.889,11.111,N
1724,-0.210,1.640,-0.175,58.333,88.889,322.222,655.556,8.333,N
1725,-0.030,1.775,-0.055,58.333,86.111,338.889,650.000,5.556,N
1726,-0.005,1.810,0.110,58.333,86.111,316.667,655.556,5.556,N
1727,-0.015,1.775,-0.170,166.667,88.889,316.667,666.667,11.111,N
1728,-0.125,1.820,-0.175,175.000,88.889,319.444,697.222,30.556,N
1729,-0.165,1.765,-0.380,58.333,86.111,322.222,697.222,0.000,N
1730,-0.420,1.620,-0.475,58.333,86.111,325.000,722.222,25.000,N
1731,-0.350,1.590,-0.365,58.333,86.111,311.111,713.889,8.333,N
1732,-0.270,1.665,-0.250,58.333,86.111,311.111,683.333,30.556,N
1733,-0.180,1.540,-0.180,166.667,88.889,313.889,683.333,0.000,N
1734,-0.105,1.360,-0.190,58.333,88.889,305.556,686.111,2.778,N
1735,-0.005,1.070,0.315,172.222,86.111,311.111,686.111,0.000,N
1736,-0.045,1.200,0.335,177.778,86.111,250.000,700.000,13.889,N
1737,-0.100,1.220,0.160,169.444,83.333,280.556,700.000,0.000,N
1738,-0.160,0.985,0.155,169.444,83.333,272.222,708.333,8.333,N
1739,-0.115,1.060,0.160,169.444,86.111,288.889,688.889,19.444,N
1740,-0.155,1.430,-0.135,58.333,88.889,319.444,708.333,19.444,N
1741,-0.055,1.590,-0.030,58.333,86.111,311.111,738.889,30.556,N
1742,0.080,1.520,-0.015,58.333,88.889,316.667,763.889,25.000,N
1743,0.005,1.840,-0.080,58.333,88.889,338.889,772.222,8.333,N
1744,-0.035,1.770,-0.055,58.333,88.889,319.444,769.444,2.778,N
1745,0.000,1.745,0.000,58.333,88.889,313.889,800.000,30.556,N
1746,0.020,1.835,-0.085,58.333,86.111,325.000,819.444,19.444,N
1747,-0.090,1.835,-0.150,58.333,88.889,319.444,800.000,19.444,N
1748,-0.130,1.655,-0.100,58.333,88.889,325.000,838.889,38.889,N
1749,-0.040,1.735,-0.110,58.333,86.111,327.778,861.111,22.222,N
1750,-0.185,1.235,0.175,161.111,86.111,275.000,844.444,16.667,N
1751,-0.130,1.695,-0.110,58.333,86.111,319.444,836.111,8.333,N
1752,-0.075,1.795,-0.130,58.333,86.111,316.667,863.889,27.778,N
1753,-0.130,1.805,-0.210,58.333,88.889,311.111,838.889,25.000,N
1754,-0.070,1.900,-0.145,58.333,88.889,319.444,838.889,0.000,N
1755,-0.005,1.975,-0.065,180.556,86.111,322.222,838.889,0.000,N
1756,-0.140,1.605,0.320,180.556,83.333,272.222,816.667,22.222,N
1757,0.015,1.665,0.525,169.444,86.111,294.444,763.889,52.778,N
1758,0.245,2.220,0.035,58.333,86.111,105.556,788.889,25.000,N
1759,-0.050,1.770,-0.235,58.333,86.111,319.444,780.556,8.333,N
1760,-0.390,1.650,-0.335,58.333,88.889,325.000,733.333,47.222,N
1761,-0.155,1.705,-0.190,58.333,86.111,311.111,722.222,11.111,N
1762,0.000,1.720,-0.015,58.333,88.889,325.000,705.556,16.667,N
1763,0.170,1.935,0.130,58.333,88.889,327.778,736.111,30.556,N
1764,0.160,2.160,-0.070,58.333,86.111,105.556,769.444,33.333,N
1765,-0.065,2.035,-0.290,58.333,86.111,319.444,800.000,30.556,N
1766,-0.095,1.875,-0.195,58.333,86.111,319.444,786.111,13.889,N
1767,-0.100,1.765,-0.190,58.333,88.889,330.556,805.556,19.444,N
1768,-0.105,1.940,-0.185,58.333,86.111,322.222,819.444,13.889,N
1769,-0.050,1.920,-0.115,58.333,86.111,319.444,800.000,19.444,N
1770,0.070,2.025,-0.035,58.333,88.889,325.000,858.333,58.333,N
1771,0.045,1.950,-0.070,58.333,86.111,313.889,883.333,25.000,N
1772,-0.065,1.480,0.200,172.222,77.778,252.778,888.889,5.556,N
1773,-0.190,1.355,0.060,175.000,75.000,252.778,875.000,13.889,N
1774,-0.285,1.330,0.075,175.000,86.111,288.889,863.889,11.111,N
1775,-0.205,1.280,0.125,169.444,80.556,280.556,863.889,0.000,N
1776,-0.145,1.505,0.215,191.667,72.222,272.222,897.222,33.333,N
1777,-0.100,1.280,0.225,155.556,86.111,266.667,825.000,72.222,N
1778,-0.020,1.590,0.480,186.111,83.333,269.444,805.556,19.444,N
1779,-0.250,1.255,0.150,177.778,86.111,300.000,780.556,25.000,N
1780,-0.230,1.255,0.045,175.000,69.444,266.667,772.222,8.333,N
1781,-0.215,1.430,-0.050,58.333,88.889,341.667,802.778,30.556,N
1782,-0.125,1.565,0.095,58.333,86.111,322.222,772.222,30.556,N
1783,-0.080,1.225,0.095,194.444,86.111,277.778,741.667,30.556,N
1784,-0.135,1.425,-0.230,58.333,88.889,322.222,719.444,22.222,N
1785,-0.130,1.495,-0.010,58.333,88.889,361.111,711.111,8.333,N
1786,0.155,1.695,-0.075,175.000,86.111,400.000,708.333,2.778,N
1787,0.070,1.390,-0.100,172.222,86.111,311.111,688.889,19.444,N
1788,-0.020,1.605,-0.210,58.333,88.889,325.000,686.111,2.778,N
1789,-0.155,1.760,-0.265,58.333,86.111,313.889,708.333,22.222,N
1790,-0.160,1.675,-0.210,177.778,88.889,336.111,675.000,33.333,N
1791,-0.235,1.625,-0.255,58.333,86.111,313.889,702.778,27.778,N
1792,-0.210,1.700,-0.275,58.333,88.889,319.444,713.889,11.111,N
1793,-0.215,1.735,-0.285,58.333,88.889,325.000,716.667,2.778,N
1794,-0.210,1.710,-0.305,61.111,88.889,316.667,752.778,36.111,N
1795,-0.145,1.780,-0.220,58.333,88.889,319.444,738.889,13.889,N
1796,-0.255,1.595,-0.275,177.778,88.889,322.222,769.444,30.556,N
1797,-0.330,1.360,-0.300,58.333,88.889,316.667,777.778,8.333,N
1798,-0.320,1.860,-0.330,58.333,86.111,405.556,794.444,16.667,N
1799,-0.120,1.910,-0.175,172.222,86.111,311.111,738.889,55.556,N
1800,-0.080,1.930,-0.160,58.333,86.111,338.889,736.111,2.778,N
1801,-0.010,2.190,-0.205,58.333,86.111,336.111,738.889,2.778,N
1802,-0.095,2.110,-0.235,172.222,86.111,325.000,708.333,30.556,N
1803,-0.050,2.030,-0.145,58.333,88.889,305.556,727.778,19.444,N
1804,0.025,2.230,-0.095,58.333,86.111,316.667,711.111,16.667,N
1805,0.145,2.530,-0.020,58.333,80.556,325.000,727.778,16.667,N
1806,0.135,2.390,-0.035,58.333,86.111,377.778,758.333,30.556,N
1807,0.060,2.120,-0.010,172.222,88.889,327.778,744.444,13.889,N
1808,0.000,2.075,-0.010,175.000,86.111,316.667,738.889,5.556,N
1809,0.010,1.990,-0.160,58.333,86.111,319.444,727.778,11.111,N
1810,-0.320,2.010,-0.460,58.333,86.111,319.444,713.889,13.889,N
1811,-0.235,1.900,-0.255,58.333,86.111,316.667,713.889,0.000,N
1812,-0.105,2.055,-0.245,58.333,88.889,319.444,747.222,33.333,N
1813,-0.085,2.100,-0.045,58.333,88.889,113.889,780.556,33.333,N
1814,0.025,2.330,0.020,58.333,86.111,330.556,780.556,0.000,N
1815,0.130,2.165,-0.025,58.333,86.111,325.000,772.222,8.333,N
1816,-0.090,2.225,-0.230,177.778,86.111,316.667,741.667,30.556,N
1817,-0.105,1.920,-0.200,58.333,88.889,333.333,738.889,2.778,N
1818,-0.125,1.710,-0.245,58.333,86.111,325.000,752.778,13.889,N
1819,-0.165,1.655,-0.255,58.333,86.111,322.222,736.111,16.667,N
1820,-0.070,1.965,-0.310,58.333,86.111,316.667,727.778,8.333,N
1821,-0.130,1.935,-0.325,58.333,88.889,319.444,713.889,13.889,N
1822,-0.100,1.935,-0.230,58.333,88.889,330.556,747.222,33.333,N
1823,-0.065,1.980,-0.210,58.333,86.111,325.000,805.556,58.333,N
1824,-0.025,1.995,-0.230,58.333,88.889,325.000,830.556,25.000,N
1825,-0.100,1.885,-0.185,58.333,88.889,322.222,786.111,44.444,N
1826,-0.050,1.890,-0.170,58.333,88.889,327.778,791.667,5.556,N
1827,-0.015,1.880,-0.130,58.333,86.111,311.111,819.444,27.778,N
1828,-0.085,2.190,-0.200,58.333,86.111,325.000,791.667,27.778,N
1829,-0.010,2.265,-0.175,58.333,88.889,336.111,777.778,13.889,N
1830,0.040,1.875,-0.035,169.444,86.111,308.333,783.333,5.556,N
1831,0.100,2.025,-0.100,58.333,88.889,336.111,769.444,13.889,N
1832,-0.025,2.030,-0.175,58.333,88.889,330.556,783.333,13.889,N
1833,-0.120,1.935,-0.195,180.556,88.889,330.556,772.222,11.111,N
1834,-0.055,1.725,-0.255,58.333,86.111,330.556,769.444,2.778,N
1835,-0.135,1.495,-0.195,58.333,86.111,333.333,730.556,38.889,N
1836,-0.170,1.635,-0.260,186.111,88.889,319.444,758.333,27.778,N
1837,-0.125,1.575,0.555,58.333,88.889,380.556,747.222,11.111,N
1838,0.045,0.555,-0.025,52.778,55.556,297.222,322.222,425.000,|
1839,-0.020,1.610,-0.035,58.333,88.889,341.667,408.333,86.111,N
1840,-0.085,1.635,-0.250,58.333,86.111,319.444,727.778,319.444,N
1841,-0.210,1.715,-0.195,58.333,86.111,313.889,730.556,2.778,N
1842,-0.085,1.640,-0.155,58.333,86.111,327.778,750.000,19.444,N
1843,-0.095,1.630,-0.175,58.333,86.111,305.556,791.667,41.667,N
1844,-0.105,1.700,-0.295,58.333,88.889,319.444,788.889,2.778,N
1845,-0.140,1.695,-0.220,58.333,86.111,322.222,783.333,5.556,N
1846,-0.150,1.650,-0.280,58.333,88.889,327.778,780.556,2.778,N
1847,-0.100,1.525,-0.255,55.556,83.333,322.222,794.444,13.889,N
1848,-0.125,1.435,-0.220,58.333,88.889,400.000,761.111,33.333,N
1849,-0.125,1.285,-0.250,58.333,86.111,327.778,761.111,0.000,N
1850,-0.140,1.575,-0.180,58.333,88.889,325.000,752.778,8.333,N
1851,-0.040,1.805,-0.090,58.333,88.889,327.778,730.556,22.222,N
1852,-0.015,1.785,-0.090,58.333,88.889,313.889,750.000,19.444,N
1853,-0.040,1.695,-0.105,58.333,88.889,336.111,769.444,19.444,N
1854,-0.100,1.570,-0.120,58.333,86.111,316.667,825.000,55.556,N
1855,-0.120,1.545,-0.185,58.333,86.111,319.444,847.222,22.222,N
1856,-0.110,1.470,-0.120,58.333,86.111,319.444,855.556,8.333,N
1857,-0.215,1.690,-0.235,161.111,86.111,325.000,825.000,30.556,N
1858,-0.030,1.970,-0.030,58.333,88.889,311.111,816.667,8.333,N
1859,-0.085,2.275,-0.175,58.333,86.111,316.667,761.111,55.556,N
1860,-0.005,2.275,-0.110,58.333,88.889,322.222,747.222,13.889,N
1861,0.035,2.400,-0.085,58.333,88.889,325.000,741.667,5.556,N
1862,-0.060,2.065,0.075,58.333,88.889,383.333,755.556,13.889,N
1863,0.140,2.310,0.010,66.667,86.111,319.444,777.778,22.222,N
1864,0.075,2.345,0.005,58.333,88.889,333.333,791.667,13.889,N
1865,0.070,2.445,-0.065,58.333,86.111,333.333,833.333,41.667,N
1866,-0.100,1.975,-0.100,58.333,86.111,327.778,866.667,33.333,N
1867,-0.145,2.210,-0.250,177.778,88.889,319.444,858.333,8.333,N
1868,-0.200,2.005,-0.245,58.333,86.111,319.444,802.778,55.556,N
1869,-0.080,1.915,-0.100,58.333,86.111,333.333,800.000,2.778,N
1870,-0.090,2.065,-0.195,58.333,86.111,322.222,791.667,8.333,N
1871,0.075,2.100,-0.050,58.333,86.111,330.556,755.556,36.111,N
1872,0.040,2.090,-0.075,58.333,88.889,327.778,736.111,19.444,N
1873,-0.005,2.305,-0.085,58.333,88.889,316.667,719.444,16.667,N
1874,0.025,2.265,-0.090,58.333,86.111,316.667,694.444,25.000,N
1875,0.000,2.215,-0.110,58.333,88.889,311.111,688.889,5.556,N
1876,-0.015,2.115,-0.100,58.333,88.889,319.444,708.333,19.444,N
1877,0.005,2.105,-0.110,58.333,86.111,322.222,772.222,63.889,N
1878,-0.060,2.180,-0.120,58.333,86.111,397.222,777.778,5.556,N
1879,-0.045,2.080,-0.040,58.333,86.111,319.444,763.889,13.889,N
1880,0.060,2.350,0.030,58.333,86.111,330.556,755.556,8.333,N
1881,0.085,2.480,-0.080,58.333,86.111,325.000,766.667,11.111,N
1882,-0.005,2.315,-0.130,58.333,86.111,316.667,761.111,5.556,N
1883,-0.095,2.055,-0.180,58.333,86.111,322.222,775.000,13.889,N
1884,-0.120,1.900,-0.205,58.333,86.111,325.000,800.000,25.000,N
1885,-0.155,1.995,-0.240,55.556,83.333,325.000,788.889,11.111,N
1886,-0.150,1.960,-0.100,58.333,86.111,350.000,755.556,33.333,N
1887,0.115,1.765,-0.025,55.556,75.000,111.111,755.556,0.000,N
1888,-0.145,1.570,-0.170,58.333,86.111,333.333,761.111,5.556,N
1889,-0.100,1.850,-0.110,58.333,86.111,336.111,758.333,2.778,N
1890,-0.080,1.795,-0.095,172.222,88.889,327.778,752.778,5.556,N
1891,-0.085,1.945,-0.130,58.333,86.111,305.556,747.222,5.556,N
1892,-0.010,1.735,-0.060,58.333,88.889,338.889,736.111,11.111,N
1893,0.035,2.145,-0.085,58.333,86.111,325.000,750.000,13.889,N
1894,-0.035,2.060,-0.110,58.333,86.111,319.444,736.111,13.889,N
1895,-0.025,1.770,-0.135,58.333,88.889,330.556,755.556,19.444,N
1896,-0.035,1.725,-0.145,58.333,88.889,350.000,783.333,27.778,N
1897,-0.040,1.995,-0.170,58.333,86.111,325.000,780.556,2.778,N
1898,0.000,1.865,-0.145,58.333,88.889,327.778,772.222,8.333,N
1899,-0.075,1.705,-0.095,58.333,86.111,322.222,786.111,13.889,N
1900,-0.025,1.750,-0.165,58.333,88.889,327.778,808.333,22.222,N
1901,-0.015,1.995,-0.175,58.333,88.889,327.778,808.333,0.000,N
