id,Pamp,Ramp,Tamp,PR,QRS,QT,RRI,dRRI,label
1,-0.030,0.995,-0.245,119.444,69.444,352.778,763.889,202.778,N
2,-0.040,-2.080,0.580,38.889,0.000,197.222,508.333,255.556,V
3,-0.135,1.050,-0.105,163.889,61.111,325.000,794.444,286.111,N
4,0.155,-2.090,0.815,36.111,5.556,205.556,491.667,302.778,V
5,-0.085,0.895,-0.160,177.778,66.667,297.222,755.556,263.889,N
6,0.120,-1.915,0.565,38.889,0.000,186.111,527.778,227.778,V
7,-0.080,1.095,-0.100,180.556,69.444,361.111,719.444,191.667,N
8,0.020,-2.155,0.770,36.111,2.778,197.222,486.111,233.333,V
9,-0.125,0.790,-0.180,183.333,69.444,375.000,772.222,286.111,N
10,0.160,-1.940,0.660,44.444,2.778,230.556,569.444,202.778,V
11,-0.125,0.905,-0.120,197.222,63.889,327.778,863.889,294.444,N
12,0.060,-2.245,0.705,38.889,5.556,200.000,511.111,352.778,V
13,-0.220,0.605,-0.230,144.444,61.111,305.556,705.556,194.444,N
14,-0.235,0.725,-0.130,155.556,58.333,272.222,658.333,47.222,N
15,-0.295,0.665,-0.125,119.444,63.889,261.111,627.778,30.556,N
16,-0.230,0.825,0.010,111.111,66.667,291.667,597.222,30.556,N
17,-0.085,1.075,0.055,183.333,66.667,305.556,638.889,41.667,N
18,-0.110,0.960,0.075,194.444,77.778,311.111,650.000,11.111,N
19,-0.085,0.945,0.095,175.000,72.222,325.000,705.556,55.556,N
20,-0.020,1.190,0.190,55.556,63.889,272.222,686.111,19.444,N
21,0.090,1.160,0.120,177.778,66.667,269.444,622.222,63.889,N
22,-0.020,1.030,0.060,177.778,72.222,291.667,600.000,22.222,N
23,-0.140,0.845,-0.065,188.889,69.444,286.111,738.889,138.889,N
24,0.290,-2.025,0.770,36.111,0.000,213.889,550.000,188.889,V
25,-0.105,0.975,-0.065,166.667,63.889,372.222,727.778,177.778,N
26,-0.045,-2.200,0.645,52.778,0.000,194.444,475.000,252.778,V
27,-0.240,0.825,-0.145,194.444,69.444,338.889,994.444,519.444,N
28,0.105,-2.115,0.780,36.111,0.000,222.222,511.111,483.333,V
29,0.700,2.035,-0.175,58.333,116.667,405.556,541.667,30.556,V
30,-0.015,1.065,0.095,102.778,69.444,319.444,1233.333,691.667,N
31,0.120,-2.095,0.745,50.000,2.778,211.111,486.111,747.222,V
32,-0.030,1.150,-0.060,91.667,61.111,294.444,888.889,402.778,N
33,0.235,-1.895,0.620,38.889,2.778,216.667,508.333,380.556,V
34,0.600,1.680,-0.320,197.222,94.444,405.556,413.889,94.444,V
35,-0.040,1.135,-0.040,186.111,69.444,388.889,1233.333,819.444,N
36,0.135,-1.875,0.565,33.333,2.778,244.444,594.444,638.889,V
37,-0.190,0.845,-0.185,197.222,69.444,325.000,905.556,311.111,N
38,-0.130,1.120,0.005,116.667,69.444,305.556,702.778,202.778,N
39,-0.115,1.115,-0.015,100.000,83.333,305.556,650.000,52.778,N
40,-0.170,0.815,-0.085,183.333,66.667,277.778,663.889,13.889,N
41,-0.260,0.850,-0.085,186.111,69.444,313.889,658.333,5.556,N
42,-0.165,1.070,-0.010,183.333,58.333,266.667,633.333,25.000,N
43,-0.185,0.885,-0.070,194.444,66.667,280.556,641.667,8.333,N
44,-0.200,0.805,-0.025,177.778,72.222,294.444,636.111,5.556,N
45,-0.185,1.150,-0.020,75.000,77.778,350.000,711.111,75.000,N
46,-0.140,1.065,0.005,177.778,77.778,322.222,666.667,44.444,N
47,-0.120,0.960,-0.075,119.444,69.444,341.667,838.889,172.222,N
48,0.275,-1.975,0.640,36.111,2.778,197.222,569.444,269.444,V
49,-0.045,1.100,-0.045,144.444,61.111,341.667,991.667,422.222,N
50,-0.015,-2.140,0.630,44.444,2.778,211.111,497.222,494.444,V
51,0.585,1.200,-0.200,197.222,100.000,347.222,422.222,75.000,V
52,-0.050,1.080,-0.055,111.111,75.000,386.111,1305.556,883.333,N
53,0.040,-1.930,0.560,38.889,2.778,216.667,586.111,719.444,V
54,-0.095,1.080,-0.025,94.444,61.111,377.778,1022.222,436.111,N
55,0.110,1.090,0.135,83.333,69.444,311.111,719.444,302.778,N
56,0.085,0.255,0.925,138.889,94.444,308.333,494.444,225.000,V
57,-0.065,1.025,-0.040,172.222,61.111,350.000,1013.889,519.444,N
58,0.255,-2.050,0.675,38.889,2.778,227.778,505.556,508.333,V
59,-0.260,0.735,-0.250,177.778,69.444,358.333,902.778,397.222,N
60,-0.080,-2.165,0.590,47.222,5.556,222.222,513.889,388.889,V
61,-0.140,0.945,-0.110,177.778,61.111,366.667,925.000,411.111,N
62,-0.135,0.710,-0.130,194.444,69.444,333.333,741.667,183.333,N
63,-0.200,0.335,0.605,183.333,105.556,313.889,527.778,213.889,V
64,-0.130,0.830,-0.165,166.667,61.111,300.000,861.111,333.333,N
65,0.015,-1.895,0.515,38.889,2.778,213.889,513.889,347.222,V
66,-0.030,0.930,-0.090,163.889,66.667,338.889,788.889,275.000,N
67,0.350,-2.100,0.730,38.889,8.333,222.222,483.333,305.556,V
68,-0.140,0.805,-0.170,197.222,69.444,361.111,911.111,427.778,N
69,0.160,-1.870,0.645,44.444,2.778,258.333,538.889,372.222,V
70,0.050,1.010,0.110,69.444,77.778,336.111,941.667,402.778,N
71,0.150,-2.240,0.680,52.778,5.556,208.333,511.111,430.556,V
72,-0.085,0.795,-0.170,138.889,86.111,358.333,872.222,361.111,N
73,-0.120,1.015,0.270,180.556,66.667,261.111,672.222,200.000,N
74,-0.045,0.385,0.880,188.889,116.667,302.778,525.000,147.222,V
75,-0.115,0.830,-0.220,172.222,66.667,316.667,844.444,319.444,N
76,-0.175,1.755,-0.140,102.778,116.667,405.556,483.333,361.111,V
77,-0.025,1.260,0.085,186.111,86.111,350.000,858.333,375.000,N
78,0.225,-2.030,0.710,63.889,5.556,230.556,511.111,347.222,V
79,-0.230,0.835,-0.235,136.111,80.556,380.556,919.444,408.333,N
80,0.130,-2.005,0.600,38.889,2.778,216.667,586.111,333.333,V
81,-0.060,1.120,-0.065,186.111,75.000,355.556,866.667,280.556,N
82,0.030,-2.175,0.675,41.667,8.333,186.111,463.889,402.778,V
83,-0.105,0.835,-0.155,161.111,52.778,358.333,750.000,286.111,N
84,0.265,-1.975,0.710,36.111,2.778,161.111,511.111,238.889,V
85,0.105,1.160,-0.035,177.778,105.556,341.667,830.556,319.444,N
86,-0.070,-2.190,0.725,55.556,5.556,230.556,511.111,319.444,V
87,-0.185,0.930,-0.125,111.111,75.000,375.000,919.444,408.333,N
88,-0.030,1.230,0.095,125.000,75.000,308.333,716.667,202.778,N
89,-0.010,1.090,-0.025,111.111,66.667,280.556,650.000,66.667,N
90,-0.225,0.895,-0.050,50.000,66.667,286.111,672.222,22.222,N
91,-0.220,0.980,0.015,152.778,75.000,316.667,625.000,47.222,N
92,0.005,1.165,0.055,113.889,63.889,291.667,708.333,83.333,N
93,-0.105,0.920,-0.040,175.000,58.333,244.444,708.333,0.000,N
94,-0.130,1.140,0.025,175.000,83.333,297.222,669.444,38.889,N
95,-0.035,1.210,0.060,133.333,72.222,327.778,675.000,5.556,N
96,-0.060,0.960,-0.020,169.444,63.889,327.778,705.556,30.556,N
97,-0.135,0.945,0.230,191.667,69.444,283.333,636.111,69.444,N
98,-0.025,1.100,0.055,166.667,69.444,319.444,772.222,136.111,N
99,0.215,-2.110,0.690,36.111,5.556,216.667,586.111,186.111,V
100,-0.205,0.780,-0.145,155.556,72.222,333.333,872.222,286.111,N
101,0.075,-2.145,0.800,30.556,2.778,172.222,466.667,405.556,V
102,0.070,1.480,-0.290,58.333,94.444,400.000,550.000,83.333,V
103,-0.115,1.020,0.085,166.667,69.444,352.778,1094.444,544.444,N
104,0.330,-1.900,0.755,33.333,0.000,252.778,577.778,516.667,V
105,-0.100,0.845,-0.175,177.778,69.444,361.111,897.222,319.444,N
106,-0.060,-2.210,0.650,33.333,0.000,200.000,530.556,366.667,V
107,-0.100,1.015,-0.090,83.333,77.778,366.667,1013.889,483.333,N
108,-0.005,-2.275,0.770,47.222,2.778,227.778,494.444,519.444,V
109,-0.120,1.070,-0.105,105.556,80.556,358.333,1016.667,522.222,N
110,0.065,-2.285,0.870,36.111,2.778,197.222,513.889,502.778,V
111,-0.125,0.875,-0.135,183.333,69.444,358.333,988.889,475.000,N
112,0.135,-1.880,0.680,41.667,0.000,227.778,522.222,466.667,V
113,-0.085,1.065,-0.185,194.444,77.778,391.667,1002.778,480.556,N
114,-0.040,-2.265,0.645,47.222,5.556,216.667,563.889,438.889,V
115,-0.150,0.985,-0.100,186.111,66.667,338.889,975.000,411.111,N
116,-0.055,1.045,-0.025,163.889,66.667,288.889,650.000,325.000,N
117,-0.140,0.860,-0.070,108.333,72.222,297.222,630.556,19.444,N
118,-0.070,0.815,-0.035,177.778,55.556,247.222,452.778,177.778,V
119,-0.030,1.120,0.025,191.667,75.000,350.000,863.889,411.111,N
120,0.175,-2.145,0.885,47.222,5.556,252.778,530.556,333.333,V
121,0.090,0.990,-0.010,130.556,94.444,394.444,944.444,413.889,N
122,0.380,-1.930,0.835,41.667,2.778,222.222,541.667,402.778,V
123,0.085,1.125,-0.050,169.444,61.111,327.778,811.111,269.444,N
124,0.035,-2.090,0.670,47.222,5.556,225.000,494.444,316.667,V
125,-0.170,1.015,-0.145,177.778,72.222,383.333,838.889,344.444,N
126,0.210,-2.045,0.705,36.111,2.778,211.111,530.556,308.333,V
127,-0.085,0.970,-0.180,169.444,61.111,325.000,869.444,338.889,N
128,-0.075,-2.180,0.590,47.222,5.556,227.778,475.000,394.444,V
129,-0.125,1.050,-0.135,191.667,75.000,386.111,913.889,438.889,N
130,-0.095,1.040,0.020,172.222,69.444,336.111,744.444,169.444,N
131,-0.120,0.880,-0.060,183.333,69.444,313.889,750.000,5.556,N
132,-0.185,0.895,-0.025,122.222,77.778,322.222,752.778,2.778,N
133,-0.055,1.140,0.050,169.444,61.111,297.222,697.222,55.556,N
134,-0.030,1.100,0.055,163.889,61.111,272.222,691.667,5.556,N
135,-0.105,0.905,-0.070,180.556,66.667,302.778,700.000,8.333,N
136,-0.155,1.070,0.015,122.222,77.778,355.556,791.667,91.667,N
137,-0.050,1.155,0.040,188.889,72.222,336.111,802.778,11.111,N
138,-0.020,1.120,0.040,194.444,69.444,308.333,825.000,22.222,N
139,-0.100,1.050,-0.030,175.000,63.889,322.222,980.556,155.556,N
140,0.305,-2.055,0.775,41.667,2.778,225.000,563.889,416.667,V
141,-0.055,1.040,-0.065,186.111,72.222,319.444,994.444,430.556,N
142,0.175,-1.895,0.770,38.889,5.556,244.444,511.111,483.333,V
143,0.120,1.210,0.135,88.889,66.667,355.556,1013.889,502.778,N
144,0.220,-2.070,0.820,58.333,11.111,225.000,527.778,486.111,V
145,-0.010,1.175,-0.065,191.667,77.778,361.111,1033.333,505.556,N
146,0.590,-1.790,0.645,36.111,2.778,250.000,647.222,386.111,V
147,-0.110,0.890,-0.165,172.222,66.667,355.556,938.889,291.667,N
148,0.155,-1.960,0.545,38.889,2.778,227.778,533.333,405.556,V
149,-0.095,1.060,-0.090,169.444,63.889,366.667,877.778,344.444,N
150,-0.010,-2.315,0.710,33.333,0.000,197.222,486.111,391.667,V
151,-0.170,0.830,-0.160,152.778,61.111,375.000,886.111,400.000,N
152,0.120,-2.165,0.745,36.111,5.556,233.333,527.778,358.333,V
153,0.670,0.880,-0.115,197.222,69.444,358.333,458.333,69.444,V
154,0.500,1.570,-0.505,58.333,116.667,405.556,852.778,394.444,V
155,-0.055,1.115,0.040,166.667,69.444,325.000,1136.111,283.333,N
156,0.275,-1.990,0.685,36.111,2.778,213.889,491.667,644.444,V
157,-0.085,0.960,-0.030,61.111,88.889,391.667,863.889,372.222,N
158,0.115,-1.885,0.645,36.111,2.778,222.222,558.333,305.556,V
159,-0.075,1.100,0.070,161.111,69.444,383.333,763.889,205.556,N
160,0.085,-2.145,0.705,38.889,0.000,208.333,530.556,233.333,V
161,0.165,1.065,0.055,116.667,75.000,375.000,1047.222,516.667,N
162,0.200,-2.350,0.805,33.333,8.333,236.111,544.444,502.778,V
163,-0.065,0.805,0.030,172.222,75.000,377.778,969.444,425.000,N
164,-0.070,1.150,-0.050,183.333,72.222,322.222,736.111,233.333,N
165,-0.120,0.400,0.830,194.444,108.333,291.667,522.222,213.889,V
166,-0.205,0.805,-0.220,102.778,91.667,377.778,838.889,316.667,N
167,0.210,-1.945,0.645,36.111,5.556,188.889,500.000,338.889,V
168,-0.110,1.245,0.005,58.333,72.222,383.333,844.444,344.444,N
169,0.055,-1.845,0.745,52.778,11.111,266.667,572.222,272.222,V
170,0.055,1.100,0.080,191.667,86.111,347.222,947.222,375.000,N
171,0.300,-1.905,0.905,33.333,5.556,225.000,550.000,397.222,V
172,0.095,1.160,0.025,111.111,61.111,347.222,855.556,305.556,N
173,0.330,-1.795,0.665,41.667,0.000,219.444,519.444,336.111,V
174,0.135,1.265,0.120,116.667,83.333,355.556,844.444,325.000,N
175,0.360,-2.150,0.910,58.333,2.778,211.111,513.889,330.556,V
176,0.000,0.905,-0.065,75.000,83.333,372.222,900.000,386.111,N
177,0.195,-1.755,0.875,41.667,11.111,230.556,527.778,372.222,V
178,0.045,1.025,0.040,197.222,83.333,402.778,905.556,377.778,N
179,0.415,-2.335,0.750,41.667,2.778,236.111,513.889,391.667,V
180,-0.180,0.735,-0.180,197.222,72.222,280.556,938.889,425.000,N
181,-0.145,0.940,0.015,175.000,63.889,288.889,630.556,308.333,N
182,-0.080,0.460,0.955,175.000,108.333,338.889,533.333,97.222,V
183,-0.060,0.800,-0.145,161.111,83.333,369.444,902.778,369.444,N
184,0.125,-1.915,0.650,36.111,5.556,225.000,533.333,369.444,V
185,-0.125,1.015,-0.065,166.667,61.111,316.667,869.444,336.111,N
186,0.090,-2.300,0.575,147.222,2.778,230.556,516.667,352.778,V
187,-0.185,0.735,-0.215,197.222,77.778,372.222,919.444,402.778,N
188,-0.095,1.035,-0.035,138.889,69.444,308.333,933.333,13.889,N
189,-0.120,0.840,-0.045,172.222,63.889,297.222,850.000,83.333,N
190,-0.090,0.950,0.045,166.667,88.889,327.778,713.889,136.111,N
191,-0.065,1.165,0.075,194.444,72.222,327.778,777.778,63.889,N
192,-0.080,0.890,-0.025,191.667,66.667,308.333,780.556,2.778,N
193,-0.095,0.905,0.020,180.556,66.667,322.222,772.222,8.333,N
194,-0.020,1.170,0.060,119.444,72.222,352.778,758.333,13.889,N
195,-0.070,1.020,0.020,133.333,77.778,355.556,763.889,5.556,N
196,-0.065,0.960,0.070,177.778,66.667,325.000,741.667,22.222,N
197,-0.020,1.150,0.080,197.222,69.444,325.000,750.000,8.333,N
198,-0.005,1.180,0.080,197.222,69.444,302.778,733.333,16.667,N
199,-0.010,0.830,0.135,116.667,63.889,291.667,683.333,50.000,N
200,0.045,0.890,0.120,169.444,116.667,344.444,686.111,2.778,N
201,0.060,1.245,0.140,147.222,86.111,325.000,683.333,2.778,N
202,0.000,1.000,0.010,105.556,108.333,377.778,794.444,111.111,N
203,-0.105,0.870,0.030,197.222,69.444,322.222,827.778,33.333,N
204,-0.025,1.075,0.035,188.889,83.333,311.111,775.000,52.778,N
205,-0.080,1.085,0.055,197.222,69.444,308.333,658.333,116.667,N
206,0.010,0.955,0.120,125.000,77.778,311.111,669.444,11.111,N
207,0.020,1.220,0.310,66.667,86.111,347.222,688.889,19.444,N
208,0.130,1.335,0.210,102.778,72.222,327.778,688.889,0.000,N
209,0.095,1.065,0.290,183.333,66.667,369.444,700.000,11.111,N
210,-0.040,0.945,0.080,163.889,69.444,313.889,738.889,38.889,N
211,0.040,1.170,0.080,177.778,72.222,288.889,744.444,5.556,N
212,0.060,1.155,0.090,119.444,88.889,375.000,686.111,58.333,N
213,-0.070,1.040,-0.065,119.444,75.000,308.333,719.444,33.333,N
214,-0.020,0.995,0.050,52.778,66.667,358.333,763.889,44.444,N
215,-0.120,1.025,0.110,69.444,72.222,252.778,669.444,94.444,N
216,-0.105,0.805,-0.080,186.111,55.556,258.333,652.778,16.667,N
217,-0.195,0.855,0.005,125.000,69.444,344.444,669.444,16.667,N
218,-0.100,1.095,-0.005,122.222,69.444,286.111,694.444,25.000,N
219,-0.150,0.780,-0.035,111.111,72.222,347.222,691.667,2.778,N
220,-0.185,0.855,-0.005,194.444,72.222,361.111,766.667,75.000,N
221,-0.045,1.115,0.090,197.222,77.778,302.778,775.000,8.333,N
222,0.010,1.120,0.100,175.000,63.889,302.778,675.000,100.000,N
223,-0.050,0.905,0.040,161.111,63.889,288.889,663.889,11.111,N
224,-0.050,1.070,0.045,119.444,66.667,311.111,663.889,0.000,N
225,-0.040,1.140,0.095,55.556,72.222,358.333,711.111,47.222,N
226,0.070,1.065,0.065,180.556,63.889,322.222,711.111,0.000,N
227,-0.095,0.955,0.100,197.222,69.444,327.778,750.000,38.889,N
228,0.040,1.220,0.285,88.889,69.444,325.000,727.778,22.222,N
229,0.155,1.045,0.260,111.111,83.333,369.444,719.444,8.333,N
230,-0.040,1.020,0.180,119.444,72.222,341.667,694.444,25.000,N
231,0.425,0.985,0.225,166.667,58.333,125.000,711.111,16.667,N
232,0.065,0.975,0.250,52.778,91.667,322.222,713.889,2.778,N
233,0.020,0.730,0.015,91.667,63.889,288.889,666.667,47.222,N
234,-0.140,0.790,0.020,102.778,77.778,325.000,677.778,11.111,N
235,-0.070,1.110,0.020,180.556,63.889,302.778,658.333,19.444,N
236,-0.050,1.125,0.055,150.000,72.222,358.333,736.111,77.778,N
237,-0.090,0.885,-0.040,138.889,77.778,341.667,800.000,63.889,N
238,-0.185,0.940,-0.105,122.222,66.667,305.556,750.000,50.000,N
239,-0.155,1.120,-0.050,175.000,61.111,300.000,669.444,80.556,N
240,-0.120,1.130,0.015,172.222,58.333,297.222,652.778,16.667,N
241,-0.085,0.940,-0.025,180.556,61.111,272.222,672.222,19.444,N
242,-0.145,0.970,0.185,80.556,83.333,175.000,686.111,13.889,N
243,-0.060,1.135,0.060,91.667,80.556,325.000,691.667,5.556,N
244,-0.030,1.160,0.080,113.889,66.667,322.222,725.000,33.333,N
245,-0.050,1.100,0.055,127.778,72.222,327.778,730.556,5.556,N
246,0.050,0.865,0.290,197.222,80.556,305.556,525.000,205.556,V
247,0.845,2.090,-0.305,58.333,116.667,400.000,627.778,102.778,V
248,0.040,1.185,0.165,191.667,69.444,338.889,972.222,344.444,N
249,0.295,-2.010,0.725,36.111,5.556,225.000,516.667,455.556,V
250,0.895,1.970,-0.230,58.333,116.667,400.000,647.222,130.556,V
251,0.040,1.045,0.125,166.667,61.111,313.889,855.556,208.333,N
252,0.290,-2.055,0.715,38.889,5.556,255.556,494.444,361.111,V
253,-0.045,0.960,-0.020,172.222,72.222,386.111,908.333,413.889,N
254,0.060,-2.250,0.800,36.111,0.000,227.778,547.222,361.111,V
255,-0.010,0.920,-0.040,191.667,75.000,363.889,972.222,425.000,N
256,0.115,-2.280,0.810,36.111,8.333,219.444,513.889,458.333,V
257,-0.125,0.745,-0.180,166.667,61.111,330.556,847.222,333.333,N
258,0.080,-2.165,0.740,33.333,5.556,213.889,469.444,377.778,V
259,-0.035,1.105,0.010,180.556,69.444,377.778,850.000,380.556,N
260,0.185,-2.135,0.935,36.111,11.111,222.222,561.111,288.889,V
261,0.030,1.090,0.030,194.444,75.000,377.778,877.778,316.667,N
262,0.155,-2.180,0.910,36.111,0.000,225.000,547.222,330.556,V
263,0.010,0.990,-0.005,172.222,69.444,380.556,913.889,366.667,N
264,0.095,-2.225,0.815,33.333,2.778,238.889,538.889,375.000,V
265,-0.020,1.010,-0.045,186.111,72.222,383.333,897.222,358.333,N
266,0.050,-2.335,0.795,33.333,2.778,227.778,519.444,377.778,V
267,-0.065,0.925,-0.075,172.222,61.111,327.778,930.556,411.111,N
268,0.035,-2.320,0.720,33.333,5.556,230.556,488.889,441.667,V
269,-0.065,0.840,-0.080,172.222,69.444,344.444,888.889,400.000,N
270,0.270,-1.790,0.390,41.667,5.556,266.667,616.667,272.222,V
271,-0.260,0.870,-0.175,130.556,86.111,380.556,961.111,344.444,N
272,0.375,-2.085,0.650,38.889,0.000,241.667,575.000,386.111,V
273,-0.055,1.090,-0.005,172.222,66.667,325.000,863.889,288.889,N
274,0.185,-2.080,0.780,38.889,0.000,202.778,500.000,363.889,V
275,0.000,0.985,-0.010,61.111,69.444,383.333,800.000,300.000,N
276,0.055,-2.160,0.705,30.556,5.556,216.667,486.111,313.889,V
277,-0.005,0.970,-0.095,116.667,66.667,375.000,875.000,388.889,N
278,0.490,-1.870,0.595,41.667,2.778,263.889,675.000,200.000,V
279,-0.065,0.925,-0.110,197.222,69.444,341.667,808.333,133.333,N
280,0.110,-1.855,0.605,41.667,2.778,227.778,583.333,225.000,V
281,-0.110,0.910,-0.160,108.333,66.667,327.778,811.111,227.778,N
282,-0.080,-2.270,0.495,58.333,5.556,233.333,536.111,275.000,V
283,-0.365,0.535,-0.205,191.667,63.889,325.000,888.889,352.778,N
284,-0.070,-2.175,0.655,47.222,2.778,227.778,511.111,377.778,V
285,-0.085,0.880,0.040,152.778,61.111,347.222,805.556,294.444,N
286,0.145,-1.995,0.835,38.889,0.000,211.111,525.000,280.556,V
287,0.045,1.050,0.110,163.889,77.778,352.778,850.000,325.000,N
288,0.225,-2.175,0.915,33.333,0.000,241.667,522.222,327.778,V
289,0.120,1.080,0.065,116.667,72.222,322.222,872.222,350.000,N
290,0.030,1.090,0.120,186.111,72.222,291.667,713.889,158.333,N
291,0.000,0.925,0.145,191.667,69.444,363.889,641.667,72.222,N
292,0.200,0.820,0.070,55.556,69.444,305.556,650.000,8.333,N
293,0.020,1.120,0.010,125.000,63.889,291.667,552.778,97.222,A
294,-0.045,1.025,0.135,127.778,69.444,308.333,744.444,191.667,N
295,-0.115,0.815,-0.070,158.333,63.889,291.667,761.111,16.667,N
296,-0.175,0.935,0.035,125.000,77.778,358.333,761.111,0.000,N
297,-0.190,0.950,-0.010,105.556,72.222,327.778,694.444,66.667,N
298,-0.180,0.875,-0.050,175.000,69.444,319.444,716.667,22.222,N
299,-0.195,0.830,0.010,105.556,61.111,311.111,719.444,2.778,N
300,0.000,0.820,0.005,47.222,77.778,311.111,683.333,36.111,N
301,0.030,1.140,-0.050,55.556,100.000,341.667,605.556,77.778,V
302,-0.205,0.740,-0.130,166.667,58.333,286.111,811.111,205.556,N
303,0.040,-2.095,0.505,41.667,2.778,230.556,519.444,291.667,V
304,-0.170,0.875,-0.200,94.444,69.444,338.889,919.444,400.000,N
305,-0.175,-2.325,0.475,50.000,2.778,269.444,530.556,388.889,V
306,-0.310,0.790,-0.210,188.889,75.000,375.000,1063.889,533.333,N
307,-0.050,-2.245,0.795,36.111,8.333,216.667,513.889,550.000,V
308,-0.020,0.875,-0.240,125.000,80.556,397.222,883.333,369.444,N
309,0.105,-1.915,0.750,38.889,0.000,205.556,572.222,311.111,V
310,0.025,1.090,0.045,47.222,63.889,375.000,772.222,200.000,N
311,0.100,0.920,0.100,175.000,88.889,277.778,663.889,108.333,N
312,-0.020,1.015,0.060,55.556,75.000,261.111,733.333,69.444,N
313,0.300,-2.135,0.885,41.667,0.000,236.111,688.889,44.444,V
314,0.020,0.830,0.150,150.000,83.333,375.000,794.444,105.556,N
315,0.265,-1.915,0.770,41.667,8.333,225.000,550.000,244.444,V
316,0.060,0.955,0.110,177.778,61.111,302.778,802.778,252.778,N
317,0.170,-2.040,0.640,186.111,0.000,211.111,538.889,263.889,V
318,0.010,0.870,-0.025,169.444,63.889,336.111,858.333,319.444,N
319,0.120,-2.050,0.720,47.222,5.556,219.444,505.556,352.778,V
320,-0.205,0.690,-0.245,172.222,66.667,333.333,788.889,283.333,N
321,0.110,-1.990,0.470,38.889,0.000,211.111,513.889,275.000,V
322,0.470,0.770,-0.215,186.111,80.556,386.111,419.444,94.444,V
323,-0.140,0.795,0.015,197.222,75.000,344.444,1158.333,738.889,N
324,0.270,-2.105,0.635,161.111,0.000,172.222,527.778,630.556,V
325,-0.690,0.365,-0.060,155.556,80.556,369.444,822.222,294.444,N
326,0.510,1.575,1.435,55.556,77.778,338.889,672.222,150.000,N
327,0.350,2.355,2.380,233680.556,0.000,233683.333,600.000,72.222,N
328,0.995,1.505,0.465,177.778,63.889,88.889,627.778,27.778,N
329,-0.075,0.835,0.005,77.778,91.667,350.000,677.778,50.000,N
330,-0.385,0.290,-0.445,188.889,69.444,313.889,694.444,16.667,N
331,-0.560,0.400,-0.205,172.222,77.778,330.556,702.778,8.333,N
332,-0.465,0.375,-0.350,183.333,88.889,166.667,619.444,83.333,N
333,-0.465,0.435,-0.405,155.556,63.889,311.111,627.778,8.333,N
334,-0.250,0.925,0.145,113.889,66.667,269.444,677.778,50.000,N
335,0.035,0.830,-0.180,194.444,63.889,294.444,527.778,150.000,A
336,-0.435,0.510,-0.170,169.444,72.222,341.667,691.667,163.889,N
337,-0.270,0.745,-0.010,111.111,77.778,327.778,675.000,16.667,N
338,-0.085,0.905,0.030,175.000,66.667,361.111,613.889,61.111,N
339,-0.055,0.880,0.200,125.000,77.778,283.333,647.222,33.333,N
340,0.040,0.920,0.075,119.444,88.889,311.111,647.222,0.000,N
341,0.035,0.855,0.100,180.556,69.444,261.111,500.000,147.222,V
342,0.030,0.840,-0.195,194.444,77.778,355.556,905.556,405.556,N
343,0.000,-2.095,0.645,44.444,5.556,225.000,505.556,400.000,V
344,-0.230,0.725,-0.120,169.444,66.667,372.222,797.222,291.667,N
345,-0.110,0.975,0.090,111.111,63.889,219.444,613.889,183.333,N
346,0.125,0.865,0.035,194.444,86.111,333.333,600.000,13.889,N
347,-0.085,0.920,0.070,75.000,58.333,300.000,636.111,36.111,N
348,0.065,1.005,0.120,136.111,72.222,355.556,655.556,19.444,N
349,0.020,0.910,0.260,58.333,80.556,325.000,688.889,33.333,N
350,0.110,0.910,0.305,41.667,72.222,216.667,733.333,44.444,N
351,0.120,1.045,0.155,183.333,72.222,327.778,652.778,80.556,N
352,-0.010,0.990,0.275,97.222,83.333,300.000,622.222,30.556,N
353,0.105,0.840,0.230,161.111,75.000,286.111,611.111,11.111,N
354,0.165,0.915,0.075,119.444,69.444,333.333,652.778,41.667,N
355,0.010,0.860,-0.120,183.333,66.667,330.556,669.444,16.667,N
356,-0.185,0.770,-0.020,61.111,72.222,336.111,655.556,13.889,N
357,-0.110,0.780,-0.140,163.889,61.111,297.222,647.222,8.333,N
358,-0.405,0.620,-0.135,186.111,63.889,316.667,652.778,5.556,N
359,-0.185,0.865,0.085,58.333,77.778,316.667,708.333,55.556,N
360,-0.045,1.020,0.245,111.111,86.111,311.111,652.778,55.556,N
361,0.145,1.080,-0.055,186.111,72.222,308.333,672.222,19.444,N
362,-0.150,0.765,0.080,119.444,75.000,311.111,675.000,2.778,N
363,0.250,-1.995,0.715,38.889,0.000,177.778,550.000,125.000,V
364,-0.040,0.730,-0.130,63.889,77.778,302.778,702.778,152.778,N
365,-0.170,0.720,0.075,122.222,83.333,308.333,550.000,152.778,N
366,-0.030,0.840,0.035,136.111,80.556,355.556,708.333,158.333,N
367,0.080,-1.935,0.690,47.222,0.000,269.444,622.222,86.111,V
368,-0.110,0.720,-0.150,191.667,77.778,377.778,852.778,230.556,N
369,0.215,-1.640,0.515,33.333,2.778,213.889,636.111,216.667,V
370,-0.015,0.815,-0.135,183.333,69.444,358.333,680.556,44.444,N
371,-0.085,0.730,0.060,105.556,63.889,300.000,625.000,55.556,N
372,0.000,0.900,0.025,150.000,69.444,275.000,608.333,16.667,N
373,0.020,0.920,0.015,183.333,69.444,308.333,636.111,27.778,N
374,-0.170,0.645,-0.320,188.889,77.778,313.889,641.667,5.556,N
375,-0.285,-2.250,0.210,41.667,5.556,219.444,580.556,61.111,V
376,-0.455,0.635,-0.345,125.000,75.000,358.333,752.778,172.222,N
377,-0.280,0.560,-0.030,177.778,72.222,313.889,658.333,94.444,N
378,-0.100,0.835,0.075,75.000,88.889,341.667,663.889,5.556,N
379,-0.050,0.880,0.260,105.556,80.556,291.667,561.111,102.778,V
380,0.080,0.885,0.130,183.333,63.889,288.889,786.111,225.000,N
381,0.250,-1.755,0.885,38.889,2.778,216.667,505.556,280.556,V
382,0.065,1.035,-0.090,155.556,58.333,330.556,705.556,200.000,N
383,-0.050,0.810,0.000,105.556,58.333,275.000,602.778,102.778,N
384,-0.135,0.845,-0.050,50.000,75.000,319.444,613.889,11.111,N
385,-0.105,0.845,-0.015,197.222,88.889,341.667,619.444,5.556,N
386,-0.145,0.720,-0.030,186.111,77.778,369.444,691.667,72.222,N
387,-0.165,0.690,0.255,72.222,94.444,369.444,697.222,5.556,N
388,-0.140,0.865,0.040,125.000,72.222,291.667,658.333,38.889,N
389,0.095,-2.065,0.690,41.667,5.556,227.778,527.778,130.556,V
390,0.115,1.500,-0.290,130.556,100.000,350.000,683.333,155.556,V
391,-0.050,0.675,-0.080,183.333,69.444,297.222,600.000,83.333,N
392,0.065,0.845,-0.160,194.444,77.778,388.889,661.111,61.111,N
393,-0.185,0.725,-0.105,61.111,63.889,336.111,641.667,19.444,N
394,-0.020,0.555,0.135,133.333,72.222,280.556,666.667,25.000,N
395,0.095,0.655,0.190,119.444,69.444,275.000,461.111,205.556,V
396,0.080,0.840,-0.050,169.444,88.889,350.000,808.333,347.222,N
397,-0.090,0.735,0.095,188.889,63.889,269.444,666.667,141.667,N
398,-0.065,0.895,0.045,155.556,80.556,341.667,608.333,58.333,N
399,0.210,-2.075,0.760,41.667,2.778,219.444,558.333,50.000,V
400,-0.090,0.810,-0.120,191.667,72.222,311.111,733.333,175.000,N
401,-0.120,-2.220,0.710,197.222,5.556,194.444,480.556,252.778,V
402,-0.100,0.875,-0.170,163.889,63.889,375.000,727.778,247.222,N
403,-0.110,0.850,0.045,163.889,83.333,308.333,586.111,141.667,N
404,-0.075,0.710,-0.080,175.000,80.556,336.111,622.222,36.111,N
405,-0.155,0.855,0.105,63.889,83.333,350.000,747.222,125.000,N
406,-0.045,1.065,0.050,119.444,77.778,311.111,669.444,77.778,N
407,-0.165,0.695,-0.055,180.556,63.889,288.889,644.444,25.000,N
408,-0.375,0.575,-0.075,105.556,72.222,313.889,575.000,69.444,N
409,-0.215,0.750,0.015,163.889,61.111,297.222,572.222,2.778,N
410,-0.085,0.795,-0.035,175.000,58.333,272.222,594.444,22.222,N
411,-0.190,0.495,-0.105,180.556,69.444,311.111,572.222,22.222,N
412,-0.155,0.690,-0.110,105.556,66.667,266.667,611.111,38.889,N
413,0.150,-1.880,0.475,36.111,0.000,227.778,602.778,8.333,V
414,-0.105,0.910,-0.015,183.333,83.333,352.778,669.444,66.667,N
415,-0.065,-1.930,0.665,80.556,0.000,194.444,547.222,122.222,V
416,-0.090,0.880,0.005,108.333,66.667,358.333,702.778,155.556,N
417,-0.075,0.925,0.045,125.000,69.444,302.778,636.111,66.667,N
418,-0.150,0.670,0.065,150.000,75.000,294.444,655.556,19.444,N
419,-0.115,0.740,0.130,133.333,63.889,302.778,597.222,58.333,N
420,-0.085,0.930,0.060,111.111,63.889,277.778,597.222,0.000,N
421,0.165,-1.840,0.635,38.889,0.000,213.889,505.556,91.667,V
422,-0.050,0.650,-0.020,163.889,86.111,341.667,616.667,111.111,N
423,-0.050,1.155,0.010,188.889,94.444,302.778,491.667,125.000,V
424,-0.120,0.860,-0.225,197.222,72.222,383.333,738.889,247.222,N
425,-0.280,0.520,-0.060,55.556,69.444,313.889,675.000,63.889,N
426,-0.185,0.600,-0.045,197.222,75.000,288.889,677.778,2.778,N
427,-0.175,0.835,0.000,122.222,66.667,291.667,613.889,63.889,N
428,-0.095,0.805,0.060,41.667,61.111,263.889,602.778,11.111,N
429,-0.090,0.660,0.120,180.556,66.667,272.222,563.889,38.889,N
430,-0.005,0.965,0.235,83.333,86.111,322.222,586.111,22.222,N
431,0.045,0.900,0.050,177.778,72.222,277.778,630.556,44.444,N
432,-0.170,0.700,0.095,44.444,66.667,302.778,630.556,0.000,N
433,0.295,-1.575,0.590,44.444,5.556,227.778,588.889,41.667,V
434,-0.015,0.855,-0.100,172.222,66.667,347.222,683.333,94.444,N
435,-0.070,0.850,0.120,61.111,63.889,294.444,652.778,30.556,N
436,-0.105,0.750,0.025,194.444,72.222,294.444,641.667,11.111,N
437,-0.165,0.865,-0.040,169.444,69.444,311.111,588.889,52.778,N
438,-0.170,0.730,-0.040,183.333,86.111,327.778,625.000,36.111,N
439,-0.010,-1.980,0.460,44.444,2.778,244.444,547.222,77.778,V
440,-0.080,0.790,0.010,163.889,72.222,200.000,675.000,127.778,N
441,-0.040,0.940,0.320,58.333,63.889,319.444,591.667,83.333,N
442,0.155,0.715,0.155,116.667,63.889,308.333,575.000,16.667,N
443,0.010,-2.195,0.880,36.111,0.000,211.111,508.333,66.667,V
444,-0.090,0.725,-0.065,58.333,77.778,275.000,763.889,255.556,N
445,0.125,-2.080,0.785,55.556,0.000,213.889,619.444,144.444,V
446,0.020,0.900,0.195,125.000,72.222,97.222,711.111,91.667,N
447,0.215,0.715,0.030,180.556,77.778,272.222,613.889,97.222,N
448,-0.155,0.805,0.080,180.556,61.111,272.222,561.111,52.778,N
449,-0.070,0.945,0.005,197.222,66.667,288.889,552.778,8.333,N
450,-0.120,0.880,-0.025,197.222,55.556,269.444,569.444,16.667,N
451,-0.130,0.760,0.035,58.333,66.667,283.333,563.889,5.556,N
452,-0.100,0.720,0.205,194.444,66.667,325.000,630.556,66.667,N
453,0.685,-1.590,1.500,55.556,2.778,247.222,650.000,19.444,V
454,0.300,0.865,0.440,197.222,69.444,305.556,655.556,5.556,N
455,0.370,-1.975,1.340,36.111,2.778,191.667,550.000,105.556,V
456,0.335,1.170,0.045,194.444,66.667,311.111,647.222,97.222,N
457,0.030,-2.150,0.790,36.111,0.000,205.556,547.222,100.000,V
458,-0.245,0.680,-0.065,197.222,69.444,352.778,719.444,172.222,N
459,0.740,-1.840,0.935,33.333,2.778,205.556,538.889,180.556,V
460,0.175,1.015,0.020,191.667,69.444,272.222,650.000,111.111,N
461,-0.450,0.455,-0.050,141.667,63.889,336.111,550.000,100.000,N
462,-0.270,0.410,-0.115,88.889,102.778,197.222,591.667,41.667,N
463,-0.035,-2.105,1.100,27.778,0.000,208.333,588.889,2.778,V
464,-0.075,0.780,-0.200,172.222,69.444,275.000,644.444,55.556,N
465,-0.270,0.700,0.120,100.000,72.222,288.889,658.333,13.889,N
466,-0.225,0.690,-0.135,158.333,66.667,327.778,627.778,30.556,N
467,0.260,-2.130,0.595,30.556,2.778,180.556,555.556,72.222,V
468,-0.165,0.965,-0.070,175.000,83.333,402.778,619.444,63.889,N
469,0.045,-2.225,0.865,33.333,2.778,183.333,483.333,136.111,V
470,-0.195,0.750,-0.200,161.111,66.667,322.222,627.778,144.444,N
471,0.190,-2.055,0.865,36.111,0.000,219.444,552.778,75.000,V
472,-0.100,0.975,-0.120,191.667,69.444,369.444,722.222,169.444,N
473,0.125,-2.270,0.805,38.889,2.778,225.000,533.333,188.889,V
474,-0.215,0.745,-0.180,172.222,66.667,311.111,738.889,205.556,N
475,-0.205,0.940,0.055,55.556,63.889,277.778,627.778,111.111,N
476,-0.130,1.065,0.065,113.889,66.667,311.111,588.889,38.889,N
477,0.260,-1.970,0.650,33.333,0.000,183.333,538.889,50.000,V
478,-0.145,0.860,-0.125,197.222,66.667,322.222,647.222,108.333,N
479,0.015,-1.965,0.745,33.333,0.000,205.556,497.222,150.000,V
480,-0.080,1.000,-0.065,180.556,61.111,305.556,716.667,219.444,N
481,-0.185,0.790,0.035,191.667,66.667,291.667,597.222,119.444,N
482,-0.180,0.935,0.040,122.222,80.556,300.000,636.111,38.889,N
483,-0.050,1.045,0.065,86.111,77.778,313.889,591.667,44.444,N
484,-0.100,1.145,0.045,83.333,75.000,325.000,686.111,94.444,N
485,0.385,-1.860,0.715,33.333,2.778,205.556,641.667,44.444,V
486,0.000,1.115,0.025,191.667,72.222,333.333,658.333,16.667,N
487,0.300,-2.045,0.980,33.333,5.556,177.778,525.000,133.333,V
488,0.025,1.045,0.020,177.778,63.889,297.222,641.667,116.667,N
489,-0.045,0.935,0.105,111.111,63.889,291.667,569.444,72.222,N
490,-0.150,0.875,0.020,100.000,55.556,261.111,608.333,38.889,N
491,0.345,-1.960,0.735,47.222,2.778,227.778,530.556,77.778,V
492,-0.025,0.915,0.030,147.222,77.778,375.000,719.444,188.889,N
493,0.025,-2.250,0.880,75.000,2.778,200.000,588.889,130.556,V
494,0.000,1.010,-0.045,97.222,75.000,358.333,786.111,197.222,N
495,-0.045,1.030,0.005,180.556,61.111,227.778,627.778,158.333,N
496,0.005,0.660,-0.080,116.667,72.222,236.111,600.000,27.778,N
497,-0.160,0.800,0.170,102.778,69.444,280.556,588.889,11.111,N
498,0.010,0.970,0.070,141.667,63.889,347.222,683.333,94.444,N
499,0.355,-1.920,0.630,36.111,0.000,188.889,516.667,166.667,V
500,-0.155,0.770,0.025,108.333,72.222,311.111,727.778,211.111,N
501,-0.125,1.075,0.095,119.444,66.667,288.889,616.667,111.111,N
502,-0.040,1.050,0.025,191.667,75.000,311.111,627.778,11.111,N
503,-0.190,0.715,-0.090,177.778,66.667,305.556,663.889,36.111,N
504,-0.225,0.880,-0.020,58.333,80.556,308.333,680.556,16.667,N
505,0.145,-1.875,0.685,33.333,2.778,169.444,605.556,75.000,V
506,-0.235,0.560,-0.185,44.444,58.333,313.889,686.111,80.556,N
507,0.395,-1.775,0.290,36.111,13.889,177.778,525.000,161.111,V
508,-0.155,1.050,0.465,130.556,75.000,333.333,683.333,158.333,N
509,0.005,0.780,-0.010,47.222,63.889,358.333,608.333,75.000,N
510,0.065,0.945,0.170,180.556,75.000,319.444,675.000,66.667,N
511,0.185,1.050,0.225,86.111,86.111,319.444,663.889,11.111,N
512,0.270,1.300,0.265,52.778,97.222,227.778,680.556,16.667,N
513,0.040,0.840,0.150,77.778,108.333,330.556,675.000,5.556,N
514,0.040,0.985,0.345,66.667,83.333,313.889,638.889,36.111,N
515,0.320,1.330,0.170,52.778,83.333,286.111,608.333,30.556,V
516,0.555,1.040,0.135,175.000,86.111,297.222,605.556,2.778,N
517,0.280,-1.835,0.990,47.222,2.778,205.556,552.778,52.778,V
518,0.030,1.220,-0.050,166.667,86.111,405.556,736.111,183.333,N
519,0.455,-1.730,1.015,33.333,8.333,194.444,530.556,205.556,V
520,0.145,0.945,-0.010,194.444,69.444,244.444,763.889,233.333,N
521,0.280,-1.580,0.955,38.889,0.000,208.333,541.667,222.222,V
522,-0.170,1.050,0.040,94.444,75.000,366.667,794.444,252.778,N
523,0.010,1.075,0.160,127.778,80.556,313.889,697.222,97.222,N
524,-0.045,1.305,0.280,116.667,97.222,108.333,672.222,25.000,N
525,0.005,1.135,0.060,166.667,75.000,300.000,647.222,25.000,N
526,0.030,1.075,0.205,75.000,88.889,261.111,563.889,83.333,N
527,0.215,0.810,0.285,158.333,61.111,300.000,605.556,41.667,N
528,0.035,1.000,0.105,127.778,69.444,225.000,650.000,44.444,N
529,0.050,1.150,0.100,155.556,88.889,322.222,602.778,47.222,N
530,-0.105,0.990,0.160,136.111,69.444,311.111,700.000,97.222,N
531,0.030,1.150,0.050,197.222,100.000,355.556,680.556,19.444,N
532,-0.020,1.110,0.080,169.444,66.667,355.556,716.667,36.111,N
533,0.280,-1.895,0.935,38.889,0.000,183.333,555.556,161.111,V
534,-0.050,0.815,-0.130,177.778,61.111,322.222,672.222,116.667,N
535,0.095,-1.795,0.675,47.222,11.111,225.000,505.556,166.667,V
536,-0.050,1.090,-0.105,127.778,72.222,344.444,800.000,294.444,N
537,-0.170,0.930,-0.170,183.333,69.444,300.000,652.778,147.222,N
538,-0.320,0.735,-0.105,50.000,72.222,302.778,683.333,30.556,N
539,-0.090,1.105,0.115,69.444,75.000,327.778,647.222,36.111,N
540,-0.005,1.145,0.160,133.333,72.222,272.222,655.556,8.333,N
541,0.090,1.005,0.195,194.444,63.889,258.333,625.000,30.556,N
542,0.095,0.910,0.490,158.333,66.667,316.667,463.889,161.111,V
543,0.025,1.125,0.065,186.111,66.667,133.333,897.222,433.333,N
544,0.120,-1.990,0.765,47.222,2.778,202.778,552.778,344.444,V
545,-0.115,0.765,-0.115,136.111,69.444,322.222,719.444,166.667,N
546,-0.095,1.005,0.060,105.556,61.111,275.000,650.000,69.444,N
547,-0.130,0.975,0.025,152.778,83.333,316.667,625.000,25.000,N
548,-0.145,0.850,0.005,147.222,77.778,361.111,727.778,102.778,N
549,-0.060,1.025,0.160,77.778,75.000,333.333,791.667,63.889,N
550,0.150,1.065,0.220,100.000,94.444,372.222,688.889,102.778,N
551,0.020,1.035,0.065,180.556,58.333,291.667,641.667,47.222,N
552,-0.105,0.905,0.025,133.333,61.111,261.111,613.889,27.778,N
553,-0.090,1.015,0.200,188.889,66.667,386.111,655.556,41.667,N
554,-0.010,1.165,0.100,86.111,63.889,288.889,597.222,58.333,N
555,-0.040,0.980,0.020,186.111,63.889,288.889,661.111,63.889,N
556,-0.100,0.890,-0.140,197.222,77.778,325.000,688.889,27.778,N
557,-0.270,0.640,-0.280,188.889,75.000,322.222,669.444,19.444,N
558,-0.255,0.805,0.045,133.333,66.667,277.778,702.778,33.333,N
559,0.005,1.000,0.090,52.778,69.444,313.889,638.889,63.889,N
560,0.010,1.205,0.235,136.111,77.778,305.556,652.778,13.889,N
561,0.030,1.090,0.110,133.333,69.444,316.667,683.333,30.556,N
562,0.020,1.015,0.140,177.778,63.889,291.667,622.222,61.111,N
563,0.070,1.010,0.040,163.889,83.333,272.222,622.222,0.000,N
564,-0.090,0.865,0.035,197.222,66.667,277.778,611.111,11.111,N
565,-0.025,1.045,0.095,188.889,69.444,338.889,644.444,33.333,N
566,0.035,0.860,0.280,163.889,94.444,272.222,675.000,30.556,N
567,-0.130,0.695,0.045,141.667,91.667,372.222,708.333,33.333,N
568,0.130,0.945,0.030,194.444,88.889,327.778,719.444,11.111,N
569,-0.040,1.090,0.260,50.000,77.778,291.667,711.111,8.333,N
570,0.015,0.855,-0.060,186.111,63.889,263.889,666.667,44.444,N
571,-0.185,0.950,-0.025,163.889,63.889,269.444,630.556,36.111,N
572,-0.080,1.125,0.005,191.667,66.667,291.667,630.556,0.000,N
573,-0.110,1.010,0.095,163.889,72.222,300.000,700.000,69.444,N
574,-0.035,0.980,0.055,94.444,86.111,275.000,605.556,94.444,N
575,-0.005,0.980,-0.010,113.889,72.222,294.444,780.556,175.000,N
576,-0.010,0.755,-0.020,186.111,66.667,291.667,441.667,338.889,V
577,-0.015,1.025,-0.020,183.333,69.444,361.111,911.111,469.444,N
578,0.355,-1.860,0.740,30.556,5.556,197.222,561.111,350.000,V
579,0.115,0.910,-0.125,183.333,69.444,230.556,755.556,194.444,N
580,-0.020,-2.140,0.725,36.111,2.778,222.222,505.556,250.000,V
581,-0.095,0.950,-0.090,172.222,61.111,327.778,852.778,347.222,N
582,0.165,-1.915,0.795,41.667,2.778,205.556,575.000,277.778,V
583,-0.030,0.760,-0.105,180.556,58.333,313.889,633.333,58.333,N
584,0.235,-1.755,0.750,44.444,0.000,227.778,536.111,97.222,V
585,0.085,1.125,-0.050,141.667,77.778,391.667,1316.667,780.556,N
586,-0.040,0.410,0.220,186.111,72.222,305.556,536.111,780.556,V
587,0.220,0.780,-0.085,183.333,72.222,336.111,444.444,91.667,V
588,-0.055,1.080,-0.085,150.000,61.111,369.444,1166.667,722.222,N
589,-0.085,0.435,0.215,175.000,63.889,275.000,511.111,655.556,V
590,0.135,1.175,0.120,183.333,80.556,377.778,927.778,416.667,N
591,0.115,1.155,0.130,161.111,69.444,377.778,769.444,158.333,N
592,-0.010,0.945,0.165,100.000,80.556,300.000,780.556,11.111,N
593,0.075,1.050,0.230,194.444,77.778,316.667,763.889,16.667,N
594,0.005,1.180,0.155,111.111,66.667,319.444,697.222,66.667,N
595,0.020,1.090,-0.015,88.889,80.556,288.889,716.667,19.444,N
596,-0.085,0.840,-0.125,197.222,72.222,250.000,480.556,236.111,V
597,0.030,1.275,-0.005,186.111,72.222,355.556,877.778,397.222,N
598,0.145,-1.970,0.735,30.556,2.778,183.333,505.556,372.222,V
599,-0.115,0.840,-0.140,175.000,66.667,347.222,766.667,261.111,N
600,0.325,-1.785,0.710,50.000,0.000,233.333,519.444,247.222,V
601,-0.120,1.065,-0.020,58.333,72.222,383.333,858.333,338.889,N
602,0.065,-1.950,0.760,38.889,5.556,222.222,575.000,283.333,V
603,-0.040,1.065,0.000,150.000,77.778,380.556,833.333,258.333,N
604,0.030,1.090,-0.040,175.000,66.667,302.778,713.889,119.444,N
605,-0.205,0.920,0.205,180.556,77.778,352.778,652.778,61.111,N
606,0.215,1.060,0.315,141.667,66.667,352.778,605.556,47.222,N
607,0.110,1.405,0.320,97.222,88.889,288.889,636.111,30.556,N
608,0.245,1.415,0.395,136.111,72.222,305.556,694.444,58.333,N
609,0.225,1.280,0.220,180.556,63.889,333.333,666.667,27.778,N
610,0.240,0.970,0.195,136.111,102.778,263.889,702.778,36.111,N
611,0.040,1.025,0.175,75.000,77.778,263.889,630.556,72.222,N
612,0.055,1.170,0.080,180.556,86.111,338.889,680.556,50.000,N
613,-0.005,1.150,0.050,166.667,58.333,261.111,666.667,13.889,N
614,-0.150,0.840,-0.050,188.889,69.444,288.889,658.333,8.333,N
615,-0.055,1.175,0.050,86.111,83.333,313.889,686.111,27.778,N
616,-0.065,0.965,0.070,50.000,63.889,286.111,688.889,2.778,N
617,-0.045,0.910,0.020,191.667,69.444,316.667,694.444,5.556,N
618,-0.125,0.865,0.030,116.667,66.667,319.444,697.222,2.778,N
619,-0.060,1.050,0.055,130.556,83.333,344.444,752.778,55.556,N
620,-0.075,0.975,0.035,133.333,72.222,333.333,786.111,33.333,N
621,-0.120,0.840,-0.005,191.667,77.778,308.333,730.556,55.556,N
622,-0.075,1.000,0.045,52.778,55.556,227.778,719.444,11.111,N
623,0.025,1.025,0.180,116.667,69.444,250.000,636.111,83.333,N
624,0.110,1.270,0.220,61.111,72.222,327.778,525.000,111.111,A
625,0.220,1.040,0.225,113.889,66.667,319.444,761.111,236.111,N
626,0.470,-1.945,0.815,44.444,0.000,227.778,591.667,169.444,V
627,0.020,1.195,-0.090,197.222,75.000,308.333,1205.556,613.889,N
628,0.155,-1.890,0.525,41.667,0.000,219.444,552.778,652.778,V
629,-0.150,0.990,-0.140,158.333,58.333,377.778,944.444,391.667,N
630,0.580,-1.730,0.630,33.333,0.000,219.444,586.111,358.333,V
631,0.090,0.935,-0.025,116.667,80.556,372.222,841.667,255.556,N
632,0.270,-1.725,0.755,36.111,5.556,200.000,533.333,308.333,V
633,0.015,1.265,0.035,100.000,63.889,341.667,880.556,347.222,N
634,0.220,-2.025,0.865,38.889,2.778,227.778,486.111,394.444,V
635,-0.075,0.920,-0.115,191.667,80.556,391.667,886.111,400.000,N
636,0.265,-1.850,0.685,38.889,0.000,219.444,563.889,322.222,V
637,-0.010,1.105,0.110,180.556,66.667,330.556,886.111,322.222,N
638,0.110,-2.045,0.795,50.000,5.556,219.444,513.889,372.222,V
639,0.005,0.975,-0.010,119.444,58.333,341.667,830.556,316.667,N
640,0.560,-1.940,0.855,36.111,2.778,205.556,527.778,302.778,V
641,0.160,1.220,0.260,38.889,55.556,186.111,736.111,208.333,N
642,0.170,-2.080,0.805,119.444,5.556,238.889,505.556,230.556,V
643,0.065,1.170,-0.015,191.667,77.778,366.667,927.778,422.222,N
644,0.405,-1.930,0.845,38.889,0.000,244.444,558.333,369.444,V
645,-0.005,1.230,0.285,186.111,58.333,144.444,883.333,325.000,N
646,0.120,-2.015,0.770,36.111,5.556,219.444,497.222,386.111,V
647,0.035,1.135,0.015,136.111,66.667,241.667,775.000,277.778,N
648,0.340,-1.875,0.900,36.111,2.778,166.667,513.889,261.111,V
649,0.145,1.210,-0.005,186.111,75.000,397.222,827.778,313.889,N
650,0.020,1.675,0.020,58.333,111.111,372.222,469.444,358.333,V
651,-0.045,1.140,-0.015,152.778,63.889,372.222,913.889,444.444,N
652,-0.050,1.210,0.025,194.444,69.444,311.111,730.556,183.333,N
653,-0.075,0.855,-0.020,183.333,69.444,291.667,569.444,161.111,A
654,0.190,1.575,-0.215,58.333,108.333,388.889,555.556,13.889,V
655,-0.005,1.250,0.145,188.889,80.556,380.556,1283.333,727.778,N
656,0.225,-2.160,0.890,36.111,8.333,219.444,497.222,786.111,V
657,-0.005,1.040,0.150,77.778,94.444,375.000,950.000,452.778,N
658,0.090,1.140,0.095,100.000,66.667,313.889,713.889,236.111,N
659,0.295,1.135,0.060,169.444,97.222,330.556,716.667,2.778,N
660,-0.025,1.055,0.060,105.556,72.222,330.556,758.333,41.667,N
661,0.025,1.165,0.125,105.556,83.333,341.667,777.778,19.444,N
662,0.010,1.090,0.065,77.778,69.444,300.000,736.111,41.667,N
663,-0.090,0.930,-0.030,188.889,66.667,280.556,700.000,36.111,N
664,-0.095,1.090,0.190,122.222,72.222,277.778,647.222,52.778,N
665,-0.015,0.975,0.240,66.667,105.556,277.778,561.111,86.111,V
666,0.060,1.030,-0.050,188.889,72.222,313.889,830.556,269.444,N
667,0.100,-2.015,0.555,41.667,2.778,225.000,527.778,302.778,V
668,-0.105,0.995,-0.040,175.000,66.667,358.333,888.889,361.111,N
669,0.030,-2.130,0.750,38.889,2.778,205.556,513.889,375.000,V
670,-0.110,0.935,-0.095,52.778,75.000,350.000,913.889,400.000,N
671,0.295,-1.955,0.785,38.889,2.778,211.111,527.778,386.111,V
672,0.055,1.035,-0.070,175.000,86.111,277.778,877.778,350.000,N
673,0.010,-2.175,0.670,50.000,2.778,227.778,513.889,363.889,V
674,0.060,1.250,-0.005,197.222,69.444,366.667,852.778,338.889,N
675,-0.030,1.025,0.060,77.778,61.111,261.111,680.556,172.222,N
676,-0.155,0.915,-0.070,150.000,63.889,355.556,669.444,11.111,N
677,-0.200,1.005,-0.090,72.222,91.667,386.111,758.333,88.889,N
678,-0.195,0.860,-0.155,191.667,77.778,319.444,786.111,27.778,N
679,-0.220,0.930,-0.180,119.444,69.444,327.778,750.000,36.111,N
680,-0.110,1.905,-0.350,58.333,116.667,405.556,527.778,222.222,V
681,-0.160,1.035,-0.035,175.000,61.111,327.778,791.667,263.889,N
682,0.325,-2.010,0.650,30.556,2.778,200.000,536.111,255.556,V
683,-0.025,1.235,0.140,194.444,75.000,313.889,766.667,230.556,N
684,0.260,-2.225,0.920,33.333,2.778,216.667,522.222,244.444,V
685,0.015,1.000,0.030,69.444,72.222,350.000,891.667,369.444,N
686,0.030,-2.325,0.685,58.333,8.333,255.556,525.000,366.667,V
687,0.155,0.680,-0.150,194.444,75.000,250.000,525.000,0.000,V
688,-0.120,0.620,-0.175,127.778,66.667,341.667,952.778,427.778,N
689,-0.160,1.430,-0.095,102.778,102.778,344.444,502.778,450.000,V
690,-0.045,1.015,-0.055,113.889,61.111,341.667,1013.889,511.111,N
691,-0.130,0.870,-0.075,130.556,86.111,308.333,700.000,313.889,N
692,-0.215,0.730,-0.180,80.556,61.111,305.556,633.333,66.667,N
693,-0.305,0.710,-0.170,175.000,66.667,327.778,680.556,47.222,N
694,-0.210,0.980,-0.045,113.889,72.222,308.333,738.889,58.333,N
695,-0.160,0.985,-0.005,141.667,77.778,344.444,738.889,0.000,N
696,-0.195,0.865,-0.085,138.889,75.000,355.556,783.333,44.444,N
697,-0.190,0.830,-0.005,197.222,69.444,286.111,666.667,116.667,N
698,-0.070,1.070,0.000,155.556,75.000,327.778,800.000,133.333,N
699,0.025,-2.270,0.765,50.000,8.333,216.667,502.778,297.222,V
700,-0.155,0.875,-0.160,180.556,69.444,380.556,927.778,425.000,N
701,0.070,-2.060,0.835,38.889,5.556,263.889,566.667,361.111,V
702,0.015,1.140,0.140,150.000,77.778,225.000,1036.111,469.444,N
703,0.105,-2.260,0.825,152.778,0.000,175.000,588.889,447.222,V
704,0.255,1.110,0.160,88.889,63.889,116.667,1063.889,475.000,N
705,0.030,-2.220,0.645,52.778,2.778,175.000,550.000,513.889,V
706,0.015,1.175,0.040,127.778,77.778,341.667,1030.556,480.556,N
707,0.305,-2.020,0.915,36.111,13.889,225.000,527.778,502.778,V
708,-0.060,1.015,0.020,180.556,69.444,386.111,1005.556,477.778,N
709,0.545,-1.815,0.770,33.333,5.556,200.000,575.000,430.556,V
710,-0.015,1.190,-0.100,191.667,75.000,386.111,947.222,372.222,N
711,-0.005,-2.075,0.705,33.333,0.000,272.222,605.556,341.667,V
712,0.015,1.290,0.035,105.556,66.667,380.556,1066.667,461.111,N
713,0.120,1.170,0.185,191.667,72.222,319.444,758.333,308.333,N
714,0.175,1.025,0.125,100.000,88.889,311.111,627.778,130.556,N
715,0.015,1.330,0.030,66.667,66.667,341.667,650.000,22.222,N
716,0.070,1.180,0.085,66.667,83.333,297.222,663.889,13.889,N
717,0.170,1.015,-0.005,94.444,75.000,300.000,669.444,5.556,N
718,0.120,1.025,0.185,55.556,75.000,338.889,725.000,55.556,N
719,-0.025,1.165,0.460,194.444,66.667,297.222,752.778,27.778,N
720,0.020,0.495,0.875,105.556,113.889,322.222,594.444,158.333,V
721,0.065,1.230,0.155,175.000,91.667,380.556,738.889,144.444,N
722,0.155,1.365,0.200,186.111,75.000,322.222,658.333,80.556,N
723,0.205,0.735,1.140,172.222,105.556,322.222,569.444,88.889,V
724,0.045,1.005,-0.010,144.444,61.111,211.111,808.333,238.889,N
725,0.010,1.170,0.070,183.333,63.889,277.778,661.111,147.222,N
726,-0.035,1.165,0.120,122.222,75.000,341.667,677.778,16.667,N
727,0.210,-2.205,0.625,58.333,0.000,225.000,605.556,72.222,V
728,-0.260,0.900,-0.045,52.778,66.667,386.111,830.556,225.000,N
729,0.135,-2.135,0.695,36.111,0.000,244.444,533.333,297.222,V
730,0.040,1.040,-0.025,166.667,72.222,377.778,883.333,350.000,N
731,0.090,-1.910,0.605,41.667,13.889,205.556,561.111,322.222,V
732,0.130,1.060,0.035,188.889,69.444,319.444,805.556,244.444,N
733,0.215,-2.300,0.915,36.111,5.556,200.000,472.222,333.333,V
734,-0.045,0.915,-0.105,188.889,69.444,302.778,811.111,338.889,N
735,0.170,-1.920,0.725,41.667,0.000,255.556,572.222,238.889,V
736,0.035,1.155,-0.005,122.222,88.889,405.556,958.333,386.111,N
737,0.115,-2.330,0.880,41.667,0.000,222.222,577.778,380.556,V
738,-0.155,0.900,-0.165,180.556,72.222,363.889,850.000,272.222,N
739,-0.110,1.050,0.060,113.889,72.222,311.111,688.889,161.111,N
740,0.045,0.370,0.960,197.222,113.889,297.222,483.333,205.556,V
741,-0.145,0.985,-0.085,111.111,63.889,383.333,830.556,347.222,N
742,0.305,-2.085,0.765,44.444,0.000,205.556,544.444,286.111,V
743,-0.015,0.910,-0.075,163.889,88.889,377.778,836.111,291.667,N
744,0.125,-1.930,0.645,38.889,0.000,208.333,566.667,269.444,V
745,-0.185,0.980,-0.195,186.111,72.222,369.444,875.000,308.333,N
746,0.180,-1.940,0.430,36.111,2.778,219.444,575.000,300.000,V
747,-0.160,0.940,-0.190,66.667,75.000,377.778,888.889,313.889,N
748,-0.020,-2.050,0.745,36.111,5.556,202.778,516.667,372.222,V
749,-0.030,0.980,0.010,147.222,72.222,330.556,733.333,216.667,N
750,0.015,0.965,0.080,166.667,61.111,286.111,663.889,69.444,N
751,-0.005,1.085,0.120,186.111,75.000,325.000,655.556,8.333,N
752,0.015,1.065,0.110,183.333,69.444,308.333,658.333,2.778,N
753,0.005,0.985,0.125,191.667,69.444,316.667,744.444,86.111,N
754,-0.010,1.140,0.155,197.222,77.778,330.556,805.556,61.111,N
755,0.135,1.175,0.265,191.667,72.222,291.667,591.667,213.889,A
756,0.135,1.290,0.260,116.667,63.889,302.778,816.667,225.000,N
757,0.310,1.990,-0.120,58.333,116.667,405.556,447.222,369.444,V
758,0.005,1.270,0.040,197.222,77.778,386.111,1080.556,633.333,N
759,0.080,-2.490,0.770,36.111,2.778,205.556,530.556,550.000,V
760,-0.215,0.760,-0.200,177.778,66.667,327.778,966.667,436.111,N
761,-0.060,-2.270,0.660,61.111,5.556,241.667,519.444,447.222,V
762,-0.090,1.095,-0.090,183.333,75.000,391.667,905.556,386.111,N
763,-0.125,0.905,-0.050,197.222,72.222,350.000,975.000,69.444,N
764,-0.130,1.090,-0.010,183.333,72.222,325.000,808.333,166.667,N
765,-0.085,1.040,0.050,102.778,61.111,275.000,805.556,2.778,N
766,-0.105,0.810,-0.045,100.000,77.778,319.444,747.222,58.333,N
767,-0.130,1.080,-0.005,102.778,83.333,322.222,713.889,33.333,N
768,-0.105,1.075,0.030,86.111,80.556,355.556,786.111,72.222,N
769,-0.110,0.965,-0.030,183.333,77.778,327.778,891.667,105.556,N
770,-0.150,1.000,-0.065,116.667,75.000,338.889,819.444,72.222,N
771,-0.105,1.050,0.035,163.889,72.222,361.111,747.222,72.222,N
772,-0.110,0.965,-0.045,172.222,63.889,300.000,741.667,5.556,N
773,-0.175,0.840,0.010,172.222,55.556,269.444,736.111,5.556,N
774,-0.015,1.230,0.060,186.111,72.222,325.000,727.778,8.333,N
775,-0.125,0.920,0.000,186.111,77.778,369.444,747.222,19.444,N
776,-0.045,1.185,0.105,191.667,88.889,358.333,788.889,41.667,N
777,-0.035,1.315,0.190,52.778,69.444,347.222,758.333,30.556,N
778,-0.020,1.060,0.025,175.000,69.444,313.889,711.111,47.222,N
779,-0.175,0.840,-0.060,197.222,83.333,327.778,730.556,19.444,N
780,-0.150,1.080,0.005,197.222,72.222,336.111,766.667,36.111,N
781,-0.080,1.115,0.055,113.889,69.444,322.222,691.667,75.000,N
782,-0.135,0.830,-0.065,158.333,58.333,277.778,691.667,0.000,N
783,-0.170,0.995,-0.015,172.222,61.111,291.667,675.000,16.667,N
784,-0.105,1.180,0.065,133.333,77.778,336.111,713.889,38.889,N
785,-0.065,1.035,0.005,197.222,77.778,358.333,725.000,11.111,N
786,-0.120,0.975,0.095,197.222,77.778,355.556,802.778,77.778,N
787,0.005,1.165,0.105,63.889,69.444,319.444,791.667,11.111,N
788,0.050,1.155,0.135,183.333,66.667,319.444,688.889,102.778,N
789,0.025,1.070,0.185,161.111,61.111,266.667,677.778,11.111,N
790,0.090,1.260,0.375,50.000,66.667,230.556,666.667,11.111,N
791,0.080,1.075,-0.065,172.222,86.111,394.444,752.778,86.111,N
792,-0.060,1.050,0.065,125.000,72.222,330.556,750.000,2.778,N
793,-0.010,1.250,0.295,58.333,69.444,369.444,761.111,11.111,N
794,0.195,1.135,0.230,183.333,77.778,347.222,677.778,83.333,N
795,0.065,1.180,0.065,194.444,83.333,341.667,694.444,16.667,N
796,-0.055,1.060,-0.020,175.000,58.333,308.333,694.444,0.000,N
797,-0.125,0.915,-0.030,188.889,72.222,313.889,677.778,16.667,N
798,-0.095,0.775,-0.080,197.222,66.667,322.222,691.667,13.889,N
799,-0.035,0.985,0.055,52.778,75.000,300.000,711.111,19.444,N
800,0.010,0.990,0.115,197.222,66.667,311.111,683.333,27.778,N
801,-0.005,1.040,0.050,144.444,69.444,325.000,691.667,8.333,N
802,0.065,1.075,0.180,105.556,77.778,302.778,772.222,80.556,N
803,0.040,1.020,0.085,191.667,86.111,333.333,838.889,66.667,N
804,-0.065,0.975,0.000,186.111,72.222,319.444,727.778,111.111,N
805,-0.145,0.695,-0.070,100.000,58.333,294.444,700.000,27.778,N
806,-0.135,0.960,-0.020,158.333,61.111,316.667,672.222,27.778,N
807,-0.030,1.105,0.030,75.000,86.111,258.333,666.667,5.556,N
808,-0.045,1.020,0.100,197.222,72.222,316.667,647.222,19.444,N
809,-0.055,0.980,0.040,180.556,72.222,319.444,727.778,80.556,N
810,-0.150,0.855,-0.015,194.444,72.222,333.333,811.111,83.333,N
811,-0.130,1.025,0.245,197.222,75.000,372.222,741.667,69.444,N
812,-0.055,1.105,0.100,169.444,66.667,344.444,730.556,11.111,N
813,0.005,0.820,0.065,122.222,66.667,311.111,711.111,19.444,N
814,0.520,0.490,-0.020,52.778,75.000,300.000,588.889,122.222,V
815,0.115,1.160,0.235,163.889,75.000,352.778,861.111,272.222,N
816,0.065,-2.170,0.815,50.000,5.556,188.889,536.111,325.000,V
817,-0.055,0.995,0.075,136.111,77.778,366.667,858.333,322.222,N
818,0.535,-1.790,0.695,30.556,2.778,258.333,558.333,300.000,V
819,0.095,0.930,0.115,44.444,63.889,344.444,883.333,325.000,N
820,0.085,-2.260,0.825,44.444,2.778,244.444,580.556,302.778,V
821,0.065,1.055,-0.070,63.889,83.333,397.222,908.333,327.778,N
822,0.510,-1.780,0.620,38.889,2.778,205.556,622.222,286.111,V
823,-0.065,0.885,-0.110,177.778,66.667,344.444,750.000,127.778,N
824,0.370,-1.875,0.625,30.556,2.778,211.111,486.111,263.889,V
825,-0.030,1.110,-0.030,191.667,80.556,391.667,811.111,325.000,N
826,0.175,-2.245,0.830,41.667,0.000,241.667,586.111,225.000,V
827,-0.080,0.965,-0.135,194.444,77.778,383.333,905.556,319.444,N
828,0.210,-2.085,0.815,33.333,5.556,211.111,586.111,319.444,V
829,-0.045,1.125,0.010,183.333,80.556,336.111,800.000,213.889,N
830,0.075,-1.965,0.705,47.222,5.556,225.000,511.111,288.889,V
831,-0.105,0.980,-0.020,155.556,69.444,336.111,777.778,266.667,N
832,0.115,-2.150,0.780,36.111,2.778,216.667,516.667,261.111,V
833,-0.035,1.085,-0.075,188.889,72.222,369.444,816.667,300.000,N
834,0.140,-2.025,0.625,36.111,2.778,219.444,544.444,272.222,V
835,0.410,2.000,-0.275,58.333,116.667,405.556,650.000,105.556,V
836,0.015,1.155,0.295,108.333,69.444,302.778,852.778,202.778,N
837,0.390,-2.170,0.680,41.667,2.778,241.667,608.333,244.444,V
838,-0.225,0.710,-0.105,122.222,80.556,363.889,880.556,272.222,N
839,0.015,-2.135,0.710,36.111,0.000,211.111,527.778,352.778,V
840,-0.065,1.000,-0.015,80.556,63.889,330.556,811.111,283.333,N
841,0.195,-2.070,0.685,41.667,2.778,219.444,491.667,319.444,V
842,0.055,0.750,0.040,152.778,66.667,344.444,730.556,238.889,N
843,0.115,-2.075,0.860,33.333,5.556,211.111,525.000,205.556,V
844,0.045,1.080,-0.080,197.222,77.778,377.778,891.667,366.667,N
845,0.005,-1.995,0.620,38.889,8.333,255.556,577.778,313.889,V
846,0.065,1.035,0.015,177.778,83.333,316.667,925.000,347.222,N
847,0.100,-2.230,0.825,38.889,13.889,236.111,516.667,408.333,V
848,-0.095,0.875,-0.125,163.889,63.889,330.556,791.667,275.000,N
849,0.195,-1.870,0.600,38.889,2.778,205.556,516.667,275.000,V
850,-0.070,1.050,0.010,150.000,75.000,366.667,850.000,333.333,N
851,-0.020,-2.305,0.835,50.000,0.000,213.889,525.000,325.000,V
852,-0.120,0.870,-0.060,116.667,88.889,361.111,891.667,366.667,N
853,0.375,-1.875,0.660,36.111,0.000,258.333,622.222,269.444,V
854,0.095,0.970,0.135,152.778,66.667,366.667,722.222,100.000,N
855,0.240,-2.145,0.825,50.000,2.778,155.556,583.333,138.889,V
856,-0.145,0.865,0.105,197.222,77.778,366.667,925.000,341.667,N
857,0.195,-2.160,0.860,130.556,2.778,213.889,516.667,408.333,V
858,-0.150,0.845,-0.170,175.000,61.111,325.000,908.333,391.667,N
859,0.200,-2.115,0.975,94.444,11.111,227.778,525.000,383.333,V
860,0.155,1.045,-0.035,197.222,86.111,405.556,805.556,280.556,N
861,0.165,-1.780,0.765,47.222,0.000,236.111,577.778,227.778,V
862,-0.075,1.050,0.000,191.667,94.444,388.889,1047.222,469.444,N
863,0.490,-1.675,0.620,41.667,0.000,244.444,680.556,366.667,V
864,0.080,0.940,0.160,177.778,66.667,261.111,830.556,150.000,N
865,0.500,-1.860,0.855,41.667,13.889,233.333,525.000,305.556,V
866,0.025,1.135,0.085,194.444,69.444,350.000,813.889,288.889,N
867,0.140,-2.210,0.955,30.556,2.778,197.222,480.556,333.333,V
868,0.215,0.965,-0.160,83.333,72.222,386.111,891.667,411.111,N
869,0.555,-1.765,0.465,44.444,5.556,258.333,736.111,155.556,V
870,0.225,1.730,0.505,58.333,116.667,116.667,680.556,55.556,V
871,0.365,0.750,0.585,88.889,86.111,175.000,863.889,183.333,N
872,0.105,0.650,0.000,180.556,61.111,286.111,463.889,400.000,V
873,-0.070,1.050,-0.270,191.667,97.222,405.556,491.667,27.778,V
874,0.010,1.095,0.265,150.000,86.111,355.556,1194.444,702.778,N
875,0.070,-1.640,0.310,141.667,2.778,241.667,550.000,644.444,V
876,-0.210,1.025,-0.140,111.111,80.556,394.444,794.444,244.444,N
877,-0.095,0.860,0.080,116.667,69.444,247.222,694.444,100.000,N
878,-0.050,1.385,0.010,58.333,91.667,369.444,700.000,5.556,F
879,0.110,1.260,0.180,138.889,77.778,386.111,766.667,66.667,N
880,0.430,-1.690,1.100,41.667,2.778,222.222,608.333,158.333,V
881,0.370,1.000,0.495,177.778,72.222,177.778,852.778,244.444,N
882,0.245,-1.875,1.360,36.111,5.556,227.778,505.556,347.222,V
883,0.190,0.870,0.615,144.444,80.556,227.778,750.000,244.444,N
884,0.610,-2.270,0.870,191.667,0.000,200.000,488.889,261.111,V
885,0.190,1.215,0.255,83.333,72.222,291.667,908.333,419.444,N
886,0.445,-2.155,1.075,36.111,0.000,200.000,580.556,327.778,V
887,0.115,0.950,-0.120,175.000,75.000,338.889,913.889,333.333,N
888,0.210,-1.985,0.575,41.667,0.000,238.889,530.556,383.333,V
889,-0.015,1.030,0.005,158.333,102.778,336.111,827.778,297.222,N
890,0.030,-2.275,0.870,52.778,5.556,191.667,538.889,288.889,V
891,-0.015,1.135,-0.150,52.778,83.333,216.667,808.333,269.444,N
892,-0.060,1.200,0.010,188.889,66.667,294.444,675.000,133.333,N
893,-0.150,0.890,0.015,105.556,63.889,277.778,677.778,2.778,N
894,-0.140,0.880,-0.030,183.333,75.000,313.889,644.444,33.333,N
895,-0.030,1.035,0.125,105.556,61.111,297.222,722.222,77.778,N
896,0.045,1.085,0.130,197.222,72.222,358.333,694.444,27.778,N
897,-0.140,0.840,0.300,175.000,86.111,377.778,755.556,61.111,N
898,0.030,0.985,0.210,169.444,86.111,158.333,719.444,36.111,N
899,0.290,0.875,0.190,175.000,72.222,311.111,680.556,38.889,N
900,-0.020,0.715,0.225,83.333,94.444,258.333,622.222,58.333,N
901,0.005,1.075,0.200,66.667,77.778,308.333,655.556,33.333,N
902,-0.030,0.960,0.050,113.889,83.333,336.111,652.778,2.778,N
903,-0.070,0.730,0.050,155.556,75.000,338.889,705.556,52.778,N
904,-0.115,0.970,-0.015,169.444,77.778,358.333,772.222,66.667,N
905,-0.080,0.965,-0.055,197.222,72.222,322.222,772.222,0.000,N
906,-0.130,0.965,-0.025,186.111,72.222,322.222,650.000,122.222,A
907,-0.065,0.785,0.155,116.667,69.444,333.333,741.667,91.667,N
908,0.170,-2.250,0.600,50.000,0.000,213.889,541.667,200.000,V
909,-0.300,0.905,-0.130,197.222,83.333,369.444,900.000,358.333,N
910,-0.075,-2.205,0.695,33.333,11.111,230.556,497.222,402.778,V
911,0.600,1.685,0.005,188.889,111.111,383.333,441.667,55.556,V
912,0.205,1.020,0.505,83.333,86.111,280.556,491.667,50.000,V
913,-0.400,0.475,-0.110,63.889,75.000,330.556,1169.444,677.778,N
914,0.600,-1.925,0.770,33.333,0.000,255.556,627.778,541.667,V
915,-0.060,0.560,-0.015,111.111,72.222,241.667,1088.889,461.111,N
916,-0.025,0.485,0.200,83.333,66.667,288.889,536.111,552.778,V
917,0.060,0.905,-0.055,177.778,63.889,383.333,880.556,344.444,N
918,-0.070,0.720,0.035,172.222,63.889,313.889,644.444,236.111,N
919,0.135,1.135,0.450,111.111,80.556,394.444,641.667,2.778,N
920,0.355,1.240,0.325,197.222,77.778,388.889,713.889,72.222,N
921,0.185,1.030,0.230,127.778,77.778,338.889,763.889,50.000,N
922,0.145,1.045,0.235,136.111,80.556,355.556,752.778,11.111,N
923,0.130,1.015,-0.005,183.333,66.667,302.778,650.000,102.778,N
924,-0.185,0.770,0.145,194.444,63.889,377.778,655.556,5.556,N
925,0.120,0.895,0.145,186.111,69.444,302.778,661.111,5.556,N
926,0.160,-2.005,0.530,41.667,0.000,230.556,522.222,138.889,V
927,-0.375,0.500,-0.525,188.889,80.556,386.111,733.333,211.111,N
928,-0.460,-2.690,0.405,169.444,2.778,230.556,536.111,197.222,V
929,-0.460,0.665,-0.490,127.778,77.778,377.778,838.889,302.778,N
930,-0.190,-2.385,-0.060,41.667,0.000,247.222,622.222,216.667,V
931,-0.340,0.775,-0.120,50.000,72.222,305.556,738.889,116.667,N
932,0.210,-2.000,0.695,52.778,0.000,186.111,616.667,122.222,V
933,-0.035,1.055,-0.005,188.889,75.000,308.333,769.444,152.778,N
934,-0.040,0.970,0.170,83.333,86.111,352.778,652.778,116.667,N
935,0.010,1.115,0.045,44.444,63.889,250.000,647.222,5.556,N
936,0.160,-1.950,0.800,41.667,0.000,211.111,538.889,108.333,V
937,0.010,0.950,0.090,119.444,72.222,300.000,658.333,119.444,N
938,0.215,-1.980,0.965,33.333,8.333,208.333,552.778,105.556,V
939,0.005,0.870,0.005,105.556,80.556,386.111,777.778,225.000,N
940,0.155,-2.100,0.890,58.333,2.778,263.889,586.111,191.667,V
941,0.470,0.880,-0.075,197.222,83.333,141.667,522.222,63.889,V
942,-0.020,1.100,-0.050,63.889,69.444,336.111,963.889,441.667,N
943,0.325,-1.775,0.475,36.111,2.778,205.556,561.111,402.778,V
944,-0.055,0.980,-0.055,138.889,69.444,302.778,661.111,100.000,N
945,-0.045,1.035,0.110,191.667,83.333,330.556,638.889,22.222,N
946,-0.100,0.790,0.100,197.222,72.222,327.778,688.889,50.000,N
947,0.300,-1.575,0.600,44.444,5.556,252.778,597.222,91.667,V
948,0.035,0.950,0.025,183.333,66.667,338.889,786.111,188.889,N
949,0.125,-2.175,0.775,63.889,2.778,227.778,527.778,258.333,V
950,-0.080,0.845,0.035,191.667,72.222,363.889,769.444,241.667,N
951,-0.035,1.035,0.200,41.667,61.111,280.556,641.667,127.778,N
952,0.130,1.090,0.090,194.444,69.444,311.111,636.111,5.556,N
953,-0.025,-1.910,0.595,66.667,5.556,222.222,555.556,80.556,V
954,-0.015,0.955,-0.055,175.000,83.333,341.667,730.556,175.000,N
955,0.300,-1.920,0.610,33.333,2.778,225.000,536.111,194.444,V
956,-0.155,0.760,-0.035,197.222,66.667,250.000,677.778,141.667,N
957,-0.075,0.855,0.070,194.444,69.444,311.111,650.000,27.778,N
958,-0.155,0.870,0.060,136.111,80.556,388.889,719.444,69.444,N
959,0.030,-2.275,0.760,61.111,5.556,222.222,602.778,116.667,V
960,0.505,0.685,-0.105,197.222,72.222,386.111,466.667,136.111,V
961,0.035,1.040,0.055,86.111,83.333,333.333,922.222,455.556,N
962,0.015,0.830,0.085,163.889,58.333,258.333,619.444,302.778,N
963,-0.085,0.805,0.025,177.778,77.778,311.111,600.000,19.444,N
964,0.300,-1.770,0.660,36.111,2.778,202.778,511.111,88.889,V
965,-0.145,0.740,-0.085,194.444,75.000,358.333,736.111,225.000,N
966,0.025,-2.220,0.890,38.889,0.000,252.778,558.333,177.778,V
967,-0.080,0.820,-0.135,183.333,72.222,369.444,808.333,250.000,N
968,-0.160,0.925,-0.085,197.222,72.222,305.556,680.556,127.778,N
969,-0.245,0.705,-0.120,175.000,83.333,338.889,613.889,66.667,N
970,0.145,-2.115,0.545,41.667,2.778,225.000,527.778,86.111,V
971,-0.250,0.770,-0.265,194.444,91.667,405.556,750.000,222.222,N
972,-0.295,0.705,-0.055,175.000,61.111,275.000,650.000,100.000,N
973,-0.240,0.740,-0.090,138.889,69.444,297.222,583.333,66.667,N
974,0.100,-2.170,0.620,44.444,2.778,197.222,516.667,66.667,V
975,-0.140,0.775,-0.065,183.333,63.889,333.333,744.444,227.778,N
976,-0.105,0.795,0.105,130.556,72.222,305.556,691.667,52.778,N
977,-0.045,1.005,0.120,125.000,72.222,333.333,650.000,41.667,N
978,0.295,-1.980,0.850,38.889,0.000,219.444,583.333,66.667,V
979,0.010,0.980,0.105,197.222,75.000,336.111,755.556,172.222,N
980,0.095,-2.045,1.020,158.333,2.778,202.778,508.333,247.222,V
981,-0.045,1.040,-0.120,172.222,63.889,330.556,741.667,233.333,N
982,-0.115,0.875,-0.090,163.889,63.889,277.778,572.222,169.444,N
983,-0.195,0.835,-0.070,105.556,72.222,333.333,613.889,41.667,N
984,0.075,-2.155,0.660,50.000,2.778,227.778,580.556,33.333,V
985,-0.105,0.790,-0.065,119.444,69.444,375.000,811.111,230.556,N
986,0.135,-2.205,0.845,38.889,2.778,230.556,572.222,238.889,V
987,-0.065,0.970,-0.040,177.778,72.222,350.000,769.444,197.222,N
988,-0.080,0.970,0.005,172.222,63.889,311.111,633.333,136.111,N
989,-0.175,0.785,-0.265,94.444,63.889,277.778,638.889,5.556,N
990,0.145,-2.015,0.775,38.889,0.000,227.778,494.444,144.444,V
991,0.050,0.980,0.055,161.111,75.000,302.778,652.778,158.333,N
992,0.175,-2.165,0.915,36.111,0.000,238.889,522.222,130.556,V
993,0.050,0.865,0.000,169.444,69.444,383.333,791.667,269.444,N
994,-0.035,0.910,0.085,191.667,63.889,308.333,688.889,102.778,N
995,0.010,1.045,0.075,194.444,72.222,319.444,630.556,58.333,N
996,0.140,-1.885,0.595,47.222,5.556,238.889,611.111,19.444,V
997,-0.085,0.865,-0.145,197.222,77.778,366.667,791.667,180.556,N
998,-0.115,-2.095,0.620,50.000,2.778,197.222,541.667,250.000,V
999,0.170,1.150,-0.035,194.444,63.889,316.667,730.556,188.889,N
1000,-0.070,1.020,-0.005,197.222,63.889,280.556,566.667,163.889,N
1001,-0.235,0.590,-0.060,152.778,61.111,338.889,572.222,5.556,N
1002,0.095,-1.985,0.675,38.889,0.000,205.556,552.778,19.444,V
1003,-0.100,0.840,-0.005,127.778,86.111,302.778,697.222,144.444,N
1004,0.085,-2.130,0.855,33.333,2.778,236.111,563.889,133.333,V
1005,-0.065,0.890,0.005,141.667,88.889,347.222,852.778,288.889,N
1006,-0.065,0.835,0.190,69.444,86.111,350.000,650.000,202.778,N
1007,-0.025,1.030,0.120,130.556,66.667,280.556,622.222,27.778,N
1008,-0.030,0.980,0.020,166.667,63.889,355.556,588.889,33.333,N
1009,0.210,0.870,0.120,163.889,66.667,336.111,616.667,27.778,N
1010,-0.155,0.810,0.245,72.222,66.667,297.222,658.333,41.667,N
1011,-0.085,1.005,0.025,191.667,66.667,300.000,616.667,41.667,N
1012,-0.135,0.855,0.130,191.667,77.778,316.667,594.444,22.222,N
1013,0.050,0.890,0.035,44.444,66.667,380.556,675.000,80.556,N
1014,0.100,-2.115,0.735,41.667,0.000,186.111,569.444,105.556,V
1015,-0.055,0.920,-0.070,55.556,88.889,305.556,775.000,205.556,N
1016,-0.050,-2.000,0.690,52.778,2.778,208.333,500.000,275.000,V
1017,-0.005,1.000,-0.060,163.889,83.333,372.222,727.778,227.778,N
1018,-0.070,0.890,0.140,155.556,69.444,327.778,666.667,61.111,N
1019,-0.060,0.840,0.110,169.444,61.111,297.222,608.333,58.333,N
1020,0.035,1.010,0.155,111.111,80.556,288.889,619.444,11.111,N
1021,-0.010,1.010,0.120,169.444,66.667,302.778,572.222,47.222,N
1022,-0.065,0.895,0.125,119.444,80.556,316.667,638.889,66.667,N
1023,-0.085,0.990,0.205,69.444,86.111,366.667,663.889,25.000,N
1024,0.040,1.070,0.115,58.333,75.000,305.556,786.111,122.222,N
1025,-0.085,1.030,0.110,69.444,100.000,311.111,675.000,111.111,N
1026,-0.085,0.880,0.110,161.111,61.111,277.778,611.111,63.889,N
1027,-0.080,0.880,0.080,66.667,88.889,300.000,602.778,8.333,N
1028,-0.025,0.730,0.010,169.444,69.444,302.778,608.333,5.556,N
1029,0.010,0.895,0.205,158.333,61.111,277.778,519.444,88.889,A
1030,0.005,1.005,0.035,108.333,66.667,308.333,705.556,186.111,N
1031,0.145,-1.955,0.575,41.667,5.556,247.222,641.667,63.889,V
1032,-0.125,0.865,-0.110,194.444,72.222,361.111,752.778,111.111,N
1033,-0.070,-2.045,0.765,58.333,0.000,238.889,569.444,183.333,V
1034,-0.050,0.840,-0.045,161.111,63.889,325.000,719.444,150.000,N
1035,0.150,-1.495,0.595,30.556,2.778,202.778,566.667,152.778,V
1036,-0.110,0.875,-0.125,197.222,77.778,380.556,769.444,202.778,N
1037,-0.180,0.845,0.070,183.333,69.444,305.556,669.444,100.000,N
1038,-0.020,1.035,0.180,55.556,75.000,319.444,655.556,13.889,N
1039,0.440,-1.710,0.885,36.111,2.778,194.444,522.222,133.333,V
1040,0.015,0.940,-0.095,180.556,66.667,369.444,705.556,183.333,N
1041,-0.060,-2.115,0.845,38.889,5.556,247.222,530.556,175.000,V
1042,-0.080,0.865,0.085,194.444,75.000,377.778,805.556,275.000,N
1043,0.190,-1.305,0.580,30.556,2.778,197.222,638.889,166.667,V
1044,-0.080,0.940,-0.170,197.222,80.556,377.778,794.444,155.556,N
1045,-0.205,0.820,-0.055,102.778,61.111,294.444,633.333,161.111,N
1046,-0.155,0.845,0.075,172.222,66.667,288.889,625.000,8.333,N
1047,0.240,-1.765,0.890,38.889,5.556,205.556,488.889,136.111,V
1048,0.100,1.085,0.040,180.556,72.222,383.333,744.444,255.556,N
1049,0.190,-2.180,0.870,41.667,5.556,247.222,558.333,186.111,V
1050,-0.020,0.930,-0.020,188.889,80.556,394.444,886.111,327.778,N
1051,-0.095,0.970,0.070,197.222,72.222,294.444,755.556,130.556,N
1052,-0.065,0.850,0.145,191.667,72.222,305.556,650.000,105.556,N
1053,0.030,0.960,0.040,169.444,69.444,325.000,591.667,58.333,A
1054,-0.040,0.945,-0.005,169.444,55.556,277.778,700.000,108.333,N
1055,0.055,-2.300,0.670,50.000,2.778,222.222,530.556,169.444,V
1056,-0.140,0.730,-0.080,186.111,69.444,336.111,766.667,236.111,N
1057,-0.070,-2.260,0.655,47.222,2.778,213.889,538.889,227.778,V
1058,-0.125,0.815,-0.130,183.333,72.222,358.333,808.333,269.444,N
1059,-0.175,0.830,-0.025,177.778,69.444,311.111,669.444,138.889,N
1060,-0.135,0.810,-0.010,197.222,72.222,372.222,700.000,30.556,N
1061,-0.135,0.905,-0.045,197.222,75.000,341.667,680.556,19.444,N
1062,-0.105,0.845,-0.065,175.000,69.444,311.111,761.111,80.556,N
1063,0.015,-2.350,0.605,44.444,0.000,205.556,552.778,208.333,V
1064,-0.060,0.875,-0.130,166.667,69.444,344.444,719.444,166.667,N
1065,0.060,-2.355,0.645,30.556,5.556,205.556,480.556,238.889,V
1066,-0.165,0.870,-0.155,180.556,63.889,336.111,802.778,322.222,N
1067,-0.180,0.920,0.040,127.778,80.556,325.000,666.667,136.111,N
1068,-0.095,0.890,-0.060,155.556,77.778,369.444,722.222,55.556,N
1069,-0.120,0.980,0.000,125.000,69.444,294.444,755.556,33.333,N
1070,-0.080,1.005,0.035,119.444,75.000,327.778,675.000,80.556,N
1071,-0.010,1.035,0.085,175.000,94.444,283.333,655.556,19.444,N
1072,-0.040,0.975,0.080,183.333,97.222,305.556,622.222,33.333,N
1073,-0.040,0.905,0.055,191.667,77.778,338.889,677.778,55.556,N
1074,-0.045,0.830,0.060,180.556,66.667,308.333,691.667,13.889,N
1075,-0.055,0.920,-0.035,197.222,72.222,308.333,680.556,11.111,N
1076,-0.130,0.865,-0.030,186.111,69.444,330.556,641.667,38.889,N
1077,-0.120,0.895,-0.005,186.111,69.444,325.000,705.556,63.889,N
1078,-0.155,0.875,0.060,197.222,69.444,305.556,722.222,16.667,N
1079,0.060,1.695,-0.205,58.333,113.889,394.444,480.556,241.667,V
1080,0.010,0.965,0.010,197.222,69.444,352.778,886.111,405.556,N
1081,0.045,-2.305,0.690,52.778,8.333,222.222,569.444,316.667,V
1082,-0.050,0.960,-0.075,180.556,66.667,358.333,797.222,227.778,N
1083,0.365,-1.945,0.610,38.889,0.000,197.222,572.222,225.000,V
1084,-0.040,0.820,0.005,188.889,77.778,361.111,716.667,144.444,N
1085,0.100,1.270,0.190,55.556,77.778,102.778,636.111,80.556,A
1086,-0.120,0.855,-0.105,194.444,80.556,333.333,852.778,216.667,N
1087,-0.065,-2.285,0.620,52.778,5.556,266.667,591.667,261.111,V
1088,-0.170,0.710,-0.140,161.111,69.444,352.778,888.889,297.222,N
1089,-0.060,-2.265,0.660,47.222,5.556,200.000,502.778,386.111,V
1090,-0.115,0.790,-0.115,180.556,63.889,294.444,819.444,316.667,N
1091,0.085,-1.960,0.540,41.667,5.556,222.222,483.333,336.111,V
1092,-0.025,1.045,-0.095,163.889,69.444,361.111,833.333,350.000,N
1093,-0.065,-2.320,0.620,58.333,8.333,241.667,566.667,266.667,V
1094,-0.155,0.930,-0.180,197.222,77.778,394.444,950.000,383.333,N
1095,0.000,1.000,0.200,191.667,69.444,202.778,727.778,222.222,N
1096,-0.125,0.950,-0.035,191.667,72.222,341.667,686.111,41.667,N
1097,-0.160,0.735,-0.080,125.000,86.111,333.333,730.556,44.444,N
1098,-0.145,0.940,-0.025,180.556,63.889,305.556,705.556,25.000,N
1099,-0.150,0.940,-0.105,180.556,69.444,305.556,605.556,100.000,N
1100,-0.125,0.800,-0.090,161.111,63.889,252.778,636.111,30.556,N
1101,-0.200,1.005,-0.080,58.333,86.111,308.333,644.444,8.333,N
1102,-0.205,1.010,-0.100,197.222,69.444,277.778,686.111,41.667,N
1103,-0.185,0.950,-0.105,197.222,77.778,363.889,663.889,22.222,N
1104,-0.165,0.805,0.035,83.333,75.000,313.889,730.556,66.667,N
1105,-0.190,0.930,-0.025,127.778,75.000,297.222,747.222,16.667,N
1106,-0.120,1.165,-0.065,72.222,69.444,288.889,650.000,97.222,N
1107,-0.150,0.945,-0.060,191.667,63.889,294.444,647.222,2.778,N
1108,-0.110,0.980,-0.035,75.000,69.444,291.667,602.778,44.444,N
1109,-0.085,0.840,-0.065,194.444,69.444,316.667,663.889,61.111,N
1110,-0.230,0.760,0.005,116.667,75.000,327.778,727.778,63.889,N
1111,-0.035,1.095,-0.035,66.667,77.778,366.667,727.778,0.000,N
1112,-0.210,0.915,0.060,194.444,66.667,305.556,733.333,5.556,N
1113,-0.120,0.985,0.015,52.778,75.000,288.889,708.333,25.000,N
1114,-0.245,0.700,0.020,150.000,75.000,311.111,691.667,16.667,N
1115,-0.060,0.930,0.125,86.111,61.111,280.556,636.111,55.556,N
1116,-0.070,0.795,-0.105,111.111,63.889,291.667,675.000,38.889,N
1117,-0.170,0.985,0.050,63.889,77.778,319.444,697.222,22.222,N
1118,-0.110,1.010,-0.110,183.333,75.000,297.222,663.889,33.333,N
1119,-0.125,0.815,-0.180,188.889,66.667,305.556,677.778,13.889,N
1120,-0.205,0.890,-0.180,47.222,69.444,302.778,602.778,75.000,A
1121,-0.235,0.815,-0.155,194.444,80.556,386.111,811.111,208.333,N
1122,-0.165,0.945,-0.030,69.444,77.778,336.111,811.111,0.000,N
1123,-0.105,0.980,-0.030,141.667,72.222,333.333,686.111,125.000,N
1124,-0.110,0.760,0.050,169.444,83.333,272.222,733.333,47.222,N
1125,-0.025,0.935,0.075,180.556,69.444,280.556,655.556,77.778,N
1126,-0.065,1.070,0.050,144.444,66.667,305.556,597.222,58.333,N
1127,0.020,0.935,0.105,177.778,72.222,330.556,697.222,100.000,N
1128,-0.075,0.685,0.030,183.333,69.444,322.222,741.667,44.444,N
1129,-0.090,1.105,0.070,194.444,83.333,355.556,758.333,16.667,N
1130,-0.030,1.115,0.060,194.444,75.000,330.556,783.333,25.000,N
1131,-0.010,0.960,-0.060,108.333,94.444,297.222,713.889,69.444,N
1132,-0.010,0.830,0.060,144.444,66.667,313.889,677.778,36.111,N
1133,-0.055,0.990,0.005,119.444,72.222,336.111,716.667,38.889,N
1134,0.135,1.880,-0.065,58.333,116.667,402.778,577.778,138.889,V
1135,-0.145,0.835,0.065,52.778,75.000,341.667,855.556,277.778,N
1136,0.625,-1.535,0.675,33.333,2.778,222.222,577.778,277.778,V
1137,-0.045,0.805,-0.105,188.889,91.667,372.222,794.444,216.667,N
1138,0.120,-1.975,0.585,47.222,0.000,222.222,652.778,141.667,V
1139,0.095,0.900,-0.125,175.000,75.000,369.444,741.667,88.889,N
1140,0.070,1.065,0.100,180.556,72.222,327.778,750.000,8.333,N
1141,0.005,0.875,0.035,188.889,63.889,275.000,705.556,44.444,N
1142,-0.005,1.045,0.065,111.111,69.444,313.889,636.111,69.444,N
1143,0.025,0.795,-0.055,186.111,61.111,266.667,613.889,22.222,N
1144,-0.185,0.680,-0.220,161.111,86.111,327.778,575.000,38.889,A
1145,-0.165,1.060,-0.030,130.556,88.889,361.111,744.444,169.444,N
1146,0.245,-1.855,0.515,41.667,5.556,233.333,705.556,38.889,V
1147,-0.175,0.990,-0.120,155.556,77.778,338.889,772.222,66.667,N
1148,0.115,-2.100,0.530,41.667,2.778,177.778,538.889,233.333,V
1149,-0.130,0.945,-0.070,133.333,63.889,336.111,772.222,233.333,N
1150,0.190,-2.065,0.810,38.889,0.000,211.111,508.333,263.889,V
1151,-0.005,1.050,-0.030,169.444,86.111,386.111,763.889,255.556,N
1152,0.115,-2.260,0.855,33.333,5.556,194.444,525.000,238.889,V
1153,-0.065,0.780,-0.200,194.444,80.556,358.333,841.667,316.667,N
1154,-0.045,-2.185,0.580,33.333,2.778,197.222,519.444,322.222,V
1155,-0.225,0.610,-0.165,191.667,72.222,336.111,900.000,380.556,N
1156,-0.175,0.755,0.030,188.889,83.333,305.556,705.556,194.444,N
1157,-0.155,0.770,-0.065,183.333,77.778,338.889,727.778,22.222,N
1158,-0.090,-1.980,0.600,75.000,11.111,219.444,622.222,105.556,V
1159,-0.055,0.695,-0.255,194.444,69.444,380.556,763.889,141.667,N
1160,0.040,-2.130,0.650,33.333,5.556,188.889,505.556,258.333,V
1161,-0.020,0.845,-0.125,161.111,61.111,302.778,733.333,227.778,N
1162,0.110,-2.000,0.600,41.667,0.000,225.000,505.556,227.778,V
1163,-0.060,0.985,-0.195,61.111,75.000,386.111,816.667,311.111,N
1164,-0.210,-2.255,0.645,150.000,0.000,225.000,583.333,233.333,V
1165,-0.125,0.995,-0.130,130.556,80.556,391.667,927.778,344.444,N
1166,-0.135,0.850,-0.005,161.111,66.667,291.667,630.556,297.222,N
1167,-0.020,0.905,0.050,197.222,72.222,338.889,725.000,94.444,N
1168,0.375,-1.730,0.610,41.667,5.556,202.778,488.889,236.111,V
1169,0.030,1.095,-0.005,119.444,69.444,355.556,758.333,269.444,N
1170,-0.045,-2.020,0.715,44.444,0.000,213.889,544.444,213.889,V
1171,0.705,0.935,-0.105,194.444,77.778,225.000,436.111,108.333,V
1172,0.085,1.020,0.130,197.222,69.444,341.667,1116.667,680.556,N
1173,0.080,0.310,0.290,188.889,66.667,297.222,525.000,591.667,V
1174,-0.050,0.970,-0.140,125.000,69.444,380.556,836.111,311.111,N
1175,-0.060,0.910,0.065,175.000,75.000,316.667,666.667,169.444,N
1176,-0.090,0.725,-0.055,197.222,72.222,277.778,652.778,13.889,N
1177,-0.110,0.855,-0.005,180.556,69.444,280.556,650.000,2.778,N
1178,-0.090,0.890,0.035,111.111,63.889,277.778,650.000,0.000,N
1179,-0.065,0.790,-0.065,188.889,69.444,316.667,611.111,38.889,N
1180,-0.160,0.760,-0.040,172.222,61.111,288.889,636.111,25.000,N
1181,0.300,-1.845,0.580,38.889,2.778,227.778,611.111,25.000,V
1182,-0.190,0.710,-0.175,197.222,80.556,380.556,744.444,133.333,N
1183,-0.045,-1.875,0.615,41.667,8.333,250.000,652.778,91.667,V
1184,-0.150,0.870,-0.125,197.222,75.000,372.222,786.111,133.333,N
1185,-0.095,-2.195,0.840,50.000,5.556,188.889,511.111,275.000,V
1186,-0.025,0.730,-0.105,188.889,88.889,350.000,705.556,194.444,N
1187,-0.050,0.865,0.060,88.889,66.667,277.778,622.222,83.333,N
1188,0.240,0.960,-0.035,105.556,63.889,300.000,591.667,30.556,N
1189,0.330,-1.740,0.700,55.556,0.000,194.444,555.556,36.111,V
1190,-0.075,0.800,-0.125,152.778,77.778,225.000,758.333,202.778,N
1191,-0.165,-2.060,0.405,52.778,5.556,222.222,600.000,158.333,V
1192,-0.150,0.835,-0.095,197.222,83.333,372.222,791.667,191.667,N
1193,-0.100,0.880,0.110,113.889,66.667,286.111,625.000,166.667,N
1194,-0.215,0.655,-0.085,188.889,72.222,322.222,616.667,8.333,N
1195,-0.045,1.030,-0.020,100.000,69.444,358.333,655.556,38.889,N
1196,-0.185,0.790,0.030,80.556,63.889,261.111,655.556,0.000,N
1197,-0.095,0.820,0.020,194.444,72.222,316.667,616.667,38.889,N
1198,-0.050,0.855,0.115,47.222,63.889,261.111,616.667,0.000,N
1199,0.020,0.940,0.130,180.556,69.444,291.667,622.222,5.556,N
1200,0.040,1.045,0.145,86.111,77.778,355.556,652.778,30.556,N
1201,0.075,0.980,0.200,177.778,66.667,308.333,675.000,22.222,N
1202,0.140,1.020,0.090,69.444,80.556,288.889,683.333,8.333,N
1203,0.380,-1.690,0.675,36.111,0.000,233.333,611.111,72.222,V
1204,-0.055,0.890,0.135,197.222,86.111,305.556,716.667,105.556,N
1205,0.165,-1.170,0.510,30.556,2.778,197.222,536.111,180.556,V
1206,0.035,1.020,0.125,169.444,66.667,302.778,647.222,111.111,N
1207,0.010,1.005,0.040,180.556,72.222,241.667,580.556,66.667,N
1208,-0.125,0.895,0.020,147.222,75.000,347.222,644.444,63.889,N
1209,0.220,-1.705,0.615,50.000,5.556,244.444,658.333,13.889,V
1210,0.125,1.690,-0.425,58.333,116.667,400.000,772.222,113.889,V
1211,-0.125,0.920,0.155,80.556,69.444,272.222,688.889,83.333,N
1212,-0.045,0.830,0.005,191.667,80.556,311.111,597.222,91.667,N
1213,-0.135,0.795,0.045,188.889,69.444,305.556,594.444,2.778,N
1214,0.020,0.840,0.160,105.556,58.333,258.333,602.778,8.333,N
1215,-0.045,0.810,0.025,197.222,69.444,302.778,594.444,8.333,N
1216,-0.150,0.720,-0.030,177.778,75.000,325.000,608.333,13.889,N
1217,-0.170,0.840,0.065,83.333,72.222,291.667,655.556,47.222,N
1218,-0.075,0.835,0.000,194.444,86.111,322.222,594.444,61.111,N
1219,-0.100,0.820,-0.065,183.333,69.444,291.667,638.889,44.444,N
1220,-0.280,0.640,-0.065,122.222,72.222,322.222,619.444,19.444,N
1221,0.130,-1.855,0.640,44.444,2.778,211.111,572.222,47.222,V
1222,-0.160,0.785,-0.115,177.778,80.556,369.444,766.667,194.444,N
1223,-0.155,0.665,-0.060,172.222,63.889,288.889,613.889,152.778,N
1224,-0.215,0.705,0.005,191.667,69.444,277.778,619.444,5.556,N
1225,0.175,-1.745,0.520,41.667,0.000,191.667,491.667,127.778,V
1226,-0.155,0.875,-0.115,175.000,61.111,325.000,625.000,133.333,N
1227,-0.165,0.790,-0.020,58.333,69.444,277.778,600.000,25.000,N
1228,-0.175,0.860,0.025,61.111,80.556,280.556,588.889,11.111,N
1229,0.370,-1.670,0.655,47.222,0.000,208.333,613.889,25.000,V
1230,-0.090,0.915,-0.075,183.333,80.556,361.111,705.556,91.667,N
1231,-0.075,0.875,0.035,175.000,63.889,269.444,627.778,77.778,N
1232,-0.190,0.740,0.045,188.889,72.222,297.222,600.000,27.778,N
1233,0.360,-1.675,0.625,38.889,0.000,180.556,519.444,80.556,V
1234,0.020,0.930,0.045,180.556,66.667,305.556,580.556,61.111,N
1235,0.050,1.020,0.110,191.667,69.444,308.333,602.778,22.222,N
1236,-0.105,0.815,0.115,155.556,66.667,288.889,638.889,36.111,N
1237,0.355,-1.550,0.655,44.444,2.778,233.333,552.778,86.111,V
1238,0.040,0.925,-0.030,188.889,66.667,338.889,658.333,105.556,N
1239,-0.045,1.010,0.105,125.000,75.000,308.333,597.222,61.111,N
1240,-0.140,0.795,0.035,194.444,69.444,338.889,602.778,5.556,N
1241,0.480,-1.620,0.660,33.333,2.778,180.556,591.667,11.111,V
1242,0.085,0.950,0.015,191.667,75.000,327.778,588.889,2.778,N
1243,-0.125,0.745,0.105,61.111,61.111,277.778,588.889,0.000,N
1244,-0.135,0.715,-0.035,194.444,75.000,313.889,608.333,19.444,N
1245,-0.135,0.790,-0.010,169.444,61.111,280.556,558.333,50.000,N
1246,-0.245,0.730,0.020,188.889,72.222,288.889,569.444,11.111,N
1247,-0.085,0.805,0.145,194.444,66.667,291.667,544.444,25.000,N
1248,-0.055,0.835,-0.015,180.556,75.000,341.667,586.111,41.667,N
1249,-0.165,0.950,0.025,86.111,80.556,361.111,652.778,66.667,N
1250,-0.145,0.865,0.125,52.778,75.000,316.667,677.778,25.000,N
1251,-0.050,0.885,0.135,186.111,69.444,316.667,608.333,69.444,N
1252,-0.035,0.920,0.080,177.778,63.889,286.111,608.333,0.000,N
1253,-0.040,0.870,0.040,183.333,66.667,280.556,541.667,66.667,N
1254,-0.130,0.860,0.010,47.222,55.556,250.000,527.778,13.889,N
1255,-0.120,0.800,0.075,175.000,58.333,255.556,558.333,30.556,N
1256,-0.140,0.735,0.025,111.111,69.444,286.111,530.556,27.778,N
1257,-0.075,0.915,-0.010,175.000,66.667,305.556,588.889,58.333,N
1258,-0.240,0.755,0.025,125.000,77.778,363.889,633.333,44.444,N
1259,-0.095,0.850,0.080,197.222,69.444,302.778,636.111,2.778,N
1260,-0.145,0.860,0.095,133.333,75.000,355.556,638.889,2.778,N
1261,0.020,0.960,0.200,108.333,63.889,302.778,586.111,52.778,N
1262,-0.040,0.870,-0.035,188.889,63.889,291.667,566.667,19.444,N
1263,-0.205,0.775,0.195,50.000,75.000,330.556,605.556,38.889,N
1264,0.060,1.020,0.160,44.444,72.222,297.222,630.556,25.000,N
1265,0.255,0.975,0.190,169.444,66.667,294.444,566.667,63.889,N
1266,0.050,0.850,0.105,183.333,58.333,269.444,591.667,25.000,N
1267,-0.045,0.780,0.125,194.444,69.444,286.111,533.333,58.333,N
1268,0.005,0.920,0.065,163.889,66.667,308.333,577.778,44.444,N
1269,-0.065,1.010,0.120,44.444,69.444,291.667,633.333,55.556,N
1270,-0.035,0.930,0.075,197.222,75.000,336.111,594.444,38.889,N
1271,-0.085,0.775,0.085,116.667,63.889,305.556,647.222,52.778,N
1272,-0.080,0.970,0.075,125.000,75.000,322.222,636.111,11.111,N
1273,0.035,0.970,0.160,172.222,58.333,238.889,583.333,52.778,N
1274,0.005,0.900,0.120,72.222,88.889,291.667,572.222,11.111,N
1275,0.155,1.090,0.285,166.667,83.333,277.778,538.889,33.333,N
1276,0.170,1.030,0.065,191.667,83.333,286.111,538.889,0.000,N
1277,-0.050,0.785,0.060,197.222,72.222,316.667,597.222,58.333,N
1278,-0.050,0.780,0.070,127.778,75.000,308.333,661.111,63.889,N
1279,-0.120,0.850,0.030,197.222,83.333,338.889,633.333,27.778,N
1280,-0.130,0.905,0.085,194.444,77.778,286.111,672.222,38.889,N
1281,0.025,0.870,0.150,130.556,72.222,311.111,577.778,94.444,N
1282,-0.120,0.660,-0.045,177.778,69.444,291.667,580.556,2.778,N
1283,-0.120,0.720,-0.040,194.444,66.667,263.889,616.667,36.111,N
1284,-0.190,0.775,-0.090,197.222,66.667,302.778,536.111,80.556,N
1285,-0.195,0.755,-0.090,113.889,61.111,258.333,594.444,58.333,N
1286,-0.215,0.710,-0.040,194.444,83.333,305.556,600.000,5.556,N
1287,0.210,-1.695,0.530,36.111,2.778,194.444,563.889,36.111,V
1288,-0.160,0.795,-0.150,197.222,75.000,355.556,633.333,69.444,N
1289,-0.115,0.740,0.150,113.889,66.667,275.000,605.556,27.778,N
1290,-0.040,0.850,0.045,197.222,75.000,361.111,619.444,13.889,N
1291,-0.065,0.950,0.025,136.111,77.778,336.111,669.444,50.000,N
1292,-0.110,0.860,0.175,197.222,69.444,311.111,666.667,2.778,N
1293,0.060,0.855,-0.035,188.889,72.222,297.222,591.667,75.000,N
1294,-0.335,0.490,-0.475,194.444,75.000,263.889,602.778,11.111,N
1295,-0.525,0.540,-0.290,52.778,69.444,272.222,547.222,55.556,N
1296,-0.330,0.740,-0.080,119.444,69.444,288.889,544.444,2.778,N
1297,-0.165,0.725,0.000,180.556,66.667,266.667,602.778,58.333,N
1298,-0.215,0.790,-0.050,183.333,83.333,355.556,591.667,11.111,N
1299,-0.115,0.880,0.080,197.222,69.444,344.444,663.889,72.222,N
1300,-0.020,0.970,0.160,150.000,88.889,358.333,702.778,38.889,N
1301,0.020,0.930,0.120,116.667,66.667,294.444,650.000,52.778,N
1302,0.060,1.020,0.150,188.889,69.444,300.000,625.000,25.000,N
1303,0.075,0.980,0.155,169.444,61.111,272.222,555.556,69.444,N
1304,-0.020,0.780,-0.040,180.556,63.889,288.889,566.667,11.111,N
1305,-0.135,0.960,-0.130,188.889,83.333,325.000,616.667,50.000,N
1306,-0.140,0.850,0.075,58.333,66.667,277.778,616.667,0.000,N
1307,-0.005,0.935,0.135,197.222,69.444,341.667,616.667,0.000,N
1308,0.035,0.790,0.155,172.222,80.556,313.889,630.556,13.889,N
1309,0.060,1.015,0.255,130.556,88.889,280.556,619.444,11.111,N
1310,0.150,1.110,0.290,127.778,72.222,341.667,600.000,19.444,N
1311,0.180,0.945,0.285,55.556,75.000,286.111,616.667,16.667,N
1312,0.150,1.085,0.275,130.556,69.444,302.778,622.222,5.556,N
1313,0.180,1.160,0.240,133.333,83.333,311.111,597.222,25.000,N
1314,0.095,0.985,0.175,186.111,66.667,272.222,619.444,22.222,N
1315,-0.025,0.755,0.105,108.333,72.222,283.333,566.667,52.778,N
1316,-0.090,0.790,0.000,186.111,61.111,258.333,588.889,22.222,N
1317,-0.105,0.945,0.110,191.667,63.889,261.111,552.778,36.111,N
1318,-0.015,0.745,0.035,133.333,77.778,225.000,638.889,86.111,N
1319,0.140,-1.645,0.770,55.556,25.000,261.111,647.222,8.333,V
1320,-0.080,0.475,-0.075,191.667,77.778,327.778,766.667,119.444,N
1321,-0.205,0.900,0.055,105.556,75.000,286.111,616.667,150.000,N
1322,-0.035,0.770,0.025,61.111,75.000,325.000,594.444,22.222,N
1323,-0.070,0.800,0.015,141.667,72.222,280.556,586.111,8.333,N
1324,-0.165,0.840,-0.080,186.111,72.222,225.000,580.556,5.556,N
1325,0.080,-2.100,0.660,38.889,2.778,194.444,486.111,94.444,V
1326,-0.205,0.675,-0.140,152.778,77.778,372.222,680.556,194.444,N
1327,-0.065,0.845,0.100,150.000,77.778,286.111,652.778,27.778,N
1328,-0.005,1.075,0.140,158.333,86.111,308.333,652.778,0.000,N
1329,0.035,0.930,0.215,197.222,69.444,308.333,641.667,11.111,N
1330,-0.055,0.800,0.185,97.222,69.444,308.333,613.889,27.778,N
1331,0.015,0.845,0.130,194.444,88.889,319.444,627.778,13.889,N
1332,-0.030,0.940,-0.020,127.778,72.222,283.333,644.444,16.667,N
1333,-0.110,0.845,0.005,175.000,58.333,261.111,633.333,11.111,N
1334,-0.180,0.690,0.020,186.111,69.444,286.111,594.444,38.889,N
1335,-0.095,0.810,0.095,111.111,77.778,272.222,580.556,13.889,N
1336,-0.035,0.955,0.055,175.000,63.889,269.444,583.333,2.778,N
1337,-0.070,0.850,0.080,197.222,72.222,305.556,602.778,19.444,N
1338,-0.060,0.775,0.100,172.222,88.889,291.667,619.444,16.667,N
1339,-0.080,0.905,0.015,125.000,77.778,305.556,672.222,52.778,N
1340,-0.140,0.900,-0.015,197.222,75.000,330.556,647.222,25.000,N
1341,-0.110,0.930,0.090,188.889,72.222,275.000,680.556,33.333,N
1342,-0.025,0.905,0.060,188.889,77.778,302.778,588.889,91.667,N
1343,-0.080,0.885,-0.015,166.667,61.111,272.222,605.556,16.667,N
1344,-0.135,0.965,0.105,175.000,66.667,291.667,558.333,47.222,N
1345,0.030,1.005,0.250,188.889,72.222,300.000,613.889,55.556,N
1346,0.095,1.050,0.175,127.778,75.000,297.222,691.667,77.778,N
1347,0.055,1.000,0.060,188.889,72.222,327.778,583.333,108.333,N
1348,-0.070,0.925,0.005,191.667,66.667,288.889,733.333,150.000,N
1349,0.140,-1.845,0.710,44.444,0.000,222.222,533.333,200.000,V
1350,0.015,1.015,-0.015,183.333,72.222,361.111,722.222,188.889,N
1351,0.020,1.030,0.105,180.556,61.111,252.778,630.556,91.667,N
1352,-0.015,0.980,0.060,191.667,75.000,300.000,591.667,38.889,N
1353,-0.065,0.840,0.105,116.667,66.667,300.000,616.667,25.000,N
1354,-0.050,0.850,-0.030,188.889,69.444,291.667,663.889,47.222,N
1355,0.250,-2.110,0.715,41.667,2.778,197.222,536.111,127.778,V
1356,-0.070,0.870,-0.045,197.222,69.444,327.778,741.667,205.556,N
1357,-0.105,0.825,0.035,125.000,69.444,311.111,630.556,111.111,N
1358,-0.165,0.910,-0.110,130.556,77.778,347.222,702.778,72.222,N
1359,0.085,-2.275,0.690,47.222,0.000,233.333,625.000,77.778,V
1360,-0.180,0.735,-0.225,197.222,72.222,352.778,763.889,138.889,N
1361,-0.195,0.910,-0.070,172.222,63.889,252.778,580.556,183.333,N
1362,-0.115,0.910,-0.100,152.778,69.444,283.333,588.889,8.333,N
1363,0.025,-2.275,0.580,36.111,2.778,186.111,497.222,91.667,V
1364,-0.170,0.770,-0.185,186.111,66.667,319.444,750.000,252.778,N
1365,-0.175,0.875,-0.060,191.667,77.778,327.778,613.889,136.111,N
1366,-0.180,0.840,-0.075,194.444,72.222,341.667,677.778,63.889,N
1367,-0.170,0.805,0.010,144.444,83.333,316.667,733.333,55.556,N
1368,-0.150,0.885,-0.030,180.556,66.667,305.556,655.556,77.778,N
1369,-0.070,0.960,0.010,183.333,69.444,261.111,580.556,75.000,N
1370,-0.080,0.885,0.055,166.667,66.667,288.889,616.667,36.111,N
1371,0.190,-1.890,0.725,38.889,0.000,191.667,527.778,88.889,V
1372,-0.050,0.960,-0.085,197.222,69.444,355.556,772.222,244.444,N
1373,-0.080,0.920,0.055,180.556,66.667,305.556,616.667,155.556,N
1374,-0.060,0.925,0.005,183.333,69.444,288.889,658.333,41.667,N
1375,-0.080,0.795,0.020,127.778,86.111,322.222,638.889,19.444,N
1376,-0.090,0.905,-0.035,194.444,77.778,336.111,683.333,44.444,N
1377,-0.065,0.790,0.010,58.333,77.778,291.667,697.222,13.889,N
1378,-0.130,0.910,-0.130,191.667,75.000,161.111,622.222,75.000,N
1379,-0.410,0.590,-0.375,183.333,69.444,266.667,680.556,58.333,N
1380,-0.510,0.630,-0.240,127.778,77.778,330.556,658.333,22.222,N
1381,-0.160,0.960,0.200,58.333,63.889,275.000,577.778,80.556,N
1382,0.125,1.160,0.320,180.556,72.222,302.778,661.111,83.333,N
1383,0.480,-1.805,1.135,50.000,2.778,202.778,527.778,133.333,V
1384,0.130,1.025,0.155,197.222,77.778,338.889,738.889,211.111,N
1385,0.365,-1.675,0.895,50.000,11.111,241.667,622.222,116.667,V
1386,-0.010,0.975,-0.055,197.222,72.222,361.111,883.333,261.111,N
1387,0.120,-2.300,0.890,58.333,5.556,225.000,583.333,300.000,V
1388,-0.095,0.825,-0.170,177.778,75.000,338.889,755.556,172.222,N
1389,-0.125,0.955,0.000,175.000,63.889,294.444,622.222,133.333,N
1390,-0.100,0.905,0.025,116.667,69.444,272.222,641.667,19.444,N
1391,-0.130,0.840,-0.020,186.111,80.556,322.222,611.111,30.556,N
1392,-0.110,0.995,-0.015,197.222,72.222,311.111,675.000,63.889,N
1393,-0.075,0.975,0.020,144.444,86.111,369.444,741.667,66.667,N
1394,-0.085,1.010,0.050,125.000,88.889,347.222,697.222,44.444,N
1395,-0.070,1.060,0.035,188.889,66.667,297.222,702.778,5.556,N
1396,0.220,-1.660,0.490,41.667,0.000,202.778,536.111,166.667,V
1397,-0.025,1.645,-0.060,63.889,105.556,350.000,486.111,50.000,V
1398,0.265,1.545,-0.235,61.111,105.556,391.667,969.444,483.333,V
1399,0.010,-2.255,0.760,33.333,5.556,194.444,508.333,461.111,V
1400,-0.100,0.795,-0.015,180.556,83.333,344.444,788.889,280.556,N
1401,0.020,1.125,0.040,130.556,69.444,291.667,616.667,172.222,N
1402,-0.080,1.090,0.050,136.111,75.000,305.556,636.111,19.444,N
1403,0.060,1.055,0.085,177.778,63.889,316.667,680.556,44.444,N
1404,0.005,0.355,1.145,183.333,102.778,355.556,516.667,163.889,V
1405,0.030,1.180,0.185,136.111,88.889,272.222,869.444,352.778,N
1406,0.315,-2.015,0.820,41.667,0.000,158.333,591.667,277.778,V
1407,0.060,1.010,0.040,197.222,66.667,355.556,688.889,97.222,N
1408,0.020,1.005,0.090,105.556,80.556,302.778,591.667,97.222,N
1409,-0.035,0.910,0.060,177.778,66.667,311.111,602.778,11.111,N
1410,-0.050,1.045,0.095,161.111,72.222,336.111,691.667,88.889,N
1411,-0.090,1.130,0.085,197.222,66.667,305.556,713.889,22.222,N
1412,-0.080,0.925,0.075,141.667,94.444,347.222,708.333,5.556,N
1413,-0.085,0.865,0.045,175.000,83.333,313.889,688.889,19.444,N
1414,-0.060,0.960,0.085,180.556,80.556,308.333,622.222,66.667,N
1415,-0.030,1.070,-0.005,197.222,80.556,308.333,694.444,72.222,N
1416,0.095,-2.230,0.795,38.889,2.778,197.222,538.889,155.556,V
1417,-0.165,0.675,-0.150,108.333,83.333,322.222,727.778,188.889,N
1418,0.105,-2.015,0.645,41.667,0.000,222.222,530.556,197.222,V
1419,-0.110,1.005,-0.135,194.444,86.111,391.667,791.667,261.111,N
1420,0.020,-2.270,0.850,41.667,5.556,208.333,530.556,261.111,V
1421,-0.115,0.890,-0.115,161.111,69.444,333.333,791.667,261.111,N
1422,0.020,-1.935,0.720,47.222,0.000,225.000,572.222,219.444,V
1423,-0.050,1.020,-0.060,63.889,72.222,383.333,900.000,327.778,N
1424,0.125,-2.140,0.810,50.000,2.778,202.778,522.222,377.778,V
1425,-0.060,1.005,-0.030,180.556,63.889,355.556,794.444,272.222,N
1426,-0.030,0.865,0.125,191.667,69.444,272.222,511.111,283.333,A
1427,-0.050,1.110,0.030,175.000,83.333,341.667,708.333,197.222,N
1428,0.260,-2.045,0.970,47.222,2.778,163.889,533.333,175.000,V
1429,0.185,0.980,0.145,86.111,72.222,361.111,808.333,275.000,N
1430,0.260,-1.850,0.895,38.889,0.000,244.444,569.444,238.889,V
1431,0.140,1.165,0.195,119.444,77.778,358.333,852.778,283.333,N
1432,0.105,-2.295,0.810,38.889,16.667,247.222,530.556,322.222,V
1433,-0.075,0.900,-0.045,166.667,88.889,222.222,794.444,263.889,N
1434,0.040,-2.275,0.805,44.444,2.778,175.000,491.667,302.778,V
1435,0.110,0.885,-0.145,177.778,72.222,102.778,766.667,275.000,N
1436,-0.015,-2.265,0.715,175.000,5.556,208.333,552.778,213.889,V
1437,-0.155,0.940,-0.110,136.111,80.556,341.667,791.667,238.889,N
1438,-0.105,0.895,-0.010,183.333,63.889,280.556,566.667,225.000,A
1439,-0.085,0.905,0.110,191.667,75.000,305.556,736.111,169.444,N
1440,0.220,-1.695,0.770,41.667,13.889,236.111,580.556,155.556,V
1441,0.150,1.195,0.325,108.333,97.222,261.111,758.333,177.778,N
1442,0.035,-2.130,1.035,191.667,2.778,227.778,555.556,202.778,V
1443,0.020,0.965,0.055,163.889,86.111,136.111,791.667,236.111,N
1444,0.195,-2.045,0.780,38.889,0.000,186.111,536.111,255.556,V
1445,-0.080,1.015,-0.145,186.111,66.667,358.333,752.778,216.667,N
1446,-0.050,-2.230,0.820,44.444,5.556,197.222,488.889,263.889,V
1447,0.035,1.755,-0.140,58.333,113.889,405.556,813.889,325.000,V
1448,-0.025,1.135,0.190,66.667,86.111,358.333,783.333,30.556,N
1449,-0.090,0.915,0.030,147.222,69.444,313.889,761.111,22.222,N
1450,-0.120,1.025,0.050,52.778,72.222,275.000,725.000,36.111,N
1451,-0.040,0.945,0.020,191.667,66.667,288.889,605.556,119.444,N
1452,-0.085,0.975,0.010,177.778,66.667,288.889,622.222,16.667,N
1453,-0.110,1.050,0.030,175.000,80.556,266.667,630.556,8.333,N
1454,-0.075,0.290,0.920,191.667,88.889,291.667,486.111,144.444,V
1455,-0.055,0.860,-0.135,197.222,97.222,383.333,827.778,341.667,N
1456,0.085,-2.180,0.830,116.667,2.778,213.889,605.556,222.222,V
1457,-0.090,0.910,-0.040,191.667,91.667,166.667,808.333,202.778,N
1458,0.250,-2.230,1.130,36.111,8.333,188.889,563.889,244.444,V
1459,-0.115,0.755,-0.175,161.111,91.667,250.000,850.000,286.111,N
1460,-0.125,-2.165,0.765,63.889,0.000,241.667,552.778,297.222,V
1461,-0.040,0.865,-0.040,113.889,72.222,361.111,877.778,325.000,N
1462,0.025,0.825,0.140,166.667,100.000,311.111,694.444,183.333,N
1463,0.020,0.325,0.980,75.000,108.333,300.000,511.111,183.333,V
1464,-0.065,0.820,-0.055,97.222,88.889,369.444,769.444,258.333,N
1465,0.095,-1.255,0.405,36.111,16.667,219.444,625.000,144.444,V
1466,0.045,1.165,0.035,186.111,80.556,375.000,866.667,241.667,N
1467,0.120,-2.140,0.895,58.333,5.556,255.556,577.778,288.889,V
1468,0.000,0.960,0.035,183.333,72.222,336.111,1038.889,461.111,N
1469,0.100,-2.140,0.940,50.000,2.778,194.444,494.444,544.444,V
1470,0.080,0.920,0.015,166.667,86.111,358.333,819.444,325.000,N
1471,0.240,-1.900,0.930,33.333,0.000,197.222,502.778,316.667,V
1472,0.155,1.350,0.115,166.667,91.667,330.556,858.333,355.556,N
1473,0.185,1.130,0.010,183.333,77.778,322.222,766.667,91.667,N
1474,-0.190,0.905,-0.095,147.222,83.333,325.000,780.556,13.889,N
1475,0.020,1.145,0.000,77.778,75.000,300.000,686.111,94.444,N
1476,-0.100,1.060,0.035,55.556,72.222,300.000,650.000,36.111,N
1477,0.020,1.210,0.075,191.667,88.889,230.556,600.000,50.000,N
1478,-0.020,1.005,0.025,186.111,72.222,325.000,655.556,55.556,N
1479,0.435,-1.855,0.755,33.333,0.000,227.778,572.222,83.333,V
1480,-0.110,1.020,-0.045,186.111,75.000,372.222,783.333,211.111,N
1481,0.050,-2.340,0.720,55.556,0.000,208.333,519.444,263.889,V
1482,0.660,1.640,-0.315,194.444,94.444,397.222,422.222,97.222,V
1483,-0.030,1.090,-0.040,100.000,72.222,380.556,1066.667,644.444,N
1484,0.050,-1.450,0.460,27.778,5.556,236.111,588.889,477.778,V
1485,-0.175,0.860,-0.055,69.444,80.556,375.000,888.889,300.000,N
1486,0.125,-2.140,0.895,36.111,2.778,197.222,547.222,341.667,V
1487,-0.080,0.975,-0.075,119.444,66.667,341.667,708.333,161.111,N
1488,-0.030,-2.335,0.820,36.111,0.000,202.778,463.889,244.444,V
1489,-0.090,0.890,0.005,116.667,66.667,327.778,783.333,319.444,N
1490,0.105,-2.190,0.845,52.778,8.333,194.444,525.000,258.333,V
1491,-0.020,1.000,-0.075,136.111,75.000,361.111,827.778,302.778,N
1492,-0.005,-2.030,0.800,55.556,2.778,241.667,577.778,250.000,V
1493,0.000,1.230,-0.005,147.222,63.889,350.000,922.222,344.444,N
1494,0.135,-2.165,0.975,50.000,0.000,200.000,522.222,400.000,V
1495,0.005,0.930,0.090,50.000,66.667,325.000,747.222,225.000,N
1496,0.035,-1.930,0.815,36.111,2.778,208.333,491.667,255.556,V
1497,-0.040,1.060,-0.055,127.778,77.778,391.667,830.556,338.889,N
1498,0.175,-1.950,0.800,41.667,2.778,202.778,558.333,272.222,V
1499,-0.030,1.050,-0.030,133.333,69.444,266.667,825.000,266.667,N
1500,0.135,-2.005,0.930,36.111,0.000,200.000,513.889,311.111,V
1501,-0.025,1.090,-0.005,183.333,69.444,377.778,836.111,322.222,N
1502,0.120,-1.850,0.720,44.444,2.778,208.333,577.778,258.333,V
1503,0.045,1.055,0.040,61.111,75.000,355.556,783.333,205.556,N
1504,0.125,-2.095,0.890,55.556,5.556,172.222,525.000,258.333,V
1505,-0.045,0.880,-0.080,197.222,66.667,313.889,822.222,297.222,N
1506,0.265,-1.730,0.740,38.889,2.778,194.444,500.000,322.222,V
1507,0.035,1.045,-0.055,172.222,61.111,333.333,727.778,227.778,N
1508,0.010,-2.080,0.845,47.222,5.556,219.444,483.333,244.444,V
1509,-0.090,1.065,-0.080,133.333,77.778,155.556,911.111,427.778,N
1510,0.265,-1.920,0.985,44.444,2.778,238.889,633.333,277.778,V
1511,-0.035,1.120,-0.020,163.889,77.778,388.889,877.778,244.444,N
1512,0.020,-2.025,0.785,47.222,8.333,200.000,525.000,352.778,V
1513,-0.075,1.030,-0.050,177.778,86.111,400.000,777.778,252.778,N
1514,0.110,-1.995,0.815,52.778,0.000,208.333,511.111,266.667,V
1515,0.140,0.985,0.085,152.778,66.667,372.222,733.333,222.222,N
1516,0.085,-2.015,0.840,191.667,2.778,197.222,527.778,205.556,V
1517,-0.070,1.055,-0.120,97.222,80.556,263.889,886.111,358.333,N
1518,0.135,-2.035,0.675,41.667,0.000,225.000,569.444,316.667,V
1519,-0.255,0.845,-0.190,127.778,75.000,344.444,888.889,319.444,N
1520,-0.095,-2.110,0.700,36.111,0.000,211.111,513.889,375.000,V
1521,-0.180,1.045,-0.080,127.778,75.000,383.333,861.111,347.222,N
1522,0.165,-2.070,0.695,41.667,0.000,222.222,572.222,288.889,V
1523,-0.065,0.960,-0.105,102.778,88.889,394.444,827.778,255.556,N
1524,0.010,-2.095,0.810,36.111,2.778,194.444,519.444,308.333,V
1525,-0.035,1.020,-0.085,191.667,66.667,358.333,822.222,302.778,N
1526,0.110,-1.830,0.670,44.444,0.000,227.778,530.556,291.667,V
1527,-0.075,1.125,-0.090,191.667,72.222,388.889,916.667,386.111,N
1528,0.040,-2.125,0.930,38.889,2.778,213.889,577.778,338.889,V
1529,-0.065,0.935,-0.060,163.889,88.889,400.000,877.778,300.000,N
1530,0.195,-1.715,0.735,38.889,5.556,352.778,566.667,311.111,V
1531,0.685,1.900,-0.175,186.111,116.667,388.889,391.667,175.000,V
1532,0.125,1.200,0.100,130.556,72.222,338.889,1202.778,811.111,N
1533,0.075,0.380,0.340,161.111,66.667,308.333,533.333,669.444,V
1534,0.040,1.150,-0.020,188.889,83.333,394.444,1263.889,730.556,N
1535,-0.015,0.710,0.430,66.667,86.111,338.889,641.667,622.222,V
1536,0.055,1.250,0.055,197.222,75.000,377.778,922.222,280.556,N
1537,0.045,1.125,0.145,188.889,75.000,319.444,700.000,222.222,N
1538,-0.045,0.985,0.090,102.778,83.333,297.222,677.778,22.222,N
1539,0.000,1.105,0.060,194.444,66.667,311.111,694.444,16.667,N
1540,-0.085,1.110,0.090,141.667,75.000,347.222,613.889,80.556,A
1541,0.040,0.960,0.090,58.333,66.667,283.333,769.444,155.556,N
1542,-0.040,1.080,0.130,69.444,88.889,311.111,750.000,19.444,N
1543,-0.025,1.120,0.155,133.333,94.444,344.444,694.444,55.556,N
1544,-0.070,0.985,0.005,72.222,77.778,350.000,755.556,61.111,N
1545,-0.040,1.040,-0.030,138.889,86.111,308.333,811.111,55.556,N
1546,-0.105,1.085,0.030,75.000,83.333,347.222,694.444,116.667,N
1547,-0.095,1.015,0.050,172.222,61.111,302.778,688.889,5.556,N
1548,-0.155,0.940,-0.030,133.333,69.444,291.667,661.111,27.778,N
1549,-0.140,1.020,-0.065,141.667,77.778,308.333,705.556,44.444,N
1550,-0.165,1.000,0.010,186.111,69.444,313.889,719.444,13.889,N
1551,-0.135,0.930,0.005,127.778,75.000,330.556,819.444,100.000,N
1552,-0.135,1.065,0.035,186.111,83.333,341.667,694.444,125.000,N
1553,-0.055,1.060,-0.015,158.333,63.889,313.889,788.889,94.444,N
1554,-0.080,1.075,-0.030,97.222,58.333,316.667,1055.556,266.667,N
1555,0.265,-1.990,0.685,36.111,2.778,213.889,544.444,511.111,V
1556,-0.140,1.165,-0.120,119.444,75.000,363.889,1102.778,558.333,N
1557,0.010,-2.230,0.700,50.000,2.778,238.889,533.333,569.444,V
1558,-0.140,0.945,-0.160,188.889,69.444,386.111,1188.889,655.556,N
1559,-0.045,-2.185,0.645,52.778,0.000,216.667,566.667,622.222,V
1560,-0.135,1.060,-0.135,194.444,61.111,355.556,1127.778,561.111,N
1561,-0.150,0.610,0.265,197.222,69.444,305.556,533.333,594.444,V
1562,-0.100,1.125,-0.110,197.222,77.778,386.111,1030.556,497.222,N
1563,0.225,-2.245,0.745,41.667,0.000,200.000,600.000,430.556,V
1564,-0.160,0.890,-0.065,183.333,66.667,336.111,877.778,277.778,N
1565,0.015,-2.335,0.815,33.333,0.000,219.444,508.333,369.444,V
1566,-0.165,1.075,-0.185,127.778,80.556,341.667,1013.889,505.556,N
1567,0.515,-1.720,0.490,41.667,2.778,255.556,786.111,227.778,V
1568,-0.115,0.950,-0.035,125.000,77.778,341.667,861.111,75.000,N
1569,0.195,-1.920,0.710,36.111,2.778,186.111,530.556,330.556,V
1570,-0.035,0.995,-0.075,166.667,61.111,350.000,811.111,280.556,N
1571,0.170,-1.840,0.640,41.667,2.778,211.111,541.667,269.444,V
1572,-0.065,1.020,-0.110,197.222,75.000,391.667,858.333,316.667,N
1573,0.115,-2.230,0.805,36.111,5.556,255.556,550.000,308.333,V
1574,-0.070,0.950,-0.125,152.778,72.222,369.444,1019.444,469.444,N
1575,0.295,-2.005,0.725,41.667,2.778,252.778,561.111,458.333,V
1576,0.645,0.745,-0.090,197.222,63.889,286.111,469.444,91.667,V
1577,-0.120,0.015,-0.085,30.556,38.889,108.333,563.889,94.444,F
1578,-0.080,1.075,-0.010,177.778,72.222,352.778,541.667,22.222,N
1579,0.175,-2.085,0.735,41.667,2.778,247.222,572.222,30.556,V
1580,-0.055,0.970,-0.125,172.222,69.444,372.222,888.889,316.667,N
1581,-0.030,-2.150,0.665,50.000,5.556,225.000,547.222,341.667,V
1582,-0.115,0.895,-0.145,125.000,72.222,341.667,855.556,308.333,N
1583,0.180,-2.020,0.755,41.667,0.000,244.444,538.889,316.667,V
1584,-0.025,1.045,-0.045,186.111,75.000,388.889,913.889,375.000,N
1585,-0.005,-2.105,0.735,52.778,8.333,222.222,577.778,336.111,V
1586,-0.070,1.065,-0.065,197.222,77.778,380.556,919.444,341.667,N
1587,0.285,-1.980,0.795,36.111,2.778,202.778,527.778,391.667,V
1588,-0.045,1.005,-0.080,175.000,61.111,319.444,819.444,291.667,N
1589,0.040,-2.020,0.785,33.333,0.000,222.222,483.333,336.111,V
1590,-0.060,1.170,-0.060,191.667,80.556,386.111,908.333,425.000,N
1591,0.190,-2.000,0.710,44.444,2.778,244.444,619.444,288.889,V
1592,-0.110,1.125,-0.100,136.111,77.778,391.667,991.667,372.222,N
1593,0.095,-2.160,0.815,36.111,5.556,202.778,555.556,436.111,V
1594,-0.045,1.080,-0.035,172.222,63.889,361.111,883.333,327.778,N
1595,0.125,-1.970,0.660,41.667,0.000,219.444,544.444,338.889,V
1596,-0.105,1.015,-0.105,186.111,75.000,388.889,852.778,308.333,N
1597,0.095,-2.205,0.775,33.333,5.556,219.444,513.889,338.889,V
1598,-0.125,0.910,-0.130,188.889,69.444,366.667,938.889,425.000,N
1599,0.290,-2.010,0.665,44.444,0.000,244.444,550.000,388.889,V
1600,-0.185,1.100,-0.145,197.222,72.222,391.667,961.111,411.111,N
1601,-0.030,-2.300,0.715,52.778,5.556,238.889,550.000,411.111,V
1602,-0.225,0.915,-0.205,161.111,77.778,391.667,1030.556,480.556,N
1603,0.230,-2.010,0.675,38.889,0.000,222.222,558.333,472.222,V
1604,-0.115,0.930,-0.120,172.222,61.111,322.222,902.778,344.444,N
1605,0.000,-2.140,0.715,50.000,2.778,211.111,494.444,408.333,V
1606,-0.060,1.050,-0.110,191.667,77.778,388.889,919.444,425.000,N
1607,0.470,-1.725,0.540,41.667,2.778,250.000,619.444,300.000,V
1608,-0.145,1.015,-0.150,119.444,91.667,319.444,944.444,325.000,N
1609,0.260,-1.970,0.770,44.444,0.000,252.778,661.111,283.333,V
1610,-0.090,1.135,-0.055,77.778,75.000,388.889,936.111,275.000,N
1611,0.065,-2.100,0.785,33.333,5.556,219.444,533.333,402.778,V
1612,0.760,0.715,-0.055,197.222,61.111,255.556,416.667,116.667,V
1613,-0.035,1.045,-0.070,191.667,80.556,388.889,1219.444,802.778,N
1614,0.100,-2.185,0.725,36.111,8.333,241.667,569.444,650.000,V
1615,-0.145,0.915,-0.125,194.444,72.222,386.111,1036.111,466.667,N
1616,-0.015,-2.145,0.715,36.111,0.000,241.667,544.444,491.667,V
1617,0.230,1.930,0.815,58.333,94.444,383.333,552.778,8.333,V
1618,0.815,0.760,-0.015,72.222,86.111,283.333,397.222,155.556,V
1619,-0.015,-1.505,0.430,72.222,2.778,177.778,325.000,72.222,V
1620,-0.085,1.140,-0.065,166.667,77.778,383.333,886.111,561.111,N
1621,0.160,-1.730,0.660,36.111,5.556,222.222,519.444,366.667,V
1622,-0.055,1.110,-0.055,180.556,69.444,375.000,1194.444,675.000,N
1623,0.075,-1.480,0.555,25.000,2.778,191.667,547.222,647.222,V
1624,-0.090,1.110,-0.115,197.222,77.778,394.444,1011.111,463.889,N
1625,-0.060,0.675,0.365,66.667,75.000,358.333,644.444,366.667,V
1626,0.295,-2.270,0.930,38.889,0.000,258.333,925.000,280.556,V
1627,-0.115,0.790,-0.110,91.667,63.889,308.333,1083.333,158.333,N
1628,0.215,-2.000,0.600,38.889,5.556,225.000,511.111,572.222,V
1629,-0.095,1.015,-0.075,183.333,69.444,333.333,986.111,475.000,N
1630,-0.020,-2.400,0.800,50.000,2.778,233.333,494.444,491.667,V
1631,-0.115,0.940,-0.105,197.222,77.778,383.333,1080.556,586.111,N
1632,-0.025,-2.405,0.880,61.111,0.000,255.556,633.333,447.222,V
1633,-0.075,0.830,-0.125,194.444,77.778,388.889,1111.111,477.778,N
1634,-0.005,-1.875,0.585,41.667,5.556,225.000,600.000,511.111,V
1635,-0.215,0.940,-0.105,119.444,88.889,388.889,897.222,297.222,N
1636,0.395,-1.865,0.555,44.444,0.000,225.000,675.000,222.222,V
1637,-0.115,0.880,-0.120,197.222,77.778,375.000,794.444,119.444,N
1638,0.035,-1.880,0.580,38.889,5.556,200.000,530.556,263.889,V
1639,-0.090,1.065,-0.060,188.889,63.889,380.556,883.333,352.778,N
1640,0.085,-2.000,0.785,52.778,0.000,250.000,577.778,305.556,V
1641,0.755,1.290,0.115,197.222,105.556,361.111,466.667,111.111,V
1642,0.175,1.195,0.100,100.000,80.556,391.667,1180.556,713.889,N
1643,0.200,-2.110,1.015,58.333,0.000,227.778,577.778,602.778,V
1644,0.070,1.035,0.055,150.000,66.667,383.333,838.889,261.111,N
1645,0.275,-1.885,0.910,33.333,0.000,202.778,513.889,325.000,V
1646,0.355,1.255,0.325,119.444,86.111,366.667,780.556,266.667,N
1647,0.265,-1.780,0.875,66.667,5.556,255.556,572.222,208.333,V
1648,0.285,1.160,0.110,38.889,61.111,244.444,983.333,411.111,N
1649,0.250,-2.195,1.145,38.889,13.889,291.667,594.444,388.889,V
1650,0.200,0.975,0.070,172.222,86.111,344.444,877.778,283.333,N
1651,0.120,1.050,0.190,191.667,86.111,322.222,680.556,197.222,N
1652,-0.055,0.370,0.930,183.333,102.778,291.667,522.222,158.333,V
1653,-0.070,1.005,-0.105,197.222,72.222,155.556,780.556,258.333,N
1654,0.175,-2.040,0.765,41.667,0.000,244.444,558.333,222.222,V
1655,-0.090,0.915,-0.075,194.444,61.111,308.333,827.778,269.444,N
1656,-0.070,-2.055,0.675,69.444,0.000,213.889,533.333,294.444,V
1657,-0.105,1.080,-0.085,172.222,63.889,325.000,766.667,233.333,N
1658,0.220,1.490,-0.175,58.333,105.556,405.556,497.222,269.444,V
1659,-0.030,1.160,0.055,80.556,77.778,383.333,1041.667,544.444,N
1660,0.045,-2.155,0.720,55.556,2.778,205.556,563.889,477.778,V
1661,-0.025,1.110,-0.020,133.333,83.333,344.444,888.889,325.000,N
1662,0.300,-1.985,0.745,38.889,2.778,216.667,486.111,402.778,V
1663,0.330,2.055,-0.215,58.333,102.778,397.222,491.667,5.556,V
1664,0.350,2.025,-0.190,1134825.000,1134883.333,1135163.889,588.889,97.222,V
1665,0.015,1.205,0.035,191.667,80.556,380.556,1150.000,561.111,N
1666,0.155,-2.090,0.760,38.889,5.556,255.556,572.222,577.778,V
1667,-0.040,0.995,-0.015,177.778,83.333,375.000,972.222,400.000,N
1668,0.170,-2.110,0.790,38.889,8.333,238.889,544.444,427.778,V
1669,0.035,0.915,-0.040,169.444,66.667,319.444,813.889,269.444,N
1670,-0.030,-2.100,0.625,47.222,0.000,233.333,502.778,311.111,V
1671,-0.085,0.905,-0.060,119.444,94.444,380.556,897.222,394.444,N
1672,0.075,-2.140,0.860,50.000,5.556,213.889,525.000,372.222,V
1673,-0.060,0.970,0.005,175.000,66.667,366.667,947.222,422.222,N
1674,0.305,-1.695,0.740,36.111,0.000,227.778,547.222,400.000,V
1675,0.285,1.075,0.230,147.222,69.444,302.778,891.667,344.444,N
1676,0.190,-2.145,0.980,175.000,0.000,216.667,530.556,361.111,V
1677,0.160,0.795,0.105,197.222,86.111,255.556,841.667,311.111,N
1678,0.345,-1.955,0.810,41.667,0.000,238.889,541.667,300.000,V
1679,0.265,1.080,0.140,41.667,61.111,311.111,838.889,297.222,N
1680,0.175,-2.030,0.910,133.333,5.556,222.222,519.444,319.444,V
1681,0.020,0.890,0.040,172.222,69.444,377.778,836.111,316.667,N
1682,0.090,-1.825,0.635,50.000,11.111,238.889,580.556,255.556,V
1683,-0.060,1.055,0.005,136.111,83.333,397.222,1036.111,455.556,N
1684,0.145,-2.080,0.835,36.111,5.556,261.111,550.000,486.111,V
1685,0.720,0.725,-0.045,197.222,66.667,336.111,477.778,72.222,V
1686,-0.030,0.945,0.100,163.889,86.111,397.222,1063.889,586.111,N
1687,0.130,-2.040,0.770,36.111,5.556,266.667,491.667,572.222,V
1688,-0.080,1.070,-0.015,183.333,63.889,352.778,844.444,352.778,N
1689,-0.060,1.040,0.070,191.667,72.222,330.556,727.778,116.667,N
1690,-0.110,0.970,0.030,147.222,86.111,363.889,775.000,47.222,N
1691,-0.215,0.840,-0.030,119.444,72.222,347.222,752.778,22.222,N
1692,-0.160,0.905,0.015,197.222,66.667,297.222,663.889,88.889,N
1693,-0.120,0.840,0.025,77.778,72.222,322.222,719.444,55.556,N
1694,-0.200,0.840,0.065,44.444,69.444,311.111,719.444,0.000,N
1695,-0.105,1.000,0.105,125.000,69.444,288.889,744.444,25.000,N
1696,-0.030,0.265,0.845,191.667,108.333,338.889,522.222,222.222,V
1697,-0.025,0.810,-0.065,175.000,66.667,291.667,733.333,211.111,N
1698,0.270,-1.895,0.610,38.889,2.778,236.111,594.444,138.889,V
1699,0.610,0.800,-0.165,186.111,72.222,369.444,419.444,175.000,V
1700,-0.055,1.110,0.065,183.333,72.222,383.333,1322.222,902.778,N
1701,0.095,-1.835,0.585,30.556,2.778,238.889,569.444,752.778,V
1702,0.000,1.230,0.065,113.889,66.667,341.667,1083.333,513.889,N
1703,0.720,-1.615,0.755,41.667,0.000,194.444,594.444,488.889,V
1704,0.215,0.860,-0.100,166.667,91.667,336.111,763.889,169.444,N
1705,0.500,-1.655,0.600,47.222,0.000,244.444,619.444,144.444,V
1706,0.050,1.255,0.090,150.000,86.111,397.222,911.111,291.667,N
1707,0.055,1.075,0.195,113.889,91.667,355.556,797.222,113.889,N
1708,0.070,0.485,1.015,172.222,116.667,336.111,605.556,191.667,V
1709,0.015,0.995,-0.030,186.111,75.000,325.000,841.667,236.111,N
1710,0.220,-1.810,0.560,44.444,2.778,216.667,550.000,291.667,V
1711,-0.150,0.860,-0.150,169.444,58.333,347.222,788.889,238.889,N
1712,0.075,-2.225,0.705,36.111,0.000,227.778,519.444,269.444,V
1713,-0.170,0.805,-0.140,191.667,75.000,383.333,850.000,330.556,N
1714,0.045,-1.990,0.580,36.111,0.000,208.333,586.111,263.889,V
1715,-0.185,1.005,-0.130,194.444,80.556,394.444,916.667,330.556,N
1716,-0.075,-2.255,0.750,36.111,2.778,227.778,544.444,372.222,V
1717,-0.170,0.845,-0.210,180.556,86.111,372.222,927.778,383.333,N
1718,-0.005,-2.215,0.775,38.889,0.000,236.111,597.222,330.556,V
1719,-0.075,0.835,-0.160,194.444,69.444,186.111,555.556,41.667,V
1720,-0.040,1.000,0.055,163.889,61.111,291.667,1025.000,469.444,N
1721,0.150,-1.870,0.605,36.111,0.000,219.444,502.778,522.222,V
1722,-0.100,1.070,-0.085,197.222,83.333,388.889,880.556,377.778,N
1723,0.125,-2.130,0.725,33.333,5.556,236.111,561.111,319.444,V
1724,-0.125,1.040,-0.125,194.444,72.222,388.889,927.778,366.667,N
1725,0.100,-2.065,0.710,38.889,0.000,252.778,600.000,327.778,V
1726,-0.115,1.035,-0.085,188.889,72.222,361.111,913.889,313.889,N
1727,0.220,-2.035,0.680,38.889,2.778,200.000,547.222,366.667,V
1728,-0.085,1.015,-0.095,175.000,66.667,361.111,772.222,225.000,N
1729,0.100,-2.105,0.775,36.111,5.556,238.889,519.444,252.778,V
1730,-0.060,1.080,-0.050,197.222,72.222,375.000,950.000,430.556,N
1731,0.245,-1.890,0.620,44.444,0.000,238.889,577.778,372.222,V
1732,0.540,0.835,-0.130,188.889,80.556,388.889,491.667,86.111,V
1733,-0.045,1.085,0.015,175.000,66.667,377.778,1138.889,647.222,N
1734,0.080,-2.115,0.760,41.667,5.556,250.000,550.000,588.889,V
1735,-0.050,1.045,0.000,158.333,72.222,358.333,838.889,288.889,N
1736,0.305,-1.860,0.700,38.889,2.778,219.444,566.667,272.222,V
1737,-0.020,1.130,-0.030,188.889,69.444,344.444,844.444,277.778,N
1738,0.225,-2.090,0.805,36.111,8.333,225.000,491.667,352.778,V
1739,-0.035,1.060,-0.020,177.778,63.889,341.667,794.444,302.778,N
1740,0.210,-1.980,0.755,41.667,2.778,230.556,544.444,250.000,V
1741,-0.105,1.040,-0.050,169.444,80.556,391.667,913.889,369.444,N
1742,0.100,-2.005,0.785,41.667,2.778,238.889,638.889,275.000,V
1743,-0.095,1.070,-0.045,197.222,75.000,366.667,886.111,247.222,N
1744,0.175,-1.945,0.685,36.111,5.556,197.222,527.778,358.333,V
1745,-0.045,0.875,-0.080,152.778,61.111,311.111,697.222,169.444,N
1746,-0.005,-2.115,0.720,38.889,0.000,227.778,502.778,194.444,V
1747,-0.140,0.985,-0.085,188.889,72.222,380.556,902.778,400.000,N
1748,0.110,-1.830,0.610,41.667,2.778,241.667,580.556,322.222,V
1749,-0.145,1.070,-0.080,125.000,83.333,361.111,997.222,416.667,N
1750,0.080,-2.105,0.760,55.556,5.556,238.889,547.222,450.000,V
1751,-0.075,0.875,-0.085,175.000,66.667,330.556,875.000,327.778,N
1752,0.130,-1.990,0.635,38.889,0.000,225.000,527.778,347.222,V
1753,0.390,0.690,-0.110,197.222,69.444,361.111,469.444,58.333,V
1754,-0.115,1.010,-0.020,169.444,61.111,311.111,1077.778,608.333,N
1755,0.230,-1.845,0.545,38.889,2.778,213.889,541.667,536.111,V
1756,-0.160,0.965,-0.140,186.111,72.222,383.333,780.556,238.889,N
1757,0.035,-2.100,0.665,44.444,2.778,222.222,555.556,225.000,V
1758,-0.075,0.950,-0.020,194.444,69.444,322.222,816.667,261.111,N
1759,0.215,-1.770,0.700,47.222,2.778,244.444,555.556,261.111,V
1760,-0.060,1.090,-0.055,191.667,72.222,383.333,936.111,380.556,N
1761,0.050,-2.160,0.740,38.889,0.000,205.556,572.222,363.889,V
1762,-0.065,0.955,-0.030,186.111,66.667,358.333,816.667,244.444,N
1763,0.365,-1.770,0.695,38.889,2.778,211.111,533.333,283.333,V
1764,0.005,1.135,-0.020,183.333,69.444,369.444,788.889,255.556,N
1765,0.075,-2.170,0.770,41.667,2.778,275.000,577.778,211.111,V
1766,-0.110,0.970,-0.110,197.222,75.000,375.000,991.667,413.889,N
1767,0.230,-1.925,0.655,47.222,0.000,247.222,633.333,358.333,V
1768,-0.065,1.045,-0.060,197.222,72.222,355.556,847.222,213.889,N
1769,0.025,-2.175,0.705,47.222,0.000,205.556,525.000,322.222,V
1770,-0.090,0.945,-0.055,169.444,58.333,338.889,808.333,283.333,N
1771,0.225,-1.950,0.710,38.889,2.778,227.778,513.889,294.444,V
1772,-0.065,1.055,-0.035,194.444,75.000,366.667,808.333,294.444,N
1773,-0.005,-2.040,0.675,52.778,0.000,213.889,600.000,208.333,V
1774,-0.140,1.030,-0.085,155.556,77.778,375.000,833.333,233.333,N
1775,0.240,1.675,-0.215,58.333,111.111,400.000,550.000,283.333,V
1776,0.010,1.175,0.070,194.444,75.000,388.889,841.667,291.667,N
1777,0.110,-1.980,0.760,55.556,5.556,250.000,591.667,250.000,V
1778,-0.035,1.110,-0.015,166.667,63.889,300.000,811.111,219.444,N
1779,0.245,-1.905,0.715,41.667,5.556,222.222,550.000,261.111,V
1780,-0.090,1.005,-0.080,163.889,63.889,305.556,727.778,177.778,N
1781,-0.005,-2.135,0.665,50.000,0.000,200.000,519.444,208.333,V
1782,-0.140,0.945,-0.100,197.222,63.889,319.444,802.778,283.333,N
1783,0.215,-1.960,0.665,33.333,2.778,247.222,547.222,255.556,V
1784,-0.095,1.045,-0.025,188.889,77.778,386.111,891.667,344.444,N
1785,-0.020,-2.145,0.720,58.333,0.000,241.667,619.444,272.222,V
1786,-0.060,0.950,-0.095,188.889,72.222,347.222,850.000,230.556,N
1787,0.270,-1.920,0.600,33.333,5.556,205.556,538.889,311.111,V
1788,-0.175,0.945,-0.150,180.556,66.667,350.000,752.778,213.889,N
1789,-0.045,-2.160,0.710,52.778,2.778,225.000,536.111,216.667,V
1790,-0.090,0.960,-0.070,186.111,75.000,352.778,830.556,294.444,N
1791,0.240,-1.775,0.675,36.111,2.778,252.778,566.667,263.889,V
1792,-0.100,1.035,-0.095,183.333,69.444,366.667,919.444,352.778,N
1793,-0.045,-2.075,0.710,47.222,8.333,222.222,558.333,361.111,V
1794,-0.080,1.005,-0.120,197.222,69.444,333.333,911.111,352.778,N
1795,0.260,-1.950,0.690,41.667,2.778,227.778,536.111,375.000,V
1796,-0.070,1.010,-0.075,169.444,72.222,366.667,755.556,219.444,N
1797,0.005,-1.910,0.675,41.667,0.000,216.667,566.667,188.889,V
1798,-0.070,1.025,-0.080,177.778,69.444,366.667,877.778,311.111,N
1799,0.020,-2.050,0.715,52.778,5.556,230.556,533.333,344.444,V
1800,-0.045,1.015,-0.045,180.556,72.222,380.556,783.333,250.000,N
1801,0.190,-1.865,0.765,44.444,0.000,263.889,608.333,175.000,V
1802,-0.005,0.915,-0.005,191.667,86.111,363.889,986.111,377.778,N
1803,0.175,-1.825,0.665,38.889,0.000,227.778,561.111,425.000,V
1804,-0.115,1.005,-0.195,172.222,63.889,369.444,788.889,227.778,N
1805,0.075,-2.040,0.530,36.111,5.556,202.778,527.778,261.111,V
1806,-0.195,0.885,-0.140,177.778,61.111,297.222,755.556,227.778,N
1807,0.025,-1.915,0.555,38.889,0.000,236.111,491.667,263.889,V
1808,-0.110,1.075,0.010,188.889,77.778,388.889,858.333,366.667,N
1809,0.150,-2.070,0.980,41.667,16.667,219.444,608.333,250.000,V
1810,-0.040,0.810,0.045,66.667,80.556,272.222,872.222,263.889,N
1811,0.150,-1.760,0.710,38.889,5.556,219.444,580.556,291.667,V
1812,0.010,0.940,0.065,138.889,77.778,372.222,786.111,205.556,N
1813,0.015,-2.085,0.815,44.444,5.556,238.889,527.778,258.333,V
1814,0.030,0.960,0.060,186.111,91.667,347.222,825.000,297.222,N
1815,0.200,-1.955,0.950,50.000,0.000,283.333,533.333,291.667,V
1816,0.100,0.940,0.345,169.444,77.778,277.778,827.778,294.444,N
1817,0.170,-1.990,0.865,55.556,2.778,197.222,538.889,288.889,V
1818,0.095,1.005,0.090,100.000,83.333,388.889,830.556,291.667,N
1819,0.410,-2.025,0.970,44.444,2.778,202.778,547.222,283.333,V
1820,-0.085,0.975,0.025,186.111,69.444,369.444,830.556,283.333,N
1821,0.035,-2.220,0.735,50.000,0.000,227.778,561.111,269.444,V
1822,-0.010,0.855,-0.080,191.667,63.889,338.889,797.222,236.111,N
1823,-0.020,-2.090,0.560,38.889,0.000,202.778,525.000,272.222,V
1824,-0.145,0.935,0.075,180.556,61.111,213.889,716.667,191.667,N
1825,-0.015,-2.265,0.680,55.556,2.778,227.778,525.000,191.667,V
1826,-0.205,0.800,-0.115,141.667,83.333,366.667,913.889,388.889,N
1827,0.075,-1.870,0.610,47.222,2.778,261.111,616.667,297.222,V
1828,-0.095,0.960,-0.110,197.222,66.667,313.889,877.778,261.111,N
1829,0.025,-2.190,0.755,55.556,0.000,202.778,508.333,369.444,V
1830,-0.045,0.735,0.185,58.333,80.556,383.333,722.222,213.889,N
1831,0.165,-1.935,0.665,41.667,2.778,197.222,569.444,152.778,V
1832,0.010,0.825,-0.115,86.111,72.222,180.556,791.667,222.222,N
1833,-0.050,-2.000,0.725,50.000,8.333,225.000,522.222,269.444,V
1834,-0.045,0.830,0.045,188.889,66.667,341.667,855.556,333.333,N
1835,-0.055,1.130,-0.075,66.667,100.000,341.667,530.556,325.000,V
1836,-0.060,1.055,0.055,141.667,75.000,361.111,852.778,322.222,N
1837,0.040,-2.185,0.695,47.222,2.778,241.667,541.667,311.111,V
1838,-0.070,0.445,0.065,94.444,75.000,352.778,869.444,327.778,N
1839,0.180,-1.875,0.525,36.111,5.556,216.667,572.222,297.222,V
1840,-0.090,0.805,0.205,191.667,88.889,275.000,783.333,211.111,N
1841,0.050,-2.085,0.820,33.333,8.333,147.222,461.111,322.222,V
1842,-0.045,0.790,-0.070,122.222,61.111,272.222,780.556,319.444,N
1843,0.125,-1.885,0.625,36.111,0.000,216.667,572.222,208.333,V
1844,0.090,0.905,0.095,127.778,72.222,388.889,744.444,172.222,N
1845,-0.030,-2.165,0.740,52.778,8.333,244.444,583.333,161.111,V
1846,-0.190,0.715,-0.130,50.000,66.667,352.778,1019.444,436.111,N
1847,-0.115,-2.265,0.695,36.111,5.556,236.111,519.444,500.000,V
1848,-0.175,0.760,-0.100,158.333,61.111,319.444,838.889,319.444,N
1849,-0.160,-2.040,0.515,58.333,2.778,211.111,502.778,336.111,V
1850,-0.170,0.900,-0.080,197.222,72.222,386.111,888.889,386.111,N
1851,0.040,-2.150,0.835,50.000,5.556,216.667,569.444,319.444,V
1852,-0.335,0.720,-0.090,72.222,83.333,383.333,925.000,355.556,N
1853,0.080,-1.820,0.725,38.889,2.778,236.111,555.556,369.444,V
1854,-0.040,0.985,0.010,183.333,75.000,386.111,888.889,333.333,N
1855,0.045,-2.040,0.785,52.778,5.556,205.556,566.667,322.222,V
1856,-0.030,0.900,-0.105,188.889,80.556,352.778,819.444,252.778,N
1857,0.030,-2.210,0.820,52.778,2.778,241.667,533.333,286.111,V
1858,-0.065,0.825,-0.020,188.889,80.556,305.556,886.111,352.778,N
1859,0.045,-2.075,0.840,61.111,0.000,191.667,527.778,358.333,V
1860,-0.050,0.710,-0.065,166.667,63.889,366.667,780.556,252.778,N
1861,0.000,-2.075,0.720,63.889,5.556,252.778,552.778,227.778,V
1862,-0.140,0.860,-0.185,136.111,88.889,394.444,1080.556,527.778,N
1863,-0.110,-2.200,0.530,186.111,5.556,219.444,600.000,480.556,V
1864,-0.295,0.695,-0.345,177.778,63.889,311.111,938.889,338.889,N
1865,-0.205,-2.230,0.620,33.333,5.556,213.889,483.333,455.556,V
1866,-0.235,0.700,-0.205,161.111,69.444,372.222,744.444,261.111,N
1867,0.095,-1.845,0.525,38.889,2.778,197.222,550.000,194.444,V
1868,0.385,0.640,-0.180,197.222,66.667,372.222,427.778,122.222,V
1869,-0.065,0.975,-0.015,197.222,75.000,388.889,1252.778,825.000,N
1870,0.040,0.945,0.000,61.111,102.778,305.556,583.333,669.444,V
1871,-0.040,1.005,0.010,144.444,69.444,338.889,983.333,400.000,N
1872,0.025,1.080,0.195,116.667,69.444,322.222,738.889,244.444,N
1873,0.075,1.035,0.225,188.889,72.222,325.000,708.333,30.556,N
1874,0.115,1.215,0.220,194.444,66.667,291.667,750.000,41.667,N
1875,0.090,1.195,0.190,127.778,69.444,316.667,677.778,72.222,N
1876,0.290,1.925,-0.020,58.333,116.667,405.556,558.333,119.444,V
1877,0.070,1.145,0.140,197.222,69.444,325.000,800.000,241.667,N
1878,0.285,-1.760,0.710,47.222,2.778,255.556,580.556,219.444,V
1879,-0.010,1.040,-0.070,180.556,66.667,369.444,850.000,269.444,N
1880,0.110,-1.995,0.760,41.667,2.778,216.667,575.000,275.000,V
1881,0.670,-1.005,0.060,30.556,0.000,208.333,538.889,36.111,V
1882,0.045,1.080,0.060,169.444,66.667,275.000,941.667,402.778,N
1883,0.260,-1.865,0.780,36.111,0.000,213.889,519.444,422.222,V
1884,0.060,1.090,0.065,175.000,61.111,366.667,736.111,216.667,N
1885,0.205,-1.890,0.780,55.556,2.778,247.222,544.444,191.667,V
1886,0.015,1.000,-0.025,166.667,86.111,402.778,877.778,333.333,N
1887,0.145,-2.110,0.785,38.889,5.556,236.111,588.889,288.889,V
