id,Pamp,Ramp,Tamp,PR,QRS,QT,RRI,dRRI,label
1,-0.395,1.295,-0.535,127.778,88.889,402.778,763.889,11.111,N
2,-0.390,1.220,-0.560,147.222,88.889,377.778,755.556,8.333,N
3,-0.430,1.260,-0.560,155.556,91.667,405.556,744.444,11.111,N
4,-0.355,1.525,-0.535,166.667,88.889,391.667,780.556,36.111,N
5,-0.375,1.370,-0.610,152.778,91.667,402.778,750.000,30.556,N
6,-0.430,1.285,-0.595,138.889,88.889,386.111,716.667,33.333,N
7,-0.405,1.270,-0.595,155.556,86.111,386.111,730.556,13.889,N
8,-0.445,1.295,-0.615,150.000,77.778,394.444,727.778,2.778,N
9,-0.485,1.375,-0.550,138.889,86.111,386.111,741.667,13.889,N
10,-0.390,1.370,-0.570,152.778,91.667,402.778,747.222,5.556,N
11,-0.410,1.320,-0.585,152.778,83.333,397.222,738.889,8.333,N
12,-0.425,1.310,-0.555,147.222,86.111,388.889,713.889,25.000,N
13,-0.395,1.355,-0.570,158.333,86.111,405.556,752.778,38.889,N
14,-0.430,1.330,-0.595,155.556,88.889,400.000,766.667,13.889,N
15,-0.445,1.400,-0.545,150.000,80.556,366.667,736.111,30.556,N
16,-0.410,1.330,-0.565,155.556,83.333,383.333,713.889,22.222,N
17,-0.440,1.315,-0.570,138.889,86.111,388.889,733.333,19.444,N
18,-0.435,1.310,-0.610,155.556,94.444,402.778,744.444,11.111,N
19,-0.460,1.315,-0.615,166.667,88.889,380.556,761.111,16.667,N
20,-0.445,1.265,-0.585,147.222,88.889,380.556,736.111,25.000,N
21,-0.425,1.310,-0.635,141.667,86.111,386.111,733.333,2.778,N
22,-0.485,1.235,-0.595,158.333,86.111,391.667,758.333,25.000,N
23,-0.455,1.345,-0.605,155.556,83.333,386.111,763.889,5.556,N
24,-0.460,1.285,-0.615,161.111,88.889,388.889,736.111,27.778,N
25,-0.445,1.230,-0.585,152.778,91.667,369.444,719.444,16.667,N
26,-0.425,1.285,-0.590,155.556,91.667,402.778,733.333,13.889,N
27,-0.430,1.285,-0.580,161.111,83.333,388.889,747.222,13.889,N
28,-0.395,1.415,-0.540,155.556,91.667,402.778,758.333,11.111,N
29,0.530,0.595,-0.635,38.889,69.444,352.778,669.444,88.889,V
30,-0.400,1.260,-0.550,152.778,88.889,402.778,794.444,125.000,N
31,-0.355,1.360,-0.495,166.667,88.889,391.667,750.000,44.444,N
32,-0.355,1.380,-0.580,166.667,83.333,383.333,763.889,13.889,N
33,-0.455,1.295,-0.550,163.889,86.111,388.889,736.111,27.778,N
34,-0.380,1.435,-0.580,141.667,91.667,388.889,736.111,0.000,N
35,-0.410,1.300,-0.575,147.222,94.444,405.556,741.667,5.556,N
36,-0.385,1.390,-0.545,152.778,80.556,397.222,750.000,8.333,N
37,-0.355,1.390,-0.505,141.667,91.667,386.111,775.000,25.000,N
38,-0.355,1.450,-0.565,138.889,83.333,383.333,761.111,13.889,N
39,-0.405,1.385,-0.500,144.444,88.889,380.556,744.444,16.667,N
40,-0.330,1.505,-0.490,155.556,86.111,400.000,744.444,0.000,N
41,-0.340,1.400,-0.525,163.889,94.444,386.111,786.111,41.667,N
42,-0.350,1.415,-0.515,158.333,86.111,386.111,763.889,22.222,N
43,-0.320,1.395,-0.530,155.556,83.333,388.889,758.333,5.556,N
44,-0.380,1.300,-0.595,161.111,77.778,391.667,763.889,5.556,N
45,-0.440,1.390,-0.530,155.556,86.111,388.889,747.222,16.667,N
46,-0.355,1.540,-0.565,169.444,91.667,402.778,772.222,25.000,N
47,-0.380,1.485,-0.570,144.444,80.556,383.333,755.556,16.667,N
48,-0.415,1.335,-0.545,150.000,88.889,386.111,738.889,16.667,N
49,-0.385,1.340,-0.615,138.889,91.667,388.889,736.111,2.778,N
50,-0.460,1.210,-0.665,155.556,88.889,405.556,780.556,44.444,N
51,-0.455,1.375,-0.580,161.111,86.111,391.667,741.667,38.889,N
52,-0.425,1.365,-0.610,147.222,88.889,402.778,725.000,16.667,N
53,-0.440,1.285,-0.615,155.556,86.111,391.667,741.667,16.667,N
54,-0.435,1.345,-0.570,155.556,80.556,391.667,741.667,0.000,N
55,-0.405,1.300,-0.620,152.778,86.111,400.000,755.556,13.889,N
56,-0.475,1.220,-0.625,144.444,86.111,402.778,763.889,8.333,N
57,-0.435,1.420,-0.540,150.000,80.556,375.000,761.111,2.778,N
58,-0.385,1.390,-0.575,161.111,88.889,405.556,761.111,0.000,N
59,-0.385,1.335,-0.550,158.333,88.889,400.000,813.889,52.778,N
60,-0.365,1.360,-0.530,158.333,80.556,380.556,772.222,41.667,N
61,-0.345,1.370,-0.525,161.111,88.889,391.667,747.222,25.000,N
62,-0.390,1.315,-0.575,169.444,86.111,402.778,772.222,25.000,N
63,-0.375,1.430,-0.480,152.778,88.889,380.556,766.667,5.556,N
64,-0.310,1.510,-0.510,155.556,91.667,402.778,777.778,11.111,N
65,-0.360,1.340,-0.535,147.222,88.889,386.111,752.778,25.000,N
66,-0.330,1.420,-0.490,150.000,83.333,372.222,741.667,11.111,N
67,-0.300,1.435,-0.505,158.333,86.111,397.222,741.667,0.000,N
68,-0.365,1.330,-0.575,152.778,88.889,405.556,761.111,19.444,N
69,-0.420,1.365,-0.515,158.333,88.889,369.444,736.111,25.000,N
70,-0.375,1.480,-0.565,155.556,88.889,400.000,702.778,33.333,N
71,-0.405,1.320,-0.590,155.556,88.889,400.000,730.556,27.778,N
72,-0.435,1.255,-0.560,152.778,88.889,405.556,733.333,2.778,N
73,-0.400,1.300,-0.580,161.111,86.111,400.000,747.222,13.889,N
74,-0.420,1.280,-0.590,147.222,86.111,377.778,747.222,0.000,N
75,-0.390,1.440,-0.510,147.222,88.889,405.556,736.111,11.111,N
76,-0.390,1.450,-0.580,144.444,86.111,388.889,725.000,11.111,N
77,-0.410,1.295,-0.590,166.667,88.889,386.111,763.889,38.889,N
78,-0.440,1.325,-0.585,152.778,91.667,405.556,747.222,16.667,N
79,-0.420,1.340,-0.530,155.556,77.778,380.556,719.444,27.778,N
80,-0.460,0.565,0.475,58.333,94.444,111.111,597.222,122.222,V
81,-0.430,1.320,-0.555,155.556,91.667,402.778,888.889,291.667,N
82,-0.350,1.480,-0.400,158.333,83.333,397.222,769.444,119.444,N
83,-0.390,1.525,-0.560,197.222,86.111,377.778,555.556,213.889,A
84,-0.385,1.280,-0.545,150.000,86.111,402.778,811.111,255.556,N
85,-0.320,1.380,-0.510,158.333,86.111,397.222,802.778,8.333,N
86,-0.375,1.380,-0.585,169.444,88.889,388.889,816.667,13.889,N
87,-0.400,1.445,-0.500,158.333,88.889,397.222,786.111,30.556,N
88,-0.310,1.575,-0.480,152.778,88.889,400.000,761.111,25.000,N
89,-0.320,1.405,-0.500,155.556,91.667,405.556,769.444,8.333,N
90,-0.340,1.465,-0.520,158.333,88.889,405.556,761.111,8.333,N
91,-0.310,1.455,-0.485,163.889,83.333,388.889,783.333,22.222,N
92,-0.320,1.385,-0.540,144.444,91.667,377.778,747.222,36.111,N
93,-0.365,1.450,-0.475,152.778,88.889,400.000,738.889,8.333,N
94,-0.320,1.565,-0.520,161.111,88.889,405.556,761.111,22.222,N
95,-0.080,0.870,-0.485,58.333,97.222,366.667,508.333,252.778,V
96,-0.370,1.430,-0.560,133.333,86.111,394.444,1011.111,502.778,N
97,-0.345,1.330,-0.510,161.111,83.333,386.111,733.333,277.778,N
98,-0.415,1.250,-0.605,150.000,88.889,377.778,750.000,16.667,N
99,-0.450,1.360,-0.575,158.333,86.111,402.778,716.667,33.333,N
100,-0.390,1.425,-0.555,152.778,88.889,405.556,755.556,38.889,N
101,-0.415,1.350,-0.615,158.333,88.889,394.444,747.222,8.333,N
102,-0.445,1.290,-0.615,138.889,86.111,380.556,741.667,5.556,N
103,-0.430,1.245,-0.630,158.333,77.778,388.889,752.778,11.111,N
104,-0.490,1.175,-0.665,150.000,88.889,402.778,788.889,36.111,N
105,-0.510,1.235,-0.570,163.889,88.889,391.667,752.778,36.111,N
106,-0.405,1.440,-0.605,163.889,86.111,386.111,738.889,13.889,N
107,-0.425,1.250,-0.630,161.111,86.111,391.667,758.333,19.444,N
108,-0.485,1.240,-0.625,169.444,88.889,405.556,747.222,11.111,N
109,-0.435,1.250,-0.615,155.556,91.667,405.556,769.444,22.222,N
110,-0.445,1.235,-0.670,150.000,88.889,402.778,769.444,0.000,N
111,-0.495,1.265,-0.580,136.111,83.333,386.111,752.778,16.667,N
112,-0.415,1.465,-0.595,150.000,91.667,388.889,741.667,11.111,N
113,-0.440,1.345,-0.620,161.111,86.111,391.667,761.111,19.444,N
114,-0.465,1.250,-0.605,161.111,83.333,383.333,736.111,25.000,N
115,-0.450,1.230,-0.610,144.444,86.111,391.667,691.667,44.444,N
116,-0.465,1.235,-0.665,161.111,86.111,394.444,736.111,44.444,N
117,-0.500,1.250,-0.595,158.333,80.556,386.111,733.333,2.778,N
118,-0.435,1.430,-0.590,158.333,88.889,388.889,738.889,5.556,N
119,-0.425,1.330,-0.570,158.333,86.111,405.556,750.000,11.111,N
120,-0.400,1.340,-0.535,147.222,88.889,405.556,733.333,16.667,N
121,-0.370,1.365,-0.520,161.111,83.333,388.889,719.444,13.889,N
122,-0.380,1.270,-0.585,161.111,86.111,388.889,758.333,38.889,N
123,-0.450,1.265,-0.555,155.556,83.333,383.333,738.889,19.444,N
124,-0.355,1.460,-0.490,155.556,86.111,405.556,722.222,16.667,N
125,-0.330,1.485,-0.515,147.222,91.667,402.778,725.000,2.778,N
126,-0.350,1.295,-0.505,147.222,88.889,405.556,741.667,16.667,N
127,-0.355,1.330,-0.485,155.556,88.889,383.333,755.556,13.889,N
128,-0.355,1.265,-0.580,152.778,91.667,377.778,741.667,13.889,N
129,-0.435,1.330,-0.585,155.556,83.333,377.778,727.778,13.889,N
130,-0.385,1.475,-0.515,133.333,80.556,386.111,719.444,8.333,N
131,-0.375,1.375,-0.550,152.778,86.111,397.222,725.000,5.556,N
132,-0.400,1.295,-0.540,147.222,88.889,377.778,758.333,33.333,N
133,-0.360,1.345,-0.540,150.000,88.889,405.556,738.889,19.444,N
134,-0.405,1.260,-0.620,147.222,88.889,380.556,725.000,13.889,N
135,-0.480,1.160,-0.620,166.667,83.333,391.667,755.556,30.556,N
136,-0.430,1.435,-0.555,161.111,88.889,388.889,736.111,19.444,N
137,-0.400,1.505,-0.590,155.556,86.111,402.778,755.556,19.444,N
138,-0.435,1.380,-0.580,152.778,77.778,386.111,736.111,19.444,N
139,-0.435,1.335,-0.505,150.000,83.333,386.111,716.667,19.444,N
140,-0.360,1.420,-0.545,158.333,77.778,388.889,727.778,11.111,N
141,-0.385,1.370,-0.560,152.778,88.889,405.556,750.000,22.222,N
142,-0.380,1.490,-0.520,144.444,88.889,400.000,725.000,25.000,N
143,-0.350,1.525,-0.520,144.444,80.556,383.333,725.000,0.000,N
144,-0.370,1.425,-0.535,147.222,86.111,402.778,713.889,11.111,N
145,-0.345,1.400,-0.490,147.222,86.111,377.778,733.333,19.444,N
146,-0.330,1.375,-0.515,152.778,88.889,405.556,738.889,5.556,N
147,-0.415,1.295,-0.555,141.667,83.333,352.778,747.222,8.333,N
148,-0.370,1.550,-0.465,152.778,88.889,405.556,719.444,27.778,N
149,-0.370,1.520,-0.515,144.444,83.333,386.111,719.444,0.000,N
150,-0.365,1.320,-0.530,163.889,88.889,388.889,766.667,47.222,N
151,-0.370,1.390,-0.470,138.889,86.111,388.889,766.667,0.000,N
152,-0.310,1.345,-0.500,152.778,88.889,405.556,752.778,13.889,N
153,-0.385,1.275,-0.570,147.222,86.111,402.778,736.111,16.667,N
154,-0.405,1.395,-0.480,147.222,88.889,377.778,755.556,19.444,N
155,-0.320,1.490,-0.510,166.667,86.111,383.333,755.556,0.000,N
156,-0.360,1.365,-0.530,158.333,91.667,397.222,761.111,5.556,N
157,-0.440,-2.440,0.385,52.778,0.000,227.778,433.333,327.778,V
158,0.385,1.670,-0.680,194.444,116.667,402.778,425.000,8.333,V
159,-0.520,1.255,-0.655,58.333,88.889,116.667,1169.444,744.444,e
160,-0.580,0.190,-0.125,58.333,100.000,363.889,569.444,600.000,V
161,-0.335,1.430,-0.610,136.111,86.111,108.333,1180.556,611.111,N
162,-0.350,1.315,-0.530,144.444,91.667,405.556,777.778,402.778,N
163,-0.350,1.460,-0.630,102.778,111.111,386.111,725.000,52.778,V
164,-0.330,1.295,-0.560,152.778,88.889,402.778,813.889,88.889,N
165,-0.445,1.260,-0.640,161.111,88.889,383.333,788.889,25.000,N
166,-0.450,1.780,-0.640,127.778,116.667,394.444,725.000,63.889,V
167,-0.350,1.405,-0.525,147.222,88.889,405.556,747.222,22.222,N
168,-0.350,1.455,-0.490,152.778,83.333,388.889,755.556,8.333,N
169,-0.290,1.610,-0.520,94.444,111.111,391.667,697.222,58.333,V
170,-0.250,1.470,-0.425,150.000,86.111,375.000,786.111,88.889,N
171,-0.280,1.290,-0.480,150.000,86.111,397.222,733.333,52.778,N
172,-0.315,1.685,-0.540,58.333,113.889,397.222,644.444,88.889,V
173,-0.250,1.595,-0.440,155.556,88.889,397.222,833.333,188.889,N
174,-0.275,1.570,-0.445,166.667,80.556,397.222,766.667,66.667,N
175,-0.440,1.750,-0.435,58.333,116.667,116.667,525.000,241.667,V
176,-0.280,1.500,-0.500,138.889,86.111,394.444,919.444,394.444,N
177,-0.290,1.395,-0.465,161.111,86.111,391.667,758.333,161.111,N
178,-0.455,1.715,-0.455,58.333,116.667,116.667,547.222,211.111,V
179,-0.325,1.535,-0.475,152.778,80.556,388.889,950.000,402.778,N
180,-0.280,1.410,-0.455,158.333,88.889,400.000,733.333,216.667,N
181,-0.405,1.750,-0.455,58.333,116.667,116.667,547.222,186.111,V
182,-0.295,1.375,-0.470,152.778,86.111,400.000,916.667,369.444,N
183,0.650,0.660,-0.565,41.667,75.000,358.333,691.667,225.000,V
184,-0.455,1.625,-0.550,58.333,116.667,116.667,616.667,75.000,V
185,-0.295,1.530,-0.460,130.556,80.556,388.889,902.778,286.111,N
186,-0.285,1.455,-0.470,158.333,86.111,391.667,730.556,172.222,N
187,-0.295,1.485,-0.480,169.444,80.556,388.889,775.000,44.444,N
188,-0.275,1.850,-0.500,152.778,116.667,397.222,725.000,50.000,F
189,-0.310,1.405,-0.490,158.333,88.889,391.667,702.778,22.222,N
190,-0.330,1.455,-0.455,152.778,86.111,400.000,722.222,19.444,N
191,-0.290,1.550,-0.480,158.333,94.444,388.889,722.222,0.000,N
192,-0.315,1.965,-0.575,152.778,116.667,405.556,738.889,16.667,F
193,-0.300,1.530,-0.430,152.778,86.111,400.000,738.889,0.000,N
194,-0.260,1.450,-0.415,147.222,86.111,372.222,700.000,38.889,N
195,-0.265,1.390,-0.460,150.000,91.667,402.778,705.556,5.556,N
196,-0.355,1.845,-0.610,161.111,116.667,400.000,747.222,41.667,F
197,-0.340,1.645,-0.475,150.000,88.889,386.111,741.667,5.556,N
198,-0.330,1.510,-0.500,144.444,88.889,383.333,700.000,41.667,N
199,-0.350,1.430,-0.530,147.222,91.667,402.778,705.556,5.556,N
200,-0.365,1.525,-0.610,111.111,116.667,405.556,694.444,11.111,F
201,-0.370,1.210,-0.550,150.000,91.667,402.778,777.778,83.333,N
202,-0.445,1.085,-0.565,144.444,83.333,388.889,752.778,25.000,N
203,-0.380,1.450,-0.515,166.667,86.111,388.889,733.333,19.444,N
204,-0.350,1.515,-0.585,108.333,116.667,402.778,680.556,52.778,F
205,-0.355,1.415,-0.510,169.444,88.889,402.778,825.000,144.444,N
206,-0.335,1.365,-0.515,147.222,86.111,383.333,763.889,61.111,N
207,-0.310,1.330,-0.500,144.444,86.111,380.556,738.889,25.000,N
208,-0.330,1.655,-0.550,127.778,116.667,405.556,713.889,25.000,F
209,-0.325,1.015,-0.600,133.333,105.556,113.889,744.444,30.556,N
210,-0.495,0.890,-0.565,144.444,97.222,402.778,741.667,2.778,N
211,-0.370,0.870,-0.475,155.556,80.556,361.111,747.222,5.556,N
212,-0.340,1.345,-0.525,152.778,113.889,405.556,694.444,52.778,N
213,-0.250,1.205,-0.270,147.222,100.000,400.000,700.000,5.556,N
214,-0.170,1.320,-0.380,158.333,116.667,116.667,733.333,33.333,N
215,-0.280,1.145,-0.515,144.444,80.556,388.889,736.111,2.778,N
216,-0.355,1.015,-0.425,136.111,88.889,386.111,702.778,33.333,N
217,-0.210,1.250,-0.405,144.444,100.000,397.222,700.000,2.778,N
218,-0.380,1.690,-0.485,63.889,116.667,116.667,472.222,227.778,V
219,-0.335,1.150,-0.540,152.778,88.889,402.778,933.333,461.111,N
220,-0.365,1.115,-0.505,158.333,91.667,400.000,730.556,202.778,N
221,-0.380,1.140,-0.540,152.778,88.889,391.667,708.333,22.222,N
222,-0.405,1.205,-0.555,141.667,86.111,386.111,705.556,2.778,N
223,-0.430,1.025,-0.615,163.889,88.889,394.444,730.556,25.000,N
224,-0.445,1.090,-0.555,152.778,88.889,402.778,755.556,25.000,N
225,-0.380,1.125,-0.545,141.667,86.111,383.333,719.444,36.111,N
226,-0.415,1.105,-0.540,144.444,88.889,380.556,705.556,13.889,N
227,-0.390,1.210,-0.575,161.111,80.556,388.889,722.222,16.667,N
228,-0.420,1.030,-0.590,147.222,97.222,386.111,711.111,11.111,N
229,-0.430,1.165,-0.425,147.222,83.333,388.889,727.778,16.667,N
230,-0.445,1.300,-0.605,197.222,86.111,347.222,536.111,191.667,A
231,-0.435,1.130,-0.585,147.222,88.889,400.000,783.333,247.222,N
232,-0.465,1.050,-0.615,127.778,80.556,388.889,766.667,16.667,N
233,-0.585,0.970,-0.605,147.222,88.889,402.778,663.889,102.778,A
234,-0.410,1.105,-0.595,138.889,83.333,383.333,850.000,186.111,N
235,-0.455,1.095,-0.540,136.111,86.111,386.111,733.333,116.667,N
236,-0.390,1.150,-0.585,158.333,75.000,386.111,722.222,11.111,N
237,-0.460,1.080,-0.595,144.444,88.889,402.778,766.667,44.444,N
238,-0.425,1.070,-0.555,141.667,88.889,386.111,752.778,13.889,N
239,-0.400,1.120,-0.575,144.444,88.889,372.222,769.444,16.667,N
240,-0.430,1.110,-0.540,152.778,88.889,372.222,738.889,30.556,N
241,-0.380,1.220,-0.560,138.889,86.111,386.111,719.444,19.444,N
242,-0.420,1.135,-0.580,152.778,91.667,402.778,741.667,22.222,N
243,-0.380,1.190,-0.515,138.889,88.889,400.000,752.778,11.111,N
244,-0.345,1.245,-0.500,141.667,86.111,380.556,713.889,38.889,N
245,-0.360,1.185,-0.515,141.667,91.667,383.333,700.000,13.889,N
246,-0.345,1.340,-0.535,147.222,88.889,377.778,733.333,33.333,N
247,-0.400,1.180,-0.555,150.000,86.111,383.333,733.333,0.000,N
248,-0.470,1.150,-0.575,183.333,86.111,397.222,613.889,119.444,A
249,-0.495,1.140,-0.575,138.889,86.111,391.667,783.333,169.444,N
250,-0.380,1.215,-0.495,138.889,91.667,386.111,766.667,16.667,N
251,-0.265,0.620,0.480,58.333,94.444,111.111,616.667,150.000,V
252,-0.325,1.235,-0.550,147.222,88.889,402.778,894.444,277.778,N
253,-0.420,1.145,-0.630,152.778,80.556,388.889,747.222,147.222,N
254,-0.520,0.940,-0.770,152.778,91.667,394.444,736.111,11.111,N
255,-0.630,0.885,-0.805,152.778,88.889,405.556,755.556,19.444,N
256,-0.635,0.950,-0.765,161.111,86.111,394.444,744.444,11.111,N
257,-0.580,0.975,-0.710,150.000,88.889,400.000,755.556,11.111,N
258,-0.565,0.960,-0.690,147.222,75.000,383.333,741.667,13.889,N
259,-0.510,1.060,-0.600,138.889,88.889,388.889,744.444,2.778,N
260,-0.450,1.095,-0.545,152.778,86.111,394.444,725.000,19.444,N
261,-0.390,1.135,-0.540,158.333,86.111,400.000,761.111,36.111,N
262,-0.380,1.230,-0.485,158.333,91.667,394.444,747.222,13.889,N
263,-0.335,1.230,-0.495,138.889,91.667,388.889,736.111,11.111,N
264,-0.330,1.190,-0.470,152.778,88.889,405.556,747.222,11.111,N
265,-0.325,1.145,-0.490,138.889,91.667,405.556,725.000,22.222,N
266,-0.330,1.195,-0.465,152.778,75.000,386.111,750.000,25.000,N
267,-0.335,1.215,-0.470,133.333,86.111,388.889,738.889,11.111,N
268,-0.325,1.215,-0.480,158.333,88.889,400.000,730.556,8.333,N
269,-0.340,1.190,-0.520,152.778,88.889,405.556,719.444,11.111,N
270,-0.380,1.105,-0.525,147.222,94.444,405.556,766.667,47.222,N
271,-0.370,1.130,-0.500,155.556,88.889,400.000,747.222,19.444,N
272,-0.345,1.240,-0.500,144.444,86.111,380.556,744.444,2.778,N
273,-0.375,1.215,-0.515,152.778,86.111,386.111,727.778,16.667,N
274,-0.385,1.215,-0.490,130.556,88.889,394.444,730.556,2.778,N
275,-0.370,1.210,-0.545,150.000,88.889,405.556,752.778,22.222,N
276,-0.410,1.145,-0.555,161.111,91.667,386.111,755.556,2.778,N
277,-0.385,1.075,-0.500,150.000,91.667,405.556,716.667,38.889,N
278,-0.360,1.130,-0.520,138.889,86.111,388.889,719.444,2.778,N
279,-0.415,1.075,-0.605,147.222,88.889,380.556,772.222,52.778,N
280,-0.425,1.130,-0.570,147.222,91.667,377.778,769.444,2.778,N
281,-0.430,1.120,-0.605,150.000,86.111,372.222,741.667,27.778,N
282,-0.470,1.045,-0.630,150.000,91.667,402.778,733.333,8.333,N
283,-0.480,1.010,-0.610,150.000,86.111,388.889,741.667,8.333,N
284,-0.450,1.100,-0.550,163.889,86.111,380.556,741.667,0.000,N
285,-0.405,1.155,-0.575,158.333,91.667,400.000,755.556,13.889,N
286,-0.455,1.155,-0.570,158.333,77.778,383.333,738.889,16.667,N
287,-0.425,1.175,-0.590,152.778,86.111,405.556,727.778,11.111,N
288,-0.470,1.085,-0.630,141.667,88.889,386.111,747.222,19.444,N
289,-0.470,1.095,-0.600,138.889,88.889,383.333,766.667,19.444,N
290,-0.460,1.080,-0.635,158.333,88.889,366.667,722.222,44.444,N
291,-0.500,1.050,-0.640,155.556,88.889,394.444,702.778,19.444,N
292,-0.480,1.110,-0.600,147.222,88.889,377.778,722.222,19.444,N
293,-0.440,1.120,-0.590,150.000,91.667,405.556,700.000,22.222,N
294,-0.480,1.060,-0.615,144.444,88.889,388.889,725.000,25.000,N
295,-0.460,1.095,-0.595,136.111,91.667,386.111,727.778,2.778,N
296,-0.470,1.055,-0.620,138.889,83.333,383.333,733.333,5.556,N
297,-0.500,0.905,-0.575,152.778,102.778,394.444,727.778,5.556,N
298,-0.475,0.940,-0.640,161.111,108.333,391.667,772.222,44.444,N
299,-0.485,1.015,-0.640,152.778,113.889,397.222,752.778,19.444,N
300,-0.470,0.935,-0.630,144.444,100.000,386.111,727.778,25.000,N
301,-0.445,0.900,-0.605,155.556,116.667,402.778,744.444,16.667,N
302,-0.550,0.900,-0.565,55.556,94.444,394.444,605.556,138.889,A
303,-0.490,1.100,-0.580,102.778,97.222,391.667,838.889,233.333,e
304,-0.400,1.130,-0.505,150.000,88.889,405.556,819.444,19.444,N
305,-0.350,1.215,-0.490,147.222,86.111,383.333,752.778,66.667,N
306,-0.360,1.150,-0.470,144.444,86.111,383.333,736.111,16.667,N
307,-0.315,1.160,-0.455,161.111,108.333,391.667,763.889,27.778,N
308,-0.285,1.150,-0.460,147.222,91.667,377.778,738.889,25.000,N
309,-0.335,1.005,-0.455,144.444,97.222,405.556,708.333,30.556,N
310,-0.325,1.020,-0.505,147.222,116.667,402.778,702.778,5.556,N
311,-0.350,1.095,-0.520,141.667,102.778,386.111,719.444,16.667,N
312,-0.380,1.080,-0.540,144.444,91.667,405.556,711.111,8.333,N
313,-0.395,1.140,-0.560,155.556,88.889,391.667,750.000,38.889,N
314,-0.430,1.060,-0.605,147.222,91.667,377.778,713.889,36.111,N
315,-0.450,1.130,-0.595,158.333,77.778,388.889,711.111,2.778,N
316,-0.465,1.165,-0.600,152.778,91.667,397.222,741.667,30.556,N
317,-0.465,1.105,-0.630,138.889,91.667,383.333,741.667,0.000,N
318,-0.455,1.005,-0.585,138.889,91.667,386.111,733.333,8.333,N
319,-0.450,0.995,-0.575,150.000,94.444,405.556,711.111,22.222,N
320,-0.450,1.225,-0.575,158.333,83.333,394.444,744.444,33.333,N
321,-0.445,1.160,-0.550,144.444,94.444,394.444,741.667,2.778,N
322,-0.420,1.155,-0.555,161.111,91.667,391.667,766.667,25.000,N
323,-0.425,1.155,-0.540,158.333,88.889,394.444,727.778,38.889,N
324,-0.400,1.180,-0.530,158.333,86.111,394.444,730.556,2.778,N
325,-0.395,1.145,-0.545,150.000,91.667,391.667,741.667,11.111,N
326,-0.405,1.130,-0.560,150.000,91.667,380.556,750.000,8.333,N
327,-0.420,1.245,-0.540,150.000,86.111,372.222,730.556,19.444,N
328,-0.385,1.260,-0.575,155.556,83.333,397.222,711.111,19.444,N
329,-0.435,1.135,-0.580,155.556,91.667,397.222,736.111,25.000,N
330,-0.435,1.135,-0.580,150.000,94.444,405.556,719.444,16.667,N
331,-0.420,1.150,-0.590,161.111,91.667,391.667,755.556,36.111,N
332,-0.445,1.110,-0.585,147.222,88.889,380.556,713.889,41.667,N
333,-0.435,1.175,-0.580,150.000,83.333,363.889,708.333,5.556,N
334,-0.445,1.055,-0.600,144.444,94.444,388.889,719.444,11.111,N
335,-0.435,1.130,-0.570,166.667,88.889,386.111,761.111,41.667,N
336,-0.415,1.070,-0.550,155.556,91.667,366.667,719.444,41.667,N
337,-0.420,1.070,-0.560,155.556,91.667,377.778,694.444,25.000,N
338,-0.450,1.185,-0.525,152.778,88.889,400.000,713.889,19.444,N
339,-0.410,1.180,-0.575,147.222,91.667,383.333,713.889,0.000,N
340,-0.405,1.160,-0.545,158.333,97.222,402.778,747.222,33.333,N
341,-0.410,1.060,-0.535,147.222,83.333,400.000,733.333,13.889,N
342,-0.385,1.170,-0.535,150.000,86.111,377.778,719.444,13.889,N
343,-0.430,1.140,-0.595,147.222,91.667,405.556,708.333,11.111,N
344,-0.475,1.125,-0.585,152.778,88.889,405.556,766.667,58.333,N
345,-0.475,1.195,-0.625,152.778,91.667,380.556,733.333,33.333,N
346,-0.470,1.085,-0.650,147.222,91.667,405.556,700.000,33.333,N
347,-0.485,1.055,-0.640,158.333,88.889,400.000,741.667,41.667,N
348,-0.475,1.100,-0.590,147.222,91.667,397.222,736.111,5.556,N
349,-0.460,1.125,-0.630,144.444,88.889,383.333,747.222,11.111,N
350,-0.485,1.130,-0.605,150.000,88.889,402.778,752.778,5.556,N
351,-0.470,1.205,-0.605,141.667,80.556,386.111,738.889,13.889,N
352,-0.455,1.085,-0.590,155.556,88.889,402.778,719.444,19.444,N
353,-0.430,1.105,-0.560,163.889,100.000,386.111,750.000,30.556,N
354,-0.385,1.150,-0.530,147.222,91.667,377.778,716.667,33.333,N
355,-0.405,1.105,-0.530,147.222,88.889,397.222,711.111,5.556,N
356,-0.390,1.275,-0.505,141.667,83.333,391.667,708.333,2.778,N
357,-0.380,1.170,-0.550,147.222,88.889,400.000,725.000,16.667,N
358,-0.390,1.215,-0.555,141.667,88.889,386.111,716.667,8.333,N
359,-0.410,1.155,-0.545,144.444,86.111,380.556,733.333,16.667,N
360,-0.410,1.220,-0.560,141.667,91.667,388.889,700.000,33.333,N
361,-0.425,1.175,-0.530,150.000,86.111,377.778,705.556,5.556,N
362,-0.370,1.280,-0.535,138.889,86.111,388.889,725.000,19.444,N
363,-0.410,1.180,-0.535,147.222,86.111,380.556,736.111,11.111,N
364,-0.380,1.175,-0.515,133.333,88.889,391.667,727.778,8.333,N
365,-0.385,1.170,-0.535,144.444,88.889,380.556,713.889,13.889,N
366,-0.385,1.180,-0.560,147.222,88.889,383.333,733.333,19.444,N
367,-0.445,1.165,-0.585,144.444,91.667,380.556,730.556,2.778,N
368,-0.385,1.185,-0.550,155.556,88.889,402.778,744.444,13.889,N
369,-0.425,1.260,-0.560,144.444,91.667,386.111,716.667,27.778,N
370,-0.380,1.185,-0.525,152.778,86.111,405.556,716.667,0.000,N
371,-0.375,1.185,-0.500,150.000,94.444,386.111,722.222,5.556,N
372,-0.355,1.170,-0.520,158.333,88.889,400.000,750.000,27.778,N
373,-0.400,1.070,-0.555,152.778,91.667,380.556,727.778,22.222,N
374,-0.430,1.195,-0.520,152.778,94.444,400.000,713.889,13.889,N
375,-0.510,1.345,-0.505,72.222,88.889,380.556,577.778,136.111,A
376,-0.360,1.245,-0.535,138.889,88.889,391.667,830.556,252.778,N
377,0.545,0.430,-0.515,50.000,80.556,369.444,677.778,152.778,V
378,-0.280,1.305,-0.455,136.111,80.556,383.333,786.111,108.333,N
379,-0.320,1.160,-0.465,150.000,75.000,358.333,719.444,66.667,N
380,-0.340,1.220,-0.455,147.222,91.667,400.000,702.778,16.667,N
381,-0.325,1.190,-0.460,166.667,105.556,394.444,741.667,38.889,N
382,-0.330,1.105,-0.475,152.778,94.444,397.222,722.222,19.444,N
383,-0.315,1.170,-0.445,133.333,86.111,383.333,716.667,5.556,N
384,-0.325,1.150,-0.490,155.556,88.889,386.111,733.333,16.667,N
385,-0.380,1.140,-0.530,130.556,80.556,386.111,727.778,5.556,N
386,-0.375,1.300,-0.495,163.889,77.778,391.667,730.556,2.778,N
387,-0.365,1.210,-0.505,161.111,86.111,383.333,741.667,11.111,N
388,-0.370,1.250,-0.515,150.000,88.889,405.556,713.889,27.778,N
389,-0.380,1.130,-0.490,144.444,88.889,405.556,705.556,8.333,N
390,-0.350,1.130,-0.510,152.778,86.111,394.444,736.111,30.556,N
391,-0.380,1.090,-0.575,147.222,86.111,377.778,761.111,25.000,N
392,-0.440,1.205,-0.530,147.222,88.889,380.556,727.778,33.333,N
393,-0.380,1.195,-0.530,158.333,86.111,402.778,711.111,16.667,N
394,-0.385,1.160,-0.540,155.556,91.667,397.222,733.333,22.222,N
395,-0.400,1.220,-0.550,161.111,80.556,380.556,711.111,22.222,N
396,-0.395,1.105,-0.500,166.667,88.889,402.778,741.667,30.556,N
397,-0.420,1.165,-0.600,172.222,91.667,383.333,566.667,175.000,A
398,-0.485,1.190,-0.600,155.556,83.333,388.889,791.667,225.000,N
399,-0.420,1.215,-0.575,150.000,91.667,380.556,750.000,41.667,N
400,-0.420,1.220,-0.565,163.889,83.333,391.667,783.333,33.333,N
401,-0.415,1.120,-0.535,155.556,86.111,394.444,761.111,22.222,N
402,-0.410,1.125,-0.565,119.444,88.889,377.778,719.444,41.667,N
403,-0.425,1.200,-0.560,141.667,86.111,380.556,727.778,8.333,N
404,-0.395,1.260,-0.540,130.556,86.111,391.667,722.222,5.556,N
405,-0.385,1.225,-0.530,152.778,72.222,388.889,730.556,8.333,N
406,-0.375,1.195,-0.520,155.556,88.889,397.222,730.556,0.000,N
407,-0.350,1.260,-0.485,152.778,83.333,391.667,702.778,27.778,N
408,-0.350,1.170,-0.510,150.000,94.444,400.000,700.000,2.778,N
409,-0.385,1.265,-0.490,155.556,88.889,402.778,730.556,30.556,N
410,-0.335,1.230,-0.475,152.778,91.667,402.778,738.889,8.333,N
411,-0.330,1.180,-0.465,147.222,88.889,372.222,725.000,13.889,N
412,-0.310,1.100,-0.455,155.556,91.667,400.000,705.556,19.444,N
413,-0.305,1.110,-0.440,144.444,100.000,386.111,719.444,13.889,N
414,-0.305,1.165,-0.455,166.667,88.889,386.111,727.778,8.333,N
415,-0.310,1.225,-0.420,155.556,88.889,402.778,719.444,8.333,N
416,-0.280,1.370,-0.455,150.000,86.111,400.000,727.778,8.333,N
417,0.545,-1.755,0.085,36.111,5.556,238.889,527.778,200.000,V
418,-0.325,1.135,-0.585,133.333,100.000,113.889,927.778,400.000,N
419,-0.355,1.150,-0.535,152.778,86.111,369.444,780.556,147.222,N
420,-0.425,1.115,-0.605,155.556,88.889,405.556,741.667,38.889,N
421,-0.455,1.190,-0.515,138.889,88.889,380.556,713.889,27.778,N
422,-0.385,1.225,-0.535,158.333,83.333,391.667,727.778,13.889,N
423,-0.375,1.195,-0.530,141.667,88.889,402.778,719.444,8.333,N
424,-0.380,1.160,-0.535,155.556,88.889,405.556,736.111,16.667,N
425,-0.425,1.055,-0.565,144.444,77.778,391.667,736.111,0.000,N
426,-0.435,1.225,-0.570,147.222,86.111,388.889,719.444,16.667,N
427,-0.385,1.270,-0.510,150.000,88.889,400.000,716.667,2.778,N
428,-0.365,1.245,-0.535,158.333,113.889,397.222,736.111,19.444,N
429,-0.395,1.160,-0.525,141.667,88.889,405.556,725.000,11.111,N
430,-0.395,1.170,-0.570,138.889,80.556,380.556,713.889,11.111,N
431,-0.440,1.080,-0.610,141.667,88.889,377.778,713.889,0.000,N
432,-0.470,1.225,-0.560,141.667,86.111,405.556,711.111,2.778,N
433,-0.405,1.140,-0.530,152.778,88.889,400.000,733.333,22.222,N
434,-0.405,1.165,-0.540,141.667,97.222,405.556,752.778,19.444,N
435,-0.385,1.195,-0.535,158.333,88.889,386.111,725.000,27.778,N
436,-0.415,1.125,-0.560,147.222,88.889,402.778,719.444,5.556,N
437,-0.445,1.205,-0.580,163.889,88.889,386.111,747.222,27.778,N
438,-0.400,1.250,-0.520,152.778,88.889,377.778,752.778,5.556,N
439,-0.370,1.215,-0.515,150.000,91.667,375.000,730.556,22.222,N
440,-0.355,1.145,-0.530,152.778,91.667,377.778,702.778,27.778,N
441,-0.385,1.145,-0.550,152.778,88.889,386.111,725.000,22.222,N
442,-0.430,1.185,-0.550,147.222,88.889,377.778,702.778,22.222,N
443,-0.365,1.230,-0.505,152.778,88.889,405.556,741.667,38.889,N
444,-0.375,1.195,-0.510,133.333,91.667,388.889,713.889,27.778,N
445,-0.380,1.180,-0.510,150.000,86.111,369.444,719.444,5.556,N
446,-0.365,1.210,-0.555,144.444,97.222,383.333,725.000,5.556,N
447,-0.415,1.245,-0.560,158.333,83.333,386.111,755.556,30.556,N
448,-0.420,1.250,-0.525,158.333,91.667,400.000,725.000,30.556,N
449,-0.395,1.190,-0.535,158.333,100.000,388.889,708.333,16.667,N
450,-0.400,1.055,-0.530,163.889,100.000,383.333,741.667,33.333,N
451,-0.395,0.835,-0.535,150.000,108.333,386.111,733.333,8.333,N
452,-0.415,0.695,-0.565,158.333,116.667,405.556,750.000,16.667,N
453,-0.420,0.865,-0.545,144.444,88.889,380.556,752.778,2.778,N
454,-0.370,1.155,-0.515,136.111,100.000,380.556,733.333,19.444,N
455,-0.375,1.110,-0.525,158.333,113.889,394.444,725.000,8.333,N
456,-0.360,1.135,-0.480,169.444,91.667,383.333,772.222,47.222,N
457,-0.335,1.230,-0.535,161.111,91.667,397.222,725.000,47.222,N
458,-0.405,1.235,-0.575,158.333,83.333,377.778,708.333,16.667,N
459,-0.460,1.185,-0.620,161.111,88.889,391.667,727.778,19.444,N
460,-0.560,1.170,-0.545,155.556,88.889,400.000,727.778,0.000,N
461,-0.355,1.435,-0.430,147.222,86.111,386.111,750.000,22.222,N
462,-0.270,1.470,-0.395,144.444,88.889,383.333,736.111,13.889,N
463,-0.275,1.400,-0.450,158.333,80.556,355.556,722.222,13.889,N
464,-0.300,1.320,-0.440,155.556,91.667,394.444,700.000,22.222,N
465,-0.295,1.285,-0.440,163.889,83.333,388.889,736.111,36.111,N
466,-0.310,1.315,-0.440,152.778,91.667,402.778,725.000,11.111,N
467,-0.310,1.360,-0.460,138.889,75.000,386.111,702.778,22.222,N
468,-0.315,1.420,-0.455,138.889,108.333,394.444,702.778,0.000,N
469,-0.315,1.305,-0.465,147.222,88.889,405.556,722.222,19.444,N
470,-0.310,1.290,-0.465,152.778,88.889,394.444,741.667,19.444,N
471,-0.340,1.310,-0.480,144.444,86.111,388.889,736.111,5.556,N
472,-0.350,1.285,-0.425,155.556,86.111,402.778,725.000,11.111,N
473,-0.420,1.425,-0.530,177.778,91.667,372.222,530.556,194.444,A
474,-0.430,1.315,-0.570,141.667,108.333,397.222,813.889,283.333,N
475,-0.375,1.265,-0.520,144.444,88.889,405.556,786.111,27.778,N
476,-0.375,1.285,-0.525,136.111,77.778,391.667,752.778,33.333,N
477,-0.360,1.210,-0.515,144.444,88.889,377.778,747.222,5.556,N
478,-0.375,1.330,-0.535,138.889,88.889,388.889,755.556,8.333,N
479,-0.385,1.340,-0.535,138.889,86.111,388.889,766.667,11.111,N
480,-0.390,1.260,-0.565,158.333,80.556,380.556,763.889,2.778,N
481,-0.420,1.185,-0.545,144.444,88.889,388.889,733.333,30.556,N
482,-0.400,1.195,-0.500,152.778,91.667,397.222,727.778,5.556,N
483,-0.350,1.260,-0.490,163.889,88.889,397.222,769.444,41.667,N
484,-0.345,1.290,-0.465,133.333,88.889,386.111,738.889,30.556,N
485,-0.305,1.340,-0.475,138.889,86.111,383.333,738.889,0.000,N
486,-0.335,1.320,-0.475,141.667,88.889,388.889,730.556,8.333,N
487,-0.340,1.210,-0.500,127.778,86.111,391.667,725.000,5.556,N
488,-0.375,1.240,-0.535,152.778,83.333,386.111,736.111,11.111,N
489,-0.420,1.130,-0.510,158.333,94.444,380.556,747.222,11.111,N
490,-0.380,1.240,-0.520,144.444,88.889,383.333,702.778,44.444,N
491,-0.365,1.215,-0.495,147.222,88.889,405.556,711.111,8.333,N
492,-0.350,1.225,-0.480,152.778,91.667,402.778,727.778,16.667,N
493,-0.320,1.250,-0.470,141.667,86.111,383.333,755.556,27.778,N
494,-0.340,1.215,-0.510,144.444,88.889,377.778,741.667,13.889,N
495,-0.355,1.300,-0.505,158.333,83.333,388.889,716.667,25.000,N
496,-0.385,1.245,-0.520,152.778,88.889,380.556,747.222,30.556,N
497,-0.370,1.250,-0.515,152.778,91.667,402.778,713.889,33.333,N
498,-0.370,1.275,-0.550,161.111,88.889,372.222,736.111,22.222,N
499,-0.525,1.370,-0.550,58.333,86.111,388.889,541.667,194.444,A
500,-0.495,1.250,-0.495,58.333,91.667,405.556,786.111,244.444,e
501,-0.345,1.295,-0.495,136.111,86.111,391.667,844.444,58.333,N
502,-0.350,1.240,-0.535,152.778,91.667,394.444,794.444,50.000,N
503,-0.405,1.165,-0.570,144.444,91.667,380.556,752.778,41.667,N
504,-0.385,1.085,-0.605,161.111,88.889,391.667,722.222,30.556,N
505,-0.570,1.190,-0.535,58.333,88.889,400.000,694.444,27.778,A
506,-0.400,1.235,-0.595,141.667,91.667,391.667,780.556,86.111,N
507,-0.415,1.160,-0.535,161.111,88.889,391.667,758.333,22.222,N
508,-0.400,1.200,-0.505,158.333,88.889,394.444,733.333,25.000,N
509,-0.355,1.205,-0.530,141.667,83.333,350.000,744.444,11.111,N
510,-0.415,1.090,-0.590,147.222,91.667,377.778,738.889,5.556,N
511,-0.430,1.265,-0.530,158.333,91.667,400.000,780.556,41.667,N
512,-0.395,1.265,-0.550,152.778,88.889,383.333,755.556,25.000,N
513,-0.410,1.185,-0.540,141.667,86.111,386.111,725.000,30.556,N
514,-0.380,1.240,-0.515,163.889,91.667,388.889,763.889,38.889,N
515,-0.385,1.160,-0.570,155.556,80.556,386.111,761.111,2.778,N
516,-0.440,1.195,-0.535,152.778,86.111,397.222,794.444,33.333,N
517,-0.380,1.270,-0.530,138.889,83.333,394.444,775.000,19.444,N
518,-0.395,1.145,-0.565,152.778,88.889,363.889,761.111,13.889,N
519,-0.415,1.115,-0.590,144.444,91.667,402.778,727.778,33.333,N
520,-0.490,1.040,-0.645,152.778,88.889,383.333,758.333,30.556,N
521,-0.505,1.200,-0.600,138.889,86.111,388.889,725.000,33.333,N
522,-0.470,1.110,-0.645,141.667,86.111,377.778,705.556,19.444,N
523,-0.495,1.030,-0.635,152.778,91.667,394.444,713.889,8.333,N
524,-0.450,1.135,-0.575,136.111,80.556,383.333,716.667,2.778,N
525,-0.395,1.090,-0.545,141.667,86.111,383.333,736.111,19.444,N
526,-0.410,1.020,-0.530,141.667,105.556,383.333,727.778,8.333,N
527,-0.365,1.090,-0.385,138.889,91.667,380.556,711.111,16.667,N
528,-0.200,1.385,-0.260,133.333,88.889,383.333,691.667,19.444,N
529,-0.110,1.360,-0.250,150.000,91.667,405.556,711.111,19.444,N
530,-0.150,1.420,-0.370,144.444,102.778,105.556,730.556,19.444,N
531,-0.280,1.040,-0.385,147.222,91.667,402.778,711.111,19.444,N
532,-0.250,1.125,-0.400,150.000,91.667,375.000,697.222,13.889,N
533,-0.295,1.130,-0.430,155.556,86.111,391.667,713.889,16.667,N
534,-0.295,1.055,-0.380,150.000,91.667,397.222,691.667,22.222,N
535,-0.225,1.180,-0.340,144.444,91.667,388.889,719.444,27.778,N
536,-0.155,1.355,-0.270,133.333,86.111,380.556,702.778,16.667,N
537,-0.160,1.280,-0.305,138.889,91.667,383.333,697.222,5.556,N
538,-0.180,1.240,-0.295,147.222,88.889,397.222,686.111,11.111,N
539,-0.180,1.260,-0.355,147.222,91.667,405.556,719.444,33.333,N
540,-0.235,1.220,-0.380,138.889,88.889,380.556,700.000,19.444,N
541,-0.300,1.135,-0.520,144.444,88.889,375.000,700.000,0.000,N
542,-0.430,0.990,-0.565,133.333,88.889,394.444,686.111,13.889,N
543,-0.435,1.035,-0.580,130.556,88.889,363.889,697.222,11.111,N
544,-0.490,0.985,-0.565,163.889,88.889,388.889,702.778,5.556,N
545,-0.425,1.185,-0.580,166.667,86.111,383.333,705.556,2.778,N
546,-0.485,0.830,-0.640,130.556,80.556,350.000,697.222,8.333,N
547,-0.530,0.765,-0.665,144.444,88.889,377.778,683.333,13.889,N
548,-0.530,0.700,-0.660,147.222,94.444,405.556,702.778,19.444,N
549,-0.540,0.695,-0.695,161.111,88.889,369.444,741.667,38.889,N
550,-0.540,0.825,-0.635,127.778,88.889,397.222,702.778,38.889,N
551,-0.485,0.920,-0.550,133.333,80.556,383.333,705.556,2.778,N
552,-0.475,0.915,-0.630,138.889,83.333,388.889,697.222,8.333,N
553,-0.490,0.845,-0.580,130.556,83.333,388.889,700.000,2.778,N
554,-0.430,1.020,-0.550,133.333,86.111,391.667,702.778,2.778,N
555,-0.405,1.050,-0.505,152.778,88.889,369.444,722.222,19.444,N
556,-0.405,1.015,-0.600,150.000,88.889,400.000,669.444,52.778,N
557,-0.465,0.990,-0.560,130.556,86.111,397.222,675.000,5.556,N
558,-0.380,1.125,-0.435,136.111,83.333,383.333,705.556,30.556,N
559,-0.295,1.200,-0.380,147.222,83.333,386.111,727.778,22.222,N
560,-0.235,1.275,-0.385,158.333,80.556,383.333,702.778,25.000,N
561,-0.265,1.165,-0.435,147.222,94.444,400.000,686.111,16.667,N
562,-0.275,1.130,-0.405,152.778,91.667,400.000,700.000,13.889,N
563,-0.245,1.205,-0.325,150.000,91.667,405.556,700.000,0.000,N
564,-0.200,1.245,-0.330,150.000,91.667,397.222,711.111,11.111,N
565,-0.180,1.305,-0.290,150.000,88.889,372.222,730.556,19.444,N
566,-0.195,1.255,-0.290,152.778,88.889,397.222,700.000,30.556,N
567,-0.240,1.240,-0.185,144.444,116.667,405.556,691.667,8.333,N
568,-0.130,1.405,0.025,158.333,116.667,405.556,736.111,44.444,N
569,0.315,1.905,0.145,136.111,111.111,113.889,719.444,16.667,N
570,0.175,1.655,-0.125,144.444,116.667,116.667,713.889,5.556,N
571,-0.170,1.310,-0.450,133.333,111.111,111.111,683.333,30.556,N
572,-0.415,1.080,-0.645,130.556,108.333,150.000,719.444,36.111,N
573,-0.555,0.975,-0.730,155.556,116.667,116.667,697.222,22.222,N
574,-0.645,0.810,-0.865,152.778,116.667,402.778,705.556,8.333,N
575,-0.690,0.680,-0.625,155.556,116.667,397.222,691.667,13.889,N
576,-0.540,0.990,-0.770,133.333,116.667,363.889,688.889,2.778,N
577,-0.620,0.885,-0.785,141.667,108.333,380.556,702.778,13.889,N
578,-0.740,0.460,-0.930,158.333,102.778,-426355.556,741.667,38.889,N
579,-0.930,0.590,-0.930,427130.556,111.111,-427075.000,716.667,25.000,N
580,-0.930,0.145,-0.930,427816.667,116.667,-427758.333,686.111,30.556,N
581,-0.930,-0.090,-0.930,428522.222,86.111,-428463.889,705.556,19.444,N
582,-0.930,-0.340,-0.465,429141.667,88.889,108.333,619.444,86.111,V
583,-0.740,0.420,-0.590,150.000,88.889,405.556,813.889,194.444,N
584,-0.275,0.650,-0.290,138.889,86.111,388.889,719.444,94.444,N
585,-0.335,0.720,-0.235,52.778,75.000,358.333,650.000,69.444,N
586,-0.270,0.715,-0.320,138.889,88.889,375.000,752.778,102.778,N
587,-0.140,0.670,-0.270,158.333,80.556,363.889,725.000,27.778,N
588,-0.220,0.850,-0.270,141.667,80.556,394.444,700.000,25.000,N
589,-0.045,1.020,-0.065,136.111,88.889,372.222,708.333,8.333,N
590,0.135,1.110,0.225,141.667,88.889,383.333,672.222,36.111,N
591,0.330,1.345,0.110,127.778,88.889,405.556,697.222,25.000,N
592,0.250,1.390,0.120,147.222,75.000,366.667,686.111,11.111,N
593,0.055,1.100,-0.090,127.778,80.556,119.444,669.444,16.667,A
594,-0.270,0.555,-0.345,138.889,88.889,350.000,708.333,38.889,N
595,-0.285,0.480,-0.450,141.667,86.111,341.667,680.556,27.778,N
596,-0.425,0.325,-0.540,144.444,91.667,375.000,683.333,2.778,N
597,-0.475,0.200,-0.495,150.000,75.000,355.556,727.778,44.444,N
598,-0.470,0.525,-0.590,144.444,77.778,355.556,697.222,30.556,N
599,-0.565,0.350,-0.625,136.111,83.333,347.222,683.333,13.889,N
600,-0.520,0.400,-0.630,150.000,77.778,386.111,686.111,2.778,N
601,-0.575,0.155,-0.495,127.778,88.889,344.444,688.889,2.778,N
602,-0.490,0.435,-0.380,138.889,88.889,397.222,697.222,8.333,N
603,-0.200,0.540,-0.275,152.778,88.889,361.111,711.111,13.889,N
604,-0.250,0.570,-0.375,152.778,88.889,333.333,672.222,38.889,N
605,-0.380,0.500,-0.315,133.333,91.667,372.222,658.333,13.889,N
606,-0.260,0.640,-0.280,155.556,91.667,380.556,716.667,58.333,N
607,-0.215,0.505,-0.300,147.222,88.889,322.222,711.111,5.556,N
608,-0.320,0.690,-0.395,152.778,88.889,327.778,694.444,16.667,N
609,-0.340,0.510,-0.620,144.444,86.111,327.778,669.444,25.000,N
610,-0.690,0.110,-0.995,158.333,75.000,347.222,691.667,22.222,N
611,-0.885,-0.010,-0.765,130.556,83.333,380.556,669.444,22.222,N
612,-0.640,0.260,-0.555,150.000,75.000,377.778,697.222,27.778,N
613,-0.385,0.340,-0.500,127.778,86.111,355.556,691.667,5.556,N
614,-0.505,0.255,-0.495,150.000,88.889,325.000,686.111,5.556,N
615,-0.350,0.375,-0.315,147.222,77.778,350.000,661.111,25.000,N
616,-0.345,0.615,-0.365,58.333,91.667,355.556,544.444,116.667,A
617,-0.280,0.430,-0.510,136.111,83.333,400.000,822.222,277.778,N
618,-0.370,0.260,-0.560,138.889,72.222,325.000,694.444,127.778,N
619,-0.735,0.115,-0.620,63.889,80.556,347.222,602.778,91.667,A
620,-0.505,0.210,-0.590,141.667,88.889,358.333,769.444,166.667,N
621,-0.380,0.335,-0.315,147.222,88.889,380.556,677.778,91.667,N
622,-0.225,0.560,-0.060,155.556,86.111,352.778,691.667,13.889,N
623,0.135,0.960,0.160,150.000,86.111,369.444,680.556,11.111,N
624,0.215,0.995,0.110,138.889,80.556,355.556,680.556,0.000,N
625,0.195,0.865,0.130,133.333,91.667,369.444,663.889,16.667,N
626,0.205,0.885,0.040,158.333,88.889,336.111,691.667,27.778,N
627,0.040,0.670,-0.115,147.222,88.889,344.444,666.667,25.000,N
628,-0.230,0.455,-0.290,130.556,83.333,327.778,672.222,5.556,N
629,-0.300,0.400,-0.435,141.667,88.889,336.111,666.667,5.556,N
630,-0.430,0.315,-0.470,150.000,88.889,344.444,688.889,22.222,N
631,-0.410,0.240,-0.450,147.222,91.667,347.222,672.222,16.667,N
632,-0.370,0.300,-0.385,150.000,88.889,369.444,700.000,27.778,N
633,-0.430,0.280,-0.390,197.222,80.556,316.667,550.000,150.000,A
634,-0.445,0.260,-0.450,133.333,88.889,386.111,805.556,255.556,N
635,-0.400,-0.015,-0.475,141.667,72.222,327.778,686.111,119.444,N
636,-0.490,0.095,-0.575,133.333,86.111,355.556,708.333,22.222,N
637,-0.455,0.190,-0.470,144.444,91.667,375.000,683.333,25.000,N
638,-0.395,0.395,-0.495,130.556,75.000,319.444,680.556,2.778,N
639,-0.465,0.250,-0.500,150.000,86.111,363.889,663.889,16.667,N
640,-0.565,0.180,-0.440,58.333,88.889,327.778,580.556,83.333,A
641,-0.425,0.270,-0.450,155.556,88.889,380.556,772.222,191.667,N
642,-0.275,0.530,-0.275,150.000,88.889,355.556,691.667,80.556,N
643,-0.355,0.515,-0.305,186.111,86.111,341.667,547.222,144.444,A
644,-0.330,0.395,-0.365,130.556,72.222,350.000,775.000,227.778,N
645,-0.215,0.520,-0.205,150.000,88.889,350.000,688.889,86.111,N
646,-0.075,0.600,-0.275,152.778,88.889,341.667,705.556,16.667,N
647,-0.315,0.400,-0.385,144.444,77.778,363.889,666.667,38.889,N
648,-0.330,0.435,-0.505,133.333,80.556,355.556,683.333,16.667,N
649,-0.515,0.275,-0.590,147.222,80.556,322.222,669.444,13.889,N
650,-0.725,0.055,-0.665,197.222,86.111,330.556,597.222,72.222,A
651,-0.610,0.155,-0.745,141.667,91.667,383.333,741.667,144.444,N
652,-0.705,-0.015,-0.765,147.222,88.889,347.222,705.556,36.111,N
653,-0.735,-0.055,-0.835,141.667,88.889,377.778,675.000,30.556,N
654,-0.745,0.000,-0.695,130.556,80.556,330.556,677.778,2.778,N
655,-0.730,0.070,-0.590,61.111,80.556,322.222,636.111,41.667,A
656,-0.515,0.220,-0.445,147.222,88.889,377.778,747.222,111.111,N
657,-0.360,0.585,-0.390,152.778,88.889,336.111,711.111,36.111,N
658,-0.340,0.460,-0.405,141.667,86.111,333.333,688.889,22.222,N
659,-0.360,0.470,-0.370,136.111,80.556,322.222,688.889,0.000,N
660,-0.320,0.380,-0.380,161.111,83.333,322.222,691.667,2.778,N
661,-0.285,0.480,-0.220,150.000,80.556,347.222,677.778,13.889,N
662,-0.130,0.530,-0.120,152.778,77.778,347.222,697.222,19.444,N
663,-0.075,0.535,-0.145,152.778,88.889,344.444,686.111,11.111,N
664,-0.235,0.345,-0.235,138.889,88.889,341.667,591.667,94.444,A
665,-0.360,0.480,-0.310,72.222,88.889,347.222,663.889,72.222,A
666,-0.300,0.345,-0.400,155.556,88.889,361.111,788.889,125.000,N
667,-0.345,0.270,-0.395,133.333,83.333,322.222,702.778,86.111,N
668,-0.415,0.275,-0.445,144.444,88.889,319.444,677.778,25.000,N
669,-0.440,0.310,-0.545,150.000,88.889,347.222,675.000,2.778,N
670,-0.500,0.205,-0.535,155.556,83.333,325.000,713.889,38.889,N
671,-0.500,0.280,-0.515,158.333,88.889,341.667,688.889,25.000,N
672,-0.460,0.215,-0.570,155.556,91.667,369.444,702.778,13.889,N
673,-0.520,0.245,-0.540,141.667,86.111,341.667,694.444,8.333,N
674,-0.515,0.215,-0.585,127.778,88.889,350.000,675.000,19.444,N
675,-0.505,0.190,-0.535,147.222,88.889,341.667,691.667,16.667,N
676,-0.450,0.300,-0.465,150.000,91.667,363.889,708.333,16.667,N
677,-0.435,0.255,-0.500,141.667,91.667,350.000,686.111,22.222,N
678,-0.405,0.355,-0.425,144.444,88.889,341.667,675.000,11.111,N
679,-0.415,0.335,-0.485,133.333,77.778,325.000,675.000,0.000,N
680,-0.430,0.255,-0.505,152.778,88.889,336.111,700.000,25.000,N
681,-0.470,0.235,-0.480,144.444,88.889,344.444,686.111,13.889,N
682,-0.415,0.335,-0.450,147.222,88.889,344.444,705.556,19.444,N
683,-0.360,0.375,-0.385,141.667,88.889,347.222,694.444,11.111,N
684,-0.385,0.280,-0.465,136.111,83.333,341.667,694.444,0.000,N
685,-0.395,0.300,-0.445,155.556,88.889,358.333,697.222,2.778,N
686,-0.415,0.285,-0.490,155.556,88.889,333.333,733.333,36.111,N
687,-0.465,0.220,-0.535,152.778,80.556,352.778,697.222,36.111,N
688,-0.485,0.175,-0.530,144.444,86.111,377.778,680.556,16.667,N
689,-0.435,0.205,-0.510,144.444,91.667,355.556,705.556,25.000,N
690,-0.475,0.190,-0.515,141.667,88.889,380.556,702.778,2.778,N
691,-0.425,0.315,-0.480,144.444,88.889,352.778,719.444,16.667,N
692,-0.440,0.260,-0.510,163.889,80.556,325.000,733.333,13.889,N
693,-0.445,0.260,-0.455,150.000,86.111,347.222,708.333,25.000,N
694,-0.435,0.240,-0.515,144.444,88.889,355.556,700.000,8.333,N
695,-0.410,0.395,-0.410,161.111,83.333,355.556,722.222,22.222,N
696,-0.365,0.295,-0.430,144.444,86.111,369.444,719.444,2.778,N
697,-0.365,0.270,-0.410,136.111,86.111,327.778,716.667,2.778,N
698,-0.400,0.275,-0.510,141.667,91.667,347.222,677.778,38.889,N
699,-0.470,0.355,-0.400,147.222,88.889,350.000,697.222,19.444,N
700,-0.380,0.365,-0.475,155.556,80.556,322.222,691.667,5.556,N
701,-0.400,0.285,-0.430,147.222,88.889,358.333,708.333,16.667,N
702,-0.395,0.330,-0.425,144.444,88.889,327.778,697.222,11.111,N
703,-0.440,0.180,-0.445,172.222,88.889,322.222,602.778,94.444,A
704,-0.430,0.425,-0.460,58.333,88.889,352.778,683.333,80.556,e
705,-0.475,0.120,-0.545,150.000,91.667,372.222,830.556,147.222,N
706,-0.465,0.200,-0.505,147.222,91.667,375.000,730.556,100.000,N
707,-0.515,0.195,-0.420,136.111,80.556,363.889,705.556,25.000,N
708,-0.315,0.380,-0.480,147.222,88.889,363.889,702.778,2.778,N
709,-0.420,0.340,-0.355,127.778,91.667,369.444,697.222,5.556,N
710,-0.230,0.460,-0.315,141.667,86.111,344.444,719.444,22.222,N
711,-0.285,0.485,-0.265,144.444,88.889,338.889,711.111,8.333,N
712,-0.270,0.530,-0.325,141.667,80.556,333.333,677.778,33.333,N
713,-0.240,0.510,-0.285,144.444,83.333,344.444,683.333,5.556,N
714,-0.200,0.490,-0.330,163.889,88.889,350.000,697.222,13.889,N
715,-0.360,0.400,-0.300,144.444,88.889,336.111,713.889,16.667,N
716,-0.280,0.505,-0.355,152.778,83.333,338.889,700.000,13.889,N
717,-0.330,0.385,-0.380,155.556,88.889,363.889,672.222,27.778,N
718,-0.295,0.370,-0.345,152.778,88.889,341.667,691.667,19.444,N
719,-0.355,0.360,-0.405,144.444,88.889,363.889,680.556,11.111,N
720,-0.320,0.500,-0.285,161.111,88.889,355.556,708.333,27.778,N
721,-0.280,0.500,-0.400,147.222,83.333,369.444,711.111,2.778,N
722,-0.385,0.375,-0.440,141.667,88.889,325.000,686.111,25.000,N
723,-0.395,0.380,-0.420,147.222,86.111,347.222,672.222,13.889,N
724,-0.415,0.335,-0.480,161.111,88.889,369.444,716.667,44.444,N
725,-0.410,0.365,-0.350,141.667,86.111,338.889,697.222,19.444,N
726,-0.325,0.440,-0.415,138.889,86.111,350.000,686.111,11.111,N
727,-0.395,0.300,-0.435,150.000,75.000,383.333,688.889,2.778,N
728,-0.390,0.340,-0.445,186.111,88.889,341.667,558.333,130.556,A
729,-0.510,0.300,-0.470,94.444,88.889,366.667,702.778,144.444,e
730,-0.480,0.235,-0.420,144.444,91.667,355.556,788.889,86.111,N
731,-0.365,0.400,-0.420,141.667,83.333,341.667,708.333,80.556,N
732,-0.380,0.310,-0.440,144.444,88.889,347.222,694.444,13.889,N
733,-0.385,0.305,-0.415,144.444,88.889,363.889,675.000,19.444,N
734,-0.360,0.365,-0.405,150.000,88.889,338.889,733.333,58.333,N
735,-0.400,0.345,-0.390,150.000,88.889,347.222,694.444,38.889,N
736,-0.340,0.425,-0.395,147.222,86.111,333.333,675.000,19.444,N
737,-0.350,0.335,-0.435,144.444,88.889,352.778,691.667,16.667,N
738,-0.375,0.280,-0.435,150.000,88.889,375.000,705.556,13.889,N
739,-0.370,0.340,-0.360,138.889,83.333,355.556,713.889,8.333,N
740,-0.340,0.395,-0.300,144.444,91.667,347.222,716.667,2.778,N
741,-0.225,0.415,-0.270,152.778,88.889,333.333,702.778,13.889,N
742,-0.245,0.365,-0.325,136.111,88.889,372.222,669.444,33.333,N
743,-0.295,0.420,-0.340,161.111,88.889,361.111,713.889,44.444,N
744,-0.320,0.265,-0.350,152.778,88.889,319.444,708.333,5.556,N
745,-0.315,0.260,-0.345,147.222,88.889,333.333,683.333,25.000,N
746,-0.315,0.300,-0.475,155.556,88.889,327.778,666.667,16.667,N
747,-0.485,0.070,-0.615,152.778,88.889,341.667,663.889,2.778,N
748,-0.585,0.100,-0.590,138.889,88.889,352.778,661.111,2.778,N
749,-0.640,0.080,-0.470,194.444,77.778,322.222,552.778,108.333,A
750,-0.405,0.290,-0.435,141.667,86.111,375.000,808.333,255.556,N
751,-0.330,0.380,-0.355,155.556,83.333,333.333,686.111,122.222,N
752,-0.425,0.385,-0.335,63.889,88.889,366.667,644.444,41.667,A
753,-0.350,0.335,-0.415,161.111,88.889,391.667,733.333,88.889,N
754,-0.260,0.415,-0.300,141.667,91.667,347.222,683.333,50.000,N
755,-0.250,0.390,-0.430,144.444,88.889,350.000,691.667,8.333,N
756,-0.380,0.240,-0.515,141.667,88.889,338.889,675.000,16.667,N
757,-0.410,0.295,-0.550,138.889,94.444,350.000,688.889,13.889,N
758,-0.490,0.205,-0.455,147.222,91.667,375.000,669.444,19.444,N
759,-0.345,0.350,-0.310,150.000,86.111,355.556,694.444,25.000,N
760,-0.265,0.410,-0.365,141.667,88.889,347.222,672.222,22.222,N
761,-0.315,0.355,-0.370,141.667,88.889,338.889,675.000,2.778,N
762,-0.300,0.375,-0.365,150.000,88.889,350.000,655.556,19.444,N
763,-0.380,0.215,-0.440,144.444,97.222,358.333,702.778,47.222,N
764,-0.390,0.230,-0.460,141.667,88.889,347.222,677.778,25.000,N
765,-0.405,0.225,-0.460,125.000,86.111,366.667,675.000,2.778,N
766,-0.395,0.295,-0.415,127.778,86.111,333.333,666.667,8.333,N
767,-0.490,0.230,-0.380,63.889,86.111,319.444,611.111,55.556,A
768,-0.365,0.360,-0.460,144.444,91.667,380.556,747.222,136.111,N
769,-0.400,0.340,-0.440,155.556,88.889,352.778,716.667,30.556,N
770,-0.380,0.310,-0.465,147.222,86.111,341.667,683.333,33.333,N
771,-0.410,0.275,-0.450,133.333,88.889,327.778,686.111,2.778,N
772,-0.400,0.255,-0.455,150.000,88.889,347.222,683.333,2.778,N
773,-0.375,0.270,-0.395,161.111,86.111,355.556,716.667,33.333,N
774,-0.410,0.225,-0.445,138.889,91.667,344.444,680.556,36.111,N
775,-0.360,0.290,-0.405,144.444,80.556,327.778,677.778,2.778,N
776,-0.340,0.260,-0.460,133.333,83.333,350.000,680.556,2.778,N
777,-0.460,-2.235,0.175,138.889,2.778,227.778,438.889,241.667,V
778,-0.495,0.270,-0.470,138.889,88.889,383.333,930.556,491.667,N
779,-0.350,0.255,-0.430,141.667,91.667,358.333,697.222,233.333,N
780,-0.345,0.200,-0.570,147.222,91.667,377.778,680.556,16.667,N
781,-0.530,0.150,-0.505,127.778,88.889,377.778,663.889,16.667,N
782,-0.310,0.365,-0.345,133.333,86.111,386.111,658.333,5.556,N
783,-0.265,0.345,-0.390,147.222,94.444,352.778,702.778,44.444,N
784,-0.385,0.225,-0.605,136.111,83.333,350.000,663.889,38.889,N
785,-0.615,0.125,-0.430,47.222,69.444,319.444,586.111,77.778,A
786,-0.315,0.305,-0.495,130.556,83.333,341.667,719.444,133.333,N
787,-0.400,0.200,-0.530,152.778,75.000,316.667,688.889,30.556,N
788,-0.670,0.095,-0.575,108.333,91.667,352.778,611.111,77.778,A
789,-0.455,0.280,-0.490,141.667,91.667,380.556,713.889,102.778,N
790,-0.395,0.305,-0.340,136.111,88.889,361.111,675.000,38.889,N
791,-0.300,0.370,-0.285,130.556,88.889,333.333,672.222,2.778,N
792,-0.285,0.445,-0.190,58.333,88.889,344.444,586.111,86.111,A
793,-0.175,0.570,-0.300,147.222,113.889,397.222,744.444,158.333,N
794,-0.230,0.375,-0.290,138.889,86.111,344.444,683.333,61.111,N
795,-0.195,1.080,-0.320,122.222,113.889,369.444,647.222,36.111,F
796,-0.175,0.425,-0.250,138.889,88.889,344.444,650.000,2.778,N
797,-0.240,1.080,-0.430,58.333,116.667,391.667,561.111,88.889,V
798,-0.415,0.375,-0.185,58.333,88.889,344.444,611.111,50.000,N
799,-0.265,1.255,-0.340,58.333,116.667,405.556,675.000,63.889,V
800,-0.060,-1.180,0.295,44.444,2.778,252.778,536.111,138.889,V
801,-0.240,1.345,-0.330,191.667,116.667,116.667,708.333,172.222,V
802,0.030,-1.315,0.310,36.111,2.778,230.556,505.556,202.778,V
803,-0.300,1.200,-0.490,169.444,113.889,397.222,700.000,194.444,V
804,-0.170,-1.305,0.280,41.667,0.000,255.556,547.222,152.778,V
805,-0.265,1.330,-0.545,58.333,116.667,116.667,708.333,161.111,V
806,-0.155,-1.560,0.185,38.889,0.000,225.000,525.000,183.333,V
807,-0.415,1.090,-0.650,58.333,116.667,116.667,666.667,141.667,V
808,-0.385,-1.555,0.045,38.889,0.000,233.333,519.444,147.222,V
809,-0.445,1.025,-0.510,72.222,113.889,402.778,641.667,122.222,V
810,-0.130,-1.605,0.245,47.222,2.778,227.778,541.667,100.000,V
811,-0.305,1.325,-0.505,77.778,116.667,116.667,666.667,125.000,V
812,-0.175,-1.435,0.235,41.667,2.778,227.778,530.556,136.111,V
813,-0.285,1.055,-0.475,58.333,116.667,391.667,625.000,94.444,V
814,-0.165,-1.385,0.315,41.667,5.556,250.000,508.333,116.667,V
815,-0.255,1.215,-0.415,186.111,116.667,402.778,666.667,158.333,V
816,-0.080,-1.290,0.360,41.667,2.778,247.222,538.889,127.778,V
817,-0.175,1.150,-0.355,186.111,116.667,405.556,636.111,97.222,V
818,-0.060,-1.285,0.415,41.667,2.778,225.000,533.333,102.778,V
819,-0.170,1.265,-0.325,180.556,116.667,377.778,597.222,63.889,V
820,0.000,-1.320,0.320,41.667,2.778,247.222,502.778,94.444,V
821,-0.270,1.050,-0.510,180.556,116.667,405.556,600.000,97.222,V
822,-0.285,-1.385,0.200,41.667,2.778,222.222,530.556,69.444,V
823,-0.325,0.990,-0.460,197.222,113.889,400.000,616.667,86.111,V
824,-0.140,-1.430,0.240,41.667,2.778,222.222,525.000,91.667,V
825,-0.300,1.185,-0.485,163.889,116.667,400.000,577.778,52.778,V
826,-0.145,-1.505,0.150,41.667,0.000,236.111,522.222,55.556,V
827,-0.390,1.005,-0.605,175.000,113.889,386.111,588.889,66.667,V
828,-0.335,-1.450,0.085,50.000,2.778,241.667,550.000,38.889,V
829,-0.435,0.990,-0.580,191.667,113.889,397.222,566.667,16.667,V
830,-0.250,-1.570,0.165,44.444,0.000,213.889,538.889,27.778,V
831,-0.415,1.055,-0.650,183.333,116.667,372.222,555.556,16.667,V
832,-0.315,-1.615,0.010,44.444,0.000,238.889,513.889,41.667,V
833,-0.490,0.800,-0.785,197.222,116.667,394.444,530.556,16.667,V
834,-0.485,-1.660,-0.060,50.000,2.778,244.444,527.778,2.778,V
835,-0.545,0.985,-0.710,91.667,116.667,402.778,569.444,41.667,V
836,-0.310,-1.580,0.160,44.444,0.000,211.111,538.889,30.556,V
837,-0.390,1.020,-0.675,177.778,116.667,405.556,583.333,44.444,V
838,-0.435,-1.510,0.065,44.444,2.778,222.222,525.000,58.333,V
839,-0.445,0.920,-0.635,191.667,111.111,402.778,527.778,2.778,V
840,-0.355,-1.490,0.165,50.000,2.778,247.222,550.000,22.222,V
841,-0.355,1.035,-0.625,177.778,116.667,400.000,597.222,47.222,V
842,-0.370,-1.525,0.045,38.889,0.000,222.222,508.333,88.889,V
843,-0.465,0.655,-0.745,186.111,116.667,397.222,530.556,22.222,V
844,-0.500,-1.505,-0.025,38.889,2.778,227.778,522.222,8.333,V
845,-0.510,0.855,-0.600,108.333,116.667,388.889,569.444,47.222,V
846,-0.320,-1.375,0.190,50.000,0.000,238.889,516.667,52.778,V
847,-0.310,1.170,-0.600,188.889,116.667,116.667,563.889,47.222,V
848,-0.390,-1.505,0.015,44.444,0.000,233.333,552.778,11.111,V
849,-0.455,0.970,-0.660,194.444,116.667,397.222,525.000,27.778,V
850,-0.420,-1.565,-0.005,41.667,0.000,205.556,530.556,5.556,V
851,-0.505,0.825,-0.745,197.222,111.111,388.889,569.444,38.889,V
852,-0.485,-1.685,-0.060,50.000,2.778,238.889,530.556,38.889,V
853,-0.625,0.830,-0.875,150.000,116.667,400.000,622.222,91.667,V
854,-0.605,-1.790,-0.200,47.222,0.000,230.556,519.444,102.778,V
855,-0.655,0.865,-0.885,194.444,111.111,355.556,566.667,47.222,V
856,-0.665,-1.735,-0.240,50.000,0.000,225.000,525.000,41.667,V
857,-0.725,0.580,-0.930,116.667,105.556,-611158.333,533.333,8.333,V
858,-0.925,-1.975,-0.305,38.889,0.000,230.556,533.333,0.000,V
859,-0.840,0.625,-0.935,58.333,116.667,405.556,586.111,52.778,V
860,-0.660,-1.725,-0.040,41.667,0.000,227.778,527.778,58.333,V
861,-0.570,0.850,-0.645,111.111,113.889,394.444,569.444,41.667,V
862,-0.285,-1.410,0.265,47.222,2.778,219.444,538.889,30.556,V
863,-0.170,1.215,-0.550,197.222,111.111,111.111,491.667,47.222,V
864,-0.505,-1.655,0.055,44.444,0.000,222.222,522.222,30.556,V
865,-0.580,0.935,-0.865,152.778,116.667,372.222,663.889,141.667,V
866,-0.575,-1.895,0.110,41.667,0.000,227.778,516.667,147.222,V
867,-0.425,0.950,-0.580,80.556,116.667,397.222,566.667,50.000,V
868,-0.260,-1.630,0.210,38.889,2.778,216.667,525.000,41.667,V
869,-0.320,1.160,-0.525,155.556,116.667,405.556,530.556,5.556,V
870,-0.150,-1.545,0.240,36.111,2.778,219.444,525.000,5.556,V
871,-0.290,1.150,-0.465,69.444,116.667,391.667,594.444,69.444,V
872,-0.120,-1.395,0.325,47.222,5.556,230.556,527.778,66.667,V
873,-0.255,1.205,-0.555,177.778,116.667,405.556,569.444,41.667,V
874,-0.255,-1.555,0.255,38.889,2.778,225.000,505.556,63.889,V
875,-0.310,1.170,-0.515,188.889,116.667,400.000,577.778,72.222,V
876,-0.175,-1.635,0.280,44.444,2.778,233.333,527.778,50.000,V
877,-0.250,1.165,-0.655,169.444,116.667,116.667,580.556,52.778,V
878,-0.480,-2.040,-0.080,44.444,2.778,233.333,525.000,55.556,V
879,-0.695,0.950,-0.900,177.778,105.556,388.889,586.111,61.111,V
880,-0.590,-2.000,0.070,44.444,2.778,225.000,502.778,83.333,V
881,-0.510,0.855,-0.745,136.111,113.889,397.222,555.556,52.778,V
882,-0.535,-1.820,0.105,44.444,2.778,225.000,538.889,16.667,V
883,-0.545,0.925,-0.770,58.333,116.667,386.111,602.778,63.889,V
884,-0.495,-1.850,0.205,38.889,0.000,244.444,513.889,88.889,V
885,-0.375,1.165,-0.505,80.556,113.889,383.333,652.778,138.889,V
886,-0.375,-1.565,0.315,44.444,0.000,227.778,530.556,122.222,V
887,-0.260,1.025,-0.670,177.778,116.667,116.667,575.000,44.444,V
888,-0.390,-1.605,0.330,41.667,2.778,233.333,519.444,55.556,V
889,-0.340,1.175,-0.305,83.333,116.667,405.556,619.444,100.000,V
890,0.110,-1.275,0.550,38.889,2.778,225.000,533.333,86.111,V
891,-0.085,1.355,-0.455,191.667,116.667,369.444,641.667,108.333,V
892,-0.295,-1.485,0.235,50.000,2.778,233.333,513.889,127.778,V
893,-0.365,1.070,-0.675,197.222,116.667,394.444,594.444,80.556,V
894,-0.520,-1.860,0.185,38.889,0.000,225.000,505.556,88.889,V
895,-0.390,-1.675,0.085,47.222,2.778,258.333,983.333,477.778,V
896,-0.335,0.060,-0.230,133.333,91.667,405.556,925.000,58.333,N
897,-0.220,0.140,-0.210,177.778,88.889,308.333,533.333,391.667,A
898,-0.350,0.095,-0.550,127.778,80.556,113.889,588.889,55.556,A
899,-0.930,-1.005,-0.930,635572.222,75.000,-635530.556,844.444,255.556,N
900,-0.665,0.040,-0.350,136.111,88.889,352.778,725.000,119.444,N
901,-0.205,-0.870,-0.150,41.667,5.556,225.000,669.444,55.556,A
902,-0.165,-0.090,-0.495,130.556,91.667,116.667,697.222,27.778,N
903,-0.500,0.915,-0.070,77.778,86.111,388.889,697.222,0.000,N
904,-0.035,1.225,0.095,161.111,88.889,355.556,672.222,25.000,N
905,0.115,1.150,-0.075,166.667,100.000,325.000,688.889,16.667,N
906,-0.025,0.980,-0.105,133.333,86.111,347.222,652.778,36.111,N
907,-0.120,0.930,-0.170,141.667,72.222,352.778,658.333,5.556,N
908,-0.140,0.945,-0.290,136.111,91.667,375.000,647.222,11.111,N
909,-0.080,1.375,0.145,147.222,91.667,336.111,700.000,52.778,N
910,0.080,1.415,-0.190,130.556,111.111,133.333,644.444,55.556,N
911,-0.180,1.620,-0.010,127.778,113.889,388.889,638.889,5.556,N
912,0.110,1.515,-0.110,133.333,80.556,91.667,636.111,2.778,N
913,-0.930,0.495,0.590,644980.556,88.889,377.778,680.556,44.444,N
914,0.590,2.310,0.395,141.667,86.111,100.000,661.111,19.444,N
915,0.360,2.010,0.490,147.222,69.444,366.667,672.222,11.111,N
916,0.625,2.200,0.225,136.111,116.667,116.667,658.333,13.889,N
917,-0.775,1.165,-0.985,130.556,113.889,388.889,661.111,2.778,N
918,-0.830,1.015,-0.915,150.000,88.889,344.444,655.556,5.556,N
919,-0.975,0.670,-0.900,150.000,86.111,402.778,666.667,11.111,N
920,-0.560,0.475,-0.770,136.111,80.556,352.778,680.556,13.889,N
921,-0.825,0.675,-0.930,186.111,77.778,-650244.444,658.333,22.222,N
922,-0.970,0.890,-0.930,138.889,86.111,-650883.333,647.222,11.111,N
923,-0.865,1.115,-0.810,150.000,86.111,363.889,655.556,8.333,N
924,-0.650,1.350,-0.525,147.222,86.111,375.000,652.778,2.778,N
925,-0.345,1.600,-0.270,136.111,88.889,355.556,686.111,33.333,N
926,-0.190,1.615,-0.315,141.667,80.556,341.667,675.000,11.111,N
927,-0.230,1.550,-0.365,141.667,88.889,377.778,675.000,0.000,N
928,-0.260,1.630,-0.415,136.111,88.889,386.111,658.333,16.667,N
929,-0.305,1.545,-0.375,152.778,86.111,361.111,691.667,33.333,N
930,-0.280,1.525,-0.360,136.111,86.111,344.444,680.556,11.111,N
931,-0.285,1.500,-0.455,130.556,88.889,363.889,683.333,2.778,N
932,-0.400,1.385,-0.560,152.778,86.111,361.111,666.667,16.667,N
933,-0.440,1.430,-0.620,144.444,88.889,352.778,677.778,11.111,N
934,-0.525,1.260,-0.715,158.333,91.667,366.667,688.889,11.111,N
935,-0.580,1.250,-0.690,147.222,86.111,380.556,686.111,2.778,N
936,-0.585,1.245,-0.710,136.111,86.111,363.889,683.333,2.778,N
937,-0.615,1.190,-0.765,144.444,88.889,341.667,697.222,13.889,N
938,-0.595,1.330,-0.735,144.444,83.333,352.778,680.556,16.667,N
939,-0.570,1.305,-0.630,158.333,86.111,358.333,727.778,47.222,N
940,-0.510,1.385,0.080,144.444,86.111,402.778,691.667,36.111,N
941,-0.310,1.345,-0.745,197.222,86.111,350.000,683.333,8.333,N
942,-0.660,1.120,-0.760,144.444,77.778,383.333,691.667,8.333,N
943,-0.600,1.120,-0.605,125.000,88.889,375.000,691.667,0.000,N
944,-0.400,1.385,0.195,158.333,88.889,372.222,700.000,8.333,N
945,0.875,0.700,0.115,47.222,77.778,336.111,627.778,72.222,V
946,0.135,1.465,-0.725,127.778,83.333,355.556,747.222,119.444,N
947,-0.545,1.180,-0.815,141.667,86.111,363.889,697.222,50.000,N
948,-0.775,1.025,-0.080,147.222,91.667,380.556,686.111,11.111,N
949,-0.155,1.535,-0.395,163.889,88.889,347.222,730.556,44.444,N
950,-0.465,1.270,-0.765,141.667,80.556,375.000,697.222,33.333,N
951,-0.690,1.075,-0.740,155.556,86.111,361.111,688.889,8.333,N
952,-0.600,1.090,-0.485,147.222,88.889,344.444,686.111,2.778,N
953,-0.410,1.465,-0.535,130.556,77.778,316.667,688.889,2.778,N
954,-0.475,1.335,-0.670,155.556,83.333,361.111,691.667,2.778,N
955,-0.545,1.270,-0.585,152.778,88.889,372.222,694.444,2.778,N
956,-0.435,1.370,-0.395,130.556,80.556,350.000,677.778,16.667,N
957,-0.280,1.525,-0.425,141.667,86.111,358.333,661.111,16.667,N
958,-0.500,1.245,-0.890,147.222,88.889,391.667,675.000,13.889,N
959,-0.860,1.010,-0.990,147.222,86.111,350.000,711.111,36.111,N
960,-0.900,0.940,-0.875,147.222,83.333,358.333,686.111,25.000,N
961,-0.755,1.095,-0.725,141.667,88.889,344.444,683.333,2.778,N
962,-0.675,1.110,-0.875,150.000,83.333,355.556,686.111,2.778,N
963,-0.785,1.065,-0.875,147.222,77.778,361.111,691.667,5.556,N
964,-0.720,1.170,-0.685,150.000,91.667,375.000,694.444,2.778,N
965,-0.545,1.435,-0.530,161.111,86.111,358.333,713.889,19.444,N
966,-0.520,0.540,-0.930,147.222,83.333,-681111.111,680.556,33.333,N
967,-0.930,0.445,-0.930,681838.889,86.111,-681780.556,675.000,5.556,N
968,-0.975,1.300,0.145,150.000,88.889,375.000,697.222,22.222,N
969,0.255,2.115,-0.110,152.778,91.667,102.778,711.111,13.889,N
970,-0.140,1.615,-0.485,141.667,83.333,97.222,680.556,30.556,N
971,-0.415,1.430,-0.480,130.556,80.556,358.333,652.778,27.778,N
972,-0.360,1.595,-0.400,136.111,88.889,350.000,683.333,30.556,N
973,-0.285,1.760,-0.435,150.000,83.333,366.667,683.333,0.000,N
974,-0.385,1.665,-0.550,136.111,80.556,347.222,677.778,5.556,N
975,-0.410,1.555,-0.460,141.667,88.889,383.333,675.000,2.778,N
976,-0.310,1.605,-0.330,141.667,86.111,350.000,663.889,11.111,N
977,-0.225,1.785,-0.295,130.556,80.556,358.333,655.556,8.333,N
978,-0.245,1.745,-0.425,141.667,80.556,358.333,666.667,11.111,N
979,-0.320,1.630,-0.415,152.778,88.889,369.444,694.444,27.778,N
980,-0.270,1.730,-0.335,147.222,86.111,358.333,666.667,27.778,N
981,-0.220,1.630,-0.295,141.667,88.889,347.222,661.111,5.556,N
982,-0.240,1.735,-0.450,144.444,88.889,347.222,663.889,2.778,N
983,-0.365,1.510,-0.515,152.778,86.111,363.889,680.556,16.667,N
984,-0.425,1.520,-0.500,141.667,86.111,380.556,680.556,0.000,N
985,-0.365,1.650,-0.425,158.333,88.889,369.444,686.111,5.556,N
986,-0.335,1.675,-0.470,150.000,86.111,344.444,688.889,2.778,N
987,-0.405,1.520,-0.585,138.889,86.111,361.111,680.556,8.333,N
988,-0.515,1.430,-0.675,147.222,86.111,380.556,683.333,2.778,N
989,-0.515,1.435,-0.570,152.778,88.889,372.222,705.556,22.222,N
990,-0.470,1.485,-0.510,141.667,86.111,352.778,688.889,16.667,N
991,-0.405,1.490,-0.570,144.444,83.333,380.556,672.222,16.667,N
992,-0.500,1.410,-0.715,130.556,88.889,386.111,661.111,11.111,N
993,-0.655,1.250,-0.760,147.222,83.333,363.889,686.111,25.000,N
994,-0.615,1.260,-0.635,144.444,86.111,383.333,686.111,0.000,N
995,-0.515,1.410,-0.530,158.333,88.889,369.444,688.889,2.778,N
996,-0.530,1.355,-0.755,169.444,83.333,377.778,480.556,208.333,A
997,-0.720,1.255,-0.800,152.778,77.778,330.556,513.889,33.333,A
998,-0.680,1.325,-0.655,116.667,86.111,402.778,797.222,283.333,N
999,-0.480,1.380,-0.575,144.444,88.889,380.556,788.889,8.333,N
1000,-0.490,1.430,-0.670,141.667,86.111,377.778,708.333,80.556,N
1001,-0.555,1.195,-0.725,141.667,86.111,377.778,691.667,16.667,N
1002,-0.625,1.160,-0.660,130.556,83.333,363.889,680.556,11.111,N
1003,-0.460,1.455,-0.420,150.000,88.889,363.889,705.556,25.000,N
1004,-0.290,1.680,-0.400,150.000,86.111,347.222,686.111,19.444,N
1005,-0.310,1.625,-0.460,147.222,88.889,344.444,700.000,13.889,N
1006,-0.345,1.410,-0.495,144.444,88.889,380.556,666.667,33.333,N
1007,-0.335,1.580,-0.445,147.222,77.778,366.667,672.222,5.556,N
1008,-0.300,1.595,-0.350,141.667,91.667,355.556,688.889,16.667,N
1009,-0.230,1.560,-0.360,147.222,86.111,375.000,708.333,19.444,N
1010,-0.255,1.710,-0.325,161.111,83.333,358.333,683.333,25.000,N
1011,-0.150,1.590,-0.260,141.667,88.889,352.778,675.000,8.333,N
1012,-0.160,1.690,-0.375,155.556,80.556,358.333,686.111,11.111,N
1013,-0.335,1.570,-0.550,136.111,86.111,361.111,680.556,5.556,N
1014,-0.470,1.435,-0.600,144.444,86.111,380.556,705.556,25.000,N
1015,-0.490,1.445,-0.660,152.778,86.111,372.222,713.889,8.333,N
1016,-0.565,1.425,-0.670,141.667,88.889,358.333,677.778,36.111,N
1017,-0.540,1.360,-0.615,150.000,80.556,383.333,666.667,11.111,N
1018,-0.460,1.640,-0.350,144.444,86.111,383.333,708.333,41.667,N
1019,-0.075,1.840,-0.270,152.778,86.111,366.667,713.889,5.556,N
1020,-0.155,1.770,-0.350,147.222,86.111,355.556,683.333,30.556,N
1021,-0.280,1.640,-0.515,152.778,83.333,391.667,691.667,8.333,N
1022,-0.405,1.600,-0.440,155.556,86.111,369.444,691.667,0.000,N
1023,-0.385,1.540,-0.410,141.667,88.889,363.889,675.000,16.667,N
1024,-0.405,1.485,-0.645,161.111,83.333,394.444,700.000,25.000,N
1025,-0.580,1.395,-0.745,141.667,86.111,380.556,683.333,16.667,N
1026,-0.635,1.295,-0.625,147.222,86.111,402.778,677.778,5.556,N
1027,-0.495,1.365,-0.500,136.111,86.111,352.778,650.000,27.778,N
1028,-0.390,1.570,-0.460,152.778,86.111,366.667,688.889,38.889,N
1029,-0.415,1.500,-0.670,144.444,86.111,344.444,691.667,2.778,N
1030,-0.585,1.300,-0.695,133.333,86.111,341.667,666.667,25.000,N
1031,-0.540,1.380,-0.545,136.111,80.556,352.778,650.000,16.667,N
1032,-0.395,1.525,-0.410,150.000,86.111,333.333,688.889,38.889,N
1033,-0.330,1.760,-0.495,152.778,86.111,358.333,677.778,11.111,N
1034,-0.450,1.605,-0.560,158.333,86.111,397.222,697.222,19.444,N
1035,-0.520,1.365,-0.575,161.111,86.111,330.556,530.556,166.667,A
1036,-0.390,1.545,-0.440,133.333,88.889,377.778,755.556,225.000,N
1037,-0.440,0.455,0.015,169.444,91.667,330.556,488.889,266.667,V
1038,0.150,-1.585,-0.200,50.000,0.000,275.000,788.889,300.000,V
1039,-0.460,1.420,-0.640,152.778,80.556,386.111,869.444,80.556,N
1040,-0.475,1.455,-0.465,138.889,88.889,355.556,672.222,197.222,N
1041,-0.360,1.495,-0.425,138.889,88.889,352.778,675.000,2.778,N
1042,-0.430,2.195,-0.460,186.111,94.444,372.222,513.889,161.111,V
1043,-0.405,1.590,-0.555,152.778,88.889,402.778,869.444,355.556,N
1044,-0.540,0.390,0.210,125.000,97.222,361.111,500.000,369.444,V
1045,0.010,1.840,-0.165,144.444,91.667,402.778,866.667,366.667,N
1046,-0.165,0.830,0.295,130.556,77.778,313.889,475.000,391.667,V
1047,-0.160,1.830,-0.505,152.778,86.111,102.778,891.667,416.667,N
1048,-0.555,0.215,-0.170,116.667,100.000,350.000,494.444,397.222,V
1049,-0.460,1.380,-0.615,150.000,88.889,380.556,863.889,369.444,N
1050,-0.610,0.250,-0.060,122.222,63.889,305.556,477.778,386.111,V
1051,-0.550,1.320,-0.785,147.222,88.889,402.778,833.333,355.556,N
1052,-0.775,0.075,-0.230,113.889,97.222,319.444,488.889,344.444,V
1053,-0.490,1.290,-0.615,141.667,88.889,405.556,838.889,350.000,N
1054,-0.605,0.285,0.005,44.444,69.444,322.222,494.444,344.444,V
1055,-0.445,1.430,-0.665,152.778,88.889,402.778,713.889,219.444,N
1056,-0.665,0.150,-0.210,152.778,94.444,330.556,497.222,216.667,V
1057,-0.425,1.435,-0.485,150.000,86.111,405.556,969.444,472.222,N
1058,-0.485,0.240,0.095,144.444,75.000,322.222,491.667,477.778,V
1059,-0.315,1.565,-0.605,144.444,88.889,402.778,900.000,408.333,N
1060,-0.585,0.260,-0.125,136.111,86.111,322.222,488.889,411.111,V
1061,-0.435,1.365,-0.530,130.556,86.111,391.667,836.111,347.222,N
1062,-0.520,0.290,0.085,133.333,80.556,308.333,497.222,338.889,V
1063,-0.330,1.375,-0.595,150.000,88.889,380.556,850.000,352.778,N
1064,-0.595,0.215,-0.155,175.000,97.222,347.222,497.222,352.778,V
1065,-0.375,1.310,-0.795,58.333,116.667,405.556,597.222,100.000,V
1066,-0.430,1.370,-0.630,58.333,116.667,355.556,458.333,138.889,V
1067,-0.370,1.435,-0.480,136.111,91.667,391.667,836.111,377.778,N
1068,-0.460,0.335,-0.010,138.889,66.667,322.222,502.778,333.333,V
1069,-0.470,1.400,-0.645,130.556,80.556,386.111,1030.556,527.778,N
1070,-0.640,0.115,-0.065,111.111,75.000,305.556,472.222,558.333,V
1071,-0.380,1.275,-0.460,136.111,83.333,388.889,891.667,419.444,N
1072,-0.460,0.055,0.150,152.778,69.444,311.111,488.889,402.778,V
1073,-0.360,1.510,-0.565,144.444,91.667,383.333,888.889,400.000,N
1074,-0.565,0.295,0.005,136.111,75.000,336.111,488.889,400.000,V
1075,-0.340,1.620,-0.440,136.111,88.889,402.778,858.333,369.444,N
1076,-0.425,0.370,0.205,130.556,72.222,302.778,508.333,350.000,V
1077,-0.245,1.660,-0.505,158.333,86.111,402.778,827.778,319.444,N
1078,-0.505,0.350,0.030,166.667,97.222,352.778,511.111,316.667,V
1079,-0.420,1.160,-0.500,147.222,91.667,405.556,844.444,333.333,N
1080,-0.395,1.110,-0.545,141.667,88.889,330.556,669.444,175.000,N
1081,-0.465,1.175,-0.575,138.889,83.333,358.333,655.556,13.889,N
1082,-0.490,1.165,-0.505,147.222,88.889,344.444,675.000,19.444,N
1083,-0.430,1.240,-0.435,144.444,86.111,363.889,644.444,30.556,N
1084,-0.435,1.365,-0.430,136.111,80.556,352.778,672.222,27.778,N
1085,-0.420,1.310,-0.380,136.111,83.333,350.000,663.889,8.333,N
1086,-0.240,1.290,-0.290,144.444,86.111,355.556,650.000,13.889,N
1087,0.075,1.885,0.060,138.889,86.111,380.556,636.111,13.889,N
1088,0.115,2.000,-0.045,150.000,88.889,377.778,675.000,38.889,N
1089,-0.065,1.760,-0.340,144.444,83.333,338.889,663.889,11.111,N
1090,-0.390,1.365,-0.560,147.222,88.889,341.667,666.667,2.778,N
1091,-0.510,1.260,-0.630,138.889,88.889,361.111,622.222,44.444,N
1092,-0.535,1.365,-0.550,147.222,88.889,383.333,677.778,55.556,N
1093,-0.470,1.365,-0.575,150.000,86.111,344.444,669.444,8.333,N
1094,-0.525,1.375,-0.635,141.667,88.889,372.222,666.667,2.778,N
1095,-0.560,1.395,-0.640,141.667,80.556,352.778,683.333,16.667,N
1096,-0.570,1.235,-0.635,150.000,86.111,361.111,661.111,22.222,N
1097,-0.520,1.245,-0.570,144.444,86.111,377.778,652.778,8.333,N
1098,-0.455,1.370,-0.540,138.889,88.889,383.333,661.111,8.333,N
1099,-0.450,1.460,-0.570,138.889,83.333,347.222,700.000,38.889,N
1100,-0.525,1.285,-0.560,150.000,86.111,388.889,663.889,36.111,N
1101,-0.375,1.420,-0.395,133.333,75.000,355.556,630.556,33.333,N
1102,-0.315,1.500,-0.450,147.222,88.889,369.444,652.778,22.222,N
1103,-0.425,1.440,-0.640,136.111,80.556,355.556,675.000,22.222,N
1104,-0.565,1.280,-0.690,150.000,86.111,347.222,686.111,11.111,N
1105,-0.555,1.160,-0.615,147.222,88.889,372.222,672.222,13.889,N
1106,-0.525,1.245,-0.615,138.889,94.444,355.556,658.333,13.889,N
1107,-0.550,1.270,-0.725,133.333,77.778,350.000,655.556,2.778,N
1108,-0.615,1.265,-0.750,147.222,86.111,380.556,683.333,27.778,N
1109,-0.645,1.240,-0.675,155.556,91.667,386.111,688.889,5.556,N
1110,-0.520,1.365,-0.590,152.778,86.111,344.444,683.333,5.556,N
1111,-0.490,1.390,-0.610,144.444,83.333,347.222,658.333,25.000,N
1112,-0.530,1.365,-0.695,127.778,77.778,358.333,652.778,5.556,N
1113,-0.585,1.305,-0.700,147.222,88.889,372.222,688.889,36.111,N
1114,-0.530,1.320,-0.580,152.778,83.333,350.000,686.111,2.778,N
1115,-0.455,1.435,-0.535,161.111,88.889,358.333,697.222,11.111,N
1116,-0.395,1.530,-0.540,144.444,86.111,344.444,683.333,13.889,N
1117,-0.450,1.450,-0.595,133.333,88.889,377.778,669.444,13.889,N
1118,-0.475,1.395,-0.535,147.222,88.889,377.778,697.222,27.778,N
1119,-0.400,1.480,-0.495,155.556,86.111,366.667,711.111,13.889,N
1120,-0.370,1.465,-0.445,147.222,86.111,377.778,686.111,25.000,N
1121,-0.345,1.530,-0.530,141.667,88.889,377.778,672.222,13.889,N
1122,-0.445,1.550,-0.560,147.222,86.111,386.111,688.889,16.667,N
1123,-0.440,1.455,-0.470,133.333,83.333,372.222,683.333,5.556,N
1124,-0.335,1.505,-0.405,144.444,86.111,372.222,694.444,11.111,N
1125,-0.295,1.655,-0.370,147.222,83.333,352.778,719.444,25.000,N
1126,-0.285,1.600,-0.500,150.000,88.889,361.111,694.444,25.000,N
1127,-0.420,1.470,-0.520,150.000,88.889,372.222,688.889,5.556,N
1128,-0.520,1.420,-0.450,186.111,88.889,350.000,566.667,122.222,A
1129,-0.290,1.790,-0.430,152.778,86.111,400.000,838.889,272.222,N
1130,-0.430,0.445,-0.155,152.778,100.000,347.222,497.222,341.667,V
1131,-0.060,-1.625,-0.365,44.444,0.000,258.333,691.667,194.444,V
1132,-0.490,1.525,-0.665,144.444,88.889,386.111,866.667,175.000,N
1133,-0.530,1.450,-0.550,150.000,91.667,369.444,677.778,188.889,N
1134,-0.460,1.485,-0.680,144.444,86.111,380.556,688.889,11.111,N
1135,-0.585,1.370,-0.735,141.667,88.889,380.556,702.778,13.889,N
1136,-0.610,1.355,-0.700,147.222,88.889,375.000,675.000,27.778,N
1137,-0.580,1.345,-0.650,138.889,83.333,383.333,652.778,22.222,N
1138,-0.520,1.595,-0.580,152.778,86.111,383.333,702.778,50.000,N
1139,-0.485,1.470,-0.655,150.000,88.889,375.000,708.333,5.556,N
1140,-0.530,1.435,-0.595,152.778,86.111,366.667,680.556,27.778,N
1141,-0.445,1.510,-0.520,155.556,88.889,363.889,663.889,16.667,N
1142,-0.415,1.565,-0.460,144.444,86.111,350.000,683.333,19.444,N
1143,-0.335,1.665,-0.525,150.000,88.889,375.000,675.000,8.333,N
1144,-0.430,1.520,-0.560,150.000,88.889,386.111,694.444,19.444,N
1145,-0.415,1.525,-0.495,138.889,83.333,388.889,694.444,0.000,N
1146,-0.380,1.590,-0.435,133.333,83.333,355.556,691.667,2.778,N
1147,-0.320,1.595,-0.360,150.000,88.889,380.556,680.556,11.111,N
1148,-0.265,1.730,-0.275,152.778,88.889,400.000,711.111,30.556,N
1149,-0.275,1.500,-0.400,172.222,83.333,397.222,516.667,194.444,A
1150,-0.400,1.535,-0.400,150.000,88.889,341.667,516.667,0.000,A
1151,-0.310,1.740,-0.345,130.556,88.889,391.667,786.111,269.444,e
1152,-0.180,1.865,-0.295,144.444,86.111,377.778,805.556,19.444,N
1153,-0.200,1.745,-0.360,158.333,86.111,358.333,722.222,83.333,N
1154,-0.260,1.575,-0.395,155.556,88.889,383.333,708.333,13.889,N
1155,-0.270,1.645,-0.345,147.222,91.667,358.333,697.222,11.111,N
1156,-0.240,1.605,-0.315,155.556,72.222,347.222,691.667,5.556,N
1157,-0.185,1.765,-0.370,150.000,88.889,372.222,691.667,0.000,N
1158,-0.285,1.610,-0.430,166.667,86.111,347.222,725.000,33.333,N
1159,-0.325,1.555,-0.410,141.667,83.333,350.000,694.444,30.556,N
1160,-0.275,1.550,-0.400,144.444,88.889,383.333,672.222,22.222,N
1161,-0.305,1.625,-0.395,133.333,80.556,358.333,680.556,8.333,N
1162,-0.300,1.625,-0.500,138.889,91.667,375.000,688.889,8.333,N
1163,-0.385,1.505,-0.525,147.222,88.889,377.778,700.000,11.111,N
1164,-0.415,1.480,-0.500,147.222,88.889,372.222,697.222,2.778,N
1165,-0.385,1.550,-0.470,141.667,86.111,358.333,655.556,41.667,N
1166,-0.370,1.530,-0.485,141.667,83.333,347.222,677.778,22.222,N
1167,-0.390,1.490,-0.540,155.556,88.889,400.000,683.333,5.556,N
1168,-0.450,1.380,-0.580,141.667,86.111,350.000,713.889,30.556,N
1169,-0.445,1.425,-0.500,158.333,86.111,363.889,694.444,19.444,N
1170,-0.400,1.490,-0.475,136.111,88.889,352.778,669.444,25.000,N
1171,-0.360,1.420,-0.485,155.556,86.111,341.667,683.333,13.889,N
1172,-0.440,1.440,-0.595,127.778,83.333,386.111,677.778,5.556,N
1173,-0.505,1.335,-0.655,141.667,86.111,391.667,705.556,27.778,N
1174,0.295,-2.535,0.240,38.889,0.000,222.222,675.000,30.556,V
1175,-0.475,1.380,-0.635,144.444,88.889,375.000,708.333,33.333,N
1176,-0.495,1.420,-0.410,147.222,83.333,355.556,683.333,25.000,N
1177,-0.460,1.410,-0.590,197.222,88.889,383.333,513.889,169.444,A
1178,-0.570,1.295,-0.615,161.111,86.111,366.667,547.222,33.333,A
1179,-0.520,1.345,-0.590,116.667,88.889,377.778,822.222,275.000,N
1180,-0.430,1.425,-0.510,144.444,83.333,347.222,794.444,27.778,N
1181,-0.390,1.465,-0.515,163.889,88.889,361.111,755.556,38.889,N
1182,-0.380,1.545,-0.545,152.778,88.889,344.444,722.222,33.333,N
1183,-0.435,1.420,-0.600,152.778,88.889,380.556,725.000,2.778,N
1184,-0.280,1.590,-0.400,58.333,97.222,361.111,588.889,136.111,V
1185,-0.485,1.415,-0.585,147.222,86.111,402.778,827.778,238.889,N
1186,-0.255,1.480,-0.290,58.333,97.222,358.333,627.778,200.000,V
1187,-0.430,1.430,-0.565,155.556,88.889,397.222,805.556,177.778,N
1188,-0.420,1.540,-0.545,111.111,94.444,355.556,663.889,141.667,F
1189,-0.435,1.320,-0.545,150.000,88.889,372.222,730.556,66.667,N
1190,-0.355,1.645,-0.470,58.333,97.222,358.333,655.556,75.000,F
1191,-0.390,1.450,-0.570,147.222,86.111,377.778,738.889,83.333,N
1192,-0.385,1.545,-0.555,58.333,91.667,366.667,675.000,63.889,F
1193,-0.415,1.420,-0.480,152.778,80.556,355.556,738.889,63.889,N
1194,-0.225,1.610,-0.275,58.333,102.778,330.556,638.889,100.000,F
1195,-0.360,1.525,-0.510,147.222,88.889,377.778,716.667,77.778,N
1196,-0.285,1.370,-0.300,58.333,97.222,380.556,630.556,86.111,V
1197,-0.390,1.370,-0.460,147.222,83.333,377.778,769.444,138.889,N
1198,-0.150,1.515,-0.145,58.333,97.222,330.556,616.667,152.778,V
1199,-0.305,1.410,-0.430,150.000,86.111,366.667,758.333,141.667,N
1200,-0.315,1.480,-0.490,155.556,88.889,361.111,675.000,83.333,N
1201,-0.375,1.390,-0.475,152.778,88.889,402.778,691.667,16.667,N
1202,-0.125,1.485,-0.155,58.333,100.000,358.333,591.667,100.000,V
1203,-0.325,1.430,-0.435,138.889,88.889,386.111,797.222,205.556,N
1204,-0.330,1.460,-0.490,150.000,86.111,366.667,683.333,113.889,N
1205,-0.430,1.305,-0.555,150.000,86.111,363.889,669.444,13.889,N
1206,-0.280,1.525,-0.230,58.333,100.000,358.333,536.111,133.333,V
1207,-0.360,1.440,-0.460,130.556,88.889,400.000,827.778,291.667,N
1208,-0.340,1.470,-0.410,138.889,86.111,338.889,697.222,130.556,N
1209,-0.350,1.470,-0.505,136.111,88.889,361.111,677.778,19.444,N
1210,-0.390,1.460,-0.460,155.556,77.778,358.333,700.000,22.222,N
1211,-0.320,1.455,-0.415,150.000,86.111,363.889,694.444,5.556,N
1212,-0.275,1.540,-0.445,161.111,88.889,363.889,711.111,16.667,N
1213,-0.345,1.525,-0.510,147.222,88.889,375.000,686.111,25.000,N
1214,-0.395,1.430,-0.465,152.778,88.889,361.111,708.333,22.222,N
1215,-0.360,1.505,-0.455,152.778,88.889,372.222,686.111,22.222,N
1216,-0.340,1.560,-0.405,155.556,91.667,355.556,722.222,36.111,N
1217,-0.345,1.535,-0.500,155.556,80.556,355.556,694.444,27.778,N
1218,-0.415,1.390,-0.500,138.889,86.111,377.778,683.333,11.111,N
1219,-0.380,1.450,-0.460,150.000,86.111,377.778,697.222,13.889,N
1220,-0.335,1.540,-0.440,133.333,83.333,347.222,697.222,0.000,N
1221,-0.375,1.505,-0.520,155.556,88.889,358.333,697.222,0.000,N
1222,-0.265,1.485,-0.260,58.333,100.000,352.778,550.000,147.222,V
1223,-0.345,1.455,-0.445,141.667,91.667,380.556,794.444,244.444,N
1224,-0.160,1.615,-0.090,58.333,97.222,344.444,605.556,188.889,V
1225,-0.370,1.370,-0.555,144.444,86.111,386.111,752.778,147.222,N
1226,-0.425,1.460,-0.440,141.667,86.111,352.778,702.778,50.000,N
1227,-0.320,1.555,-0.415,150.000,86.111,369.444,680.556,22.222,N
1228,-0.305,1.580,-0.410,141.667,75.000,358.333,669.444,11.111,N
1229,-0.340,1.510,-0.375,138.889,88.889,355.556,683.333,13.889,N
1230,-0.375,1.355,-0.465,197.222,80.556,352.778,494.444,188.889,A
1231,-0.395,1.440,-0.420,130.556,86.111,358.333,602.778,108.333,A
1232,-0.270,1.700,-0.375,152.778,80.556,391.667,861.111,258.333,N
1233,-0.300,1.550,-0.475,144.444,88.889,375.000,719.444,141.667,N
1234,-0.370,1.390,-0.455,130.556,77.778,350.000,683.333,36.111,N
1235,-0.315,1.535,-0.390,141.667,86.111,380.556,675.000,8.333,N
1236,-0.265,1.640,-0.400,163.889,88.889,358.333,727.778,52.778,N
1237,-0.315,1.560,-0.455,144.444,88.889,380.556,675.000,52.778,N
1238,-0.375,1.520,-0.450,141.667,86.111,341.667,675.000,0.000,N
1239,-0.310,1.430,-0.400,152.778,86.111,380.556,666.667,8.333,N
1240,-0.260,1.695,-0.370,136.111,83.333,352.778,686.111,19.444,N
1241,-0.270,1.625,-0.440,144.444,88.889,380.556,677.778,8.333,N
1242,-0.325,1.540,-0.425,163.889,88.889,369.444,686.111,8.333,N
1243,-0.285,1.635,-0.370,136.111,86.111,350.000,675.000,11.111,N
1244,-0.260,1.705,-0.405,144.444,88.889,344.444,675.000,0.000,N
1245,-0.330,1.550,-0.445,144.444,83.333,383.333,655.556,19.444,N
1246,-0.340,1.480,-0.415,147.222,88.889,383.333,711.111,55.556,N
1247,-0.285,1.630,-0.390,141.667,88.889,377.778,666.667,44.444,N
1248,-0.295,1.740,-0.405,150.000,86.111,333.333,683.333,16.667,N
1249,-0.305,1.650,-0.430,144.444,86.111,377.778,655.556,27.778,N
1250,-0.320,1.485,-0.460,155.556,86.111,366.667,705.556,50.000,N
1251,-0.335,1.420,-0.445,166.667,86.111,352.778,680.556,25.000,N
1252,-0.320,1.545,-0.425,147.222,88.889,377.778,683.333,2.778,N
1253,-0.285,1.600,-0.390,133.333,86.111,400.000,680.556,2.778,N
1254,-0.315,1.635,-0.455,166.667,86.111,330.556,566.667,113.889,A
1255,-0.320,1.575,-0.480,141.667,88.889,380.556,744.444,177.778,N
1256,-0.315,1.540,-0.390,144.444,91.667,375.000,736.111,8.333,N
1257,-0.265,1.505,-0.390,147.222,88.889,375.000,705.556,30.556,N
1258,-0.285,1.570,-0.430,133.333,80.556,350.000,683.333,22.222,N
1259,-0.310,1.415,-0.460,141.667,86.111,380.556,677.778,5.556,N
1260,-0.330,1.420,-0.440,136.111,80.556,355.556,691.667,13.889,N
1261,-0.305,1.540,-0.395,152.778,86.111,341.667,713.889,22.222,N
1262,-0.295,1.630,-0.420,155.556,83.333,388.889,683.333,30.556,N
1263,-0.325,1.570,-0.475,150.000,86.111,366.667,691.667,8.333,N
1264,-0.370,1.485,-0.350,144.444,80.556,380.556,686.111,5.556,N
1265,-0.350,1.380,-0.480,172.222,88.889,383.333,497.222,188.889,A
1266,-0.325,1.395,-0.415,152.778,91.667,405.556,780.556,283.333,N
1267,-0.415,0.280,-0.025,161.111,86.111,319.444,508.333,272.222,V
1268,0.040,-1.410,-0.155,47.222,0.000,258.333,747.222,238.889,V
1269,-0.320,1.545,-0.475,138.889,88.889,383.333,833.333,86.111,N
1270,-0.340,1.495,-0.425,138.889,86.111,352.778,697.222,136.111,N
1271,-0.310,1.585,-0.405,150.000,88.889,400.000,688.889,8.333,N
1272,-0.260,1.535,-0.425,152.778,88.889,344.444,722.222,33.333,N
1273,-0.345,1.565,-0.460,141.667,80.556,352.778,688.889,33.333,N
1274,-0.335,1.455,-0.445,141.667,88.889,369.444,683.333,5.556,N
1275,-0.315,1.375,-0.420,147.222,88.889,375.000,694.444,11.111,N
1276,-0.265,1.530,-0.355,155.556,86.111,361.111,713.889,19.444,N
1277,-0.220,1.580,-0.340,161.111,86.111,358.333,700.000,13.889,N
1278,-0.230,1.675,-0.360,147.222,86.111,358.333,675.000,25.000,N
1279,-0.245,1.600,-0.405,161.111,88.889,366.667,694.444,19.444,N
1280,-0.290,1.585,-0.405,150.000,86.111,372.222,691.667,2.778,N
1281,-0.290,1.610,-0.250,152.778,88.889,400.000,716.667,25.000,N
1282,-0.250,1.510,-0.370,194.444,86.111,355.556,536.111,180.556,A
1283,-0.235,1.505,-0.435,147.222,88.889,377.778,775.000,238.889,N
1284,-0.435,0.210,-0.100,175.000,100.000,350.000,494.444,280.556,V
1285,-0.085,-1.145,-0.070,50.000,0.000,269.444,755.556,261.111,V
1286,-0.240,1.625,-0.360,130.556,83.333,391.667,966.667,211.111,N
1287,-0.205,1.760,-0.300,144.444,86.111,338.889,694.444,272.222,N
1288,-0.360,1.600,-0.360,58.333,88.889,375.000,597.222,97.222,A
1289,-0.385,1.595,-0.365,58.333,88.889,350.000,688.889,91.667,A
1290,-0.255,1.640,-0.380,152.778,88.889,366.667,788.889,100.000,N
1291,-0.260,1.665,-0.335,147.222,86.111,361.111,702.778,86.111,N
1292,-0.265,1.710,-0.445,147.222,88.889,363.889,694.444,8.333,N
1293,-0.335,1.550,-0.420,147.222,86.111,363.889,666.667,27.778,N
1294,-0.310,1.480,-0.395,147.222,88.889,380.556,680.556,13.889,N
1295,-0.270,1.625,-0.365,150.000,91.667,375.000,713.889,33.333,N
1296,-0.260,1.760,-0.430,161.111,86.111,358.333,680.556,33.333,N
1297,-0.330,1.580,-0.480,138.889,88.889,375.000,652.778,27.778,N
1298,-0.325,1.680,-0.385,144.444,88.889,375.000,697.222,44.444,N
1299,-0.285,1.715,-0.365,141.667,86.111,375.000,669.444,27.778,N
1300,-0.270,1.630,-0.400,150.000,86.111,363.889,708.333,38.889,N
1301,-0.330,1.700,-0.490,152.778,86.111,355.556,713.889,5.556,N
1302,-0.390,1.590,-0.285,155.556,86.111,361.111,691.667,22.222,N
1303,-0.285,1.515,-0.390,180.556,86.111,341.667,486.111,205.556,A
1304,-0.370,1.560,-0.360,147.222,91.667,369.444,572.222,86.111,e
1305,-0.235,1.750,-0.430,147.222,88.889,380.556,891.667,319.444,N
1306,-0.350,1.510,-0.505,147.222,88.889,372.222,736.111,155.556,N
1307,-0.385,1.480,-0.420,138.889,88.889,355.556,688.889,47.222,N
1308,-0.275,1.635,-0.355,144.444,83.333,386.111,700.000,11.111,N
1309,-0.280,1.700,-0.395,152.778,88.889,391.667,697.222,2.778,N
1310,-0.295,1.720,-0.505,141.667,86.111,377.778,711.111,13.889,N
1311,-0.405,1.470,-0.515,147.222,86.111,366.667,716.667,5.556,N
1312,-0.355,1.535,-0.420,144.444,86.111,375.000,691.667,25.000,N
1313,-0.315,1.465,-0.400,152.778,88.889,377.778,694.444,2.778,N
1314,-0.275,1.785,-0.410,161.111,86.111,388.889,722.222,27.778,N
1315,-0.330,1.650,-0.480,144.444,86.111,386.111,705.556,16.667,N
1316,-0.355,1.370,-0.425,150.000,86.111,369.444,683.333,22.222,N
1317,-0.300,1.625,-0.375,152.778,86.111,366.667,672.222,11.111,N
1318,-0.250,1.640,-0.325,150.000,88.889,333.333,700.000,27.778,N
1319,-0.275,1.720,-0.445,158.333,88.889,380.556,686.111,13.889,N
1320,-0.355,1.625,-0.450,150.000,86.111,377.778,694.444,8.333,N
1321,-0.305,1.575,-0.395,155.556,88.889,341.667,677.778,16.667,N
1322,-0.265,1.700,-0.380,147.222,86.111,375.000,663.889,13.889,N
1323,-0.300,1.625,-0.450,141.667,91.667,383.333,694.444,30.556,N
1324,-0.355,1.515,-0.395,141.667,86.111,386.111,700.000,5.556,N
1325,-0.290,1.630,-0.385,155.556,86.111,361.111,688.889,11.111,N
1326,-0.300,1.550,-0.400,150.000,91.667,369.444,663.889,25.000,N
1327,-0.320,1.625,-0.445,161.111,80.556,377.778,680.556,16.667,N
1328,-0.315,1.590,-0.420,138.889,86.111,391.667,663.889,16.667,N
1329,-0.350,1.520,-0.430,172.222,86.111,350.000,569.444,94.444,A
1330,-0.280,1.495,-0.410,155.556,88.889,372.222,786.111,216.667,N
1331,-0.410,0.365,-0.055,172.222,100.000,369.444,486.111,300.000,V
1332,-0.285,1.565,-0.485,141.667,80.556,380.556,961.111,475.000,N
1333,-0.480,0.280,-0.080,119.444,80.556,347.222,483.333,477.778,V
1334,-0.310,1.465,-0.465,138.889,83.333,383.333,952.778,469.444,N
1335,-0.465,0.305,0.045,127.778,80.556,327.778,486.111,466.667,V
1336,-0.230,1.610,-0.425,150.000,80.556,383.333,911.111,425.000,N
1337,-0.415,0.340,0.015,119.444,80.556,344.444,483.333,427.778,V
1338,-0.260,1.475,-0.530,152.778,88.889,405.556,902.778,419.444,N
1339,-0.510,0.235,-0.050,111.111,100.000,352.778,491.667,411.111,V
1340,-0.270,1.445,-0.440,147.222,88.889,397.222,944.444,452.778,N
1341,-0.435,0.425,0.115,102.778,94.444,325.000,477.778,466.667,V
1342,-0.245,1.585,-0.500,152.778,91.667,394.444,897.222,419.444,N
1343,-0.485,0.285,-0.010,125.000,72.222,322.222,491.667,405.556,V
1344,-0.305,1.430,-0.475,130.556,88.889,405.556,936.111,444.444,N
1345,-0.475,0.260,0.075,138.889,88.889,325.000,486.111,450.000,V
1346,-0.240,1.505,-0.455,150.000,88.889,400.000,883.333,397.222,N
1347,-0.455,0.360,0.005,161.111,77.778,313.889,502.778,380.556,V
1348,-0.330,1.510,-0.500,155.556,83.333,391.667,902.778,400.000,N
1349,-0.500,0.265,0.060,138.889,77.778,327.778,477.778,425.000,V
1350,-0.270,1.570,-0.430,161.111,75.000,394.444,713.889,236.111,N
1351,-0.295,1.590,-0.440,138.889,83.333,352.778,780.556,66.667,N
1352,-0.350,1.535,-0.510,147.222,91.667,377.778,713.889,66.667,N
1353,-0.410,1.445,-0.510,161.111,88.889,397.222,713.889,0.000,N
1354,-0.380,1.545,-0.430,155.556,88.889,363.889,697.222,16.667,N
1355,-0.350,1.635,-0.410,136.111,86.111,341.667,663.889,33.333,N
1356,-0.320,1.510,-0.435,150.000,77.778,391.667,669.444,5.556,N
1357,-0.350,1.600,-0.485,147.222,88.889,347.222,691.667,22.222,N
1358,-0.380,1.540,-0.465,155.556,86.111,363.889,677.778,13.889,N
1359,-0.360,1.610,-0.415,158.333,83.333,383.333,677.778,0.000,N
1360,-0.310,1.675,-0.405,150.000,86.111,366.667,686.111,8.333,N
1361,-0.315,1.580,-0.405,144.444,86.111,344.444,688.889,2.778,N
1362,-0.305,1.645,-0.445,141.667,86.111,375.000,669.444,19.444,N
1363,-0.355,1.560,-0.430,155.556,88.889,383.333,694.444,25.000,N
1364,-0.325,1.515,-0.395,150.000,77.778,347.222,694.444,0.000,N
1365,-0.295,1.630,-0.405,147.222,86.111,344.444,686.111,8.333,N
1366,-0.320,1.610,-0.445,136.111,88.889,355.556,680.556,5.556,N
1367,-0.340,1.585,-0.480,150.000,86.111,338.889,688.889,8.333,N
1368,-0.360,1.570,-0.445,147.222,88.889,377.778,688.889,0.000,N
1369,-0.310,1.520,-0.395,152.778,86.111,369.444,705.556,16.667,N
1370,-0.285,1.635,-0.350,138.889,88.889,377.778,691.667,13.889,N
1371,-0.265,1.735,-0.400,152.778,86.111,347.222,702.778,11.111,N
1372,-0.315,1.620,-0.430,138.889,88.889,380.556,694.444,8.333,N
1373,-0.305,1.575,-0.390,155.556,83.333,358.333,725.000,30.556,N
1374,-0.375,1.530,-0.360,150.000,88.889,375.000,622.222,102.778,A
1375,-0.255,1.655,-0.400,136.111,88.889,377.778,761.111,138.889,N
1376,-0.270,1.690,-0.420,144.444,77.778,380.556,691.667,69.444,N
1377,-0.330,1.605,-0.465,133.333,88.889,361.111,694.444,2.778,N
1378,-0.320,1.625,-0.375,158.333,83.333,361.111,700.000,5.556,N
1379,-0.260,1.665,-0.370,163.889,86.111,361.111,700.000,0.000,N
1380,-0.275,1.695,-0.330,144.444,86.111,377.778,680.556,19.444,N
1381,-0.270,1.685,-0.465,152.778,86.111,372.222,677.778,2.778,N
1382,-0.360,1.615,-0.490,152.778,88.889,402.778,700.000,22.222,N
1383,-0.405,1.440,-0.435,138.889,80.556,355.556,713.889,13.889,N
1384,-0.300,1.540,-0.385,144.444,88.889,377.778,675.000,38.889,N
1385,-0.295,1.585,-0.405,136.111,88.889,344.444,675.000,0.000,N
1386,-0.325,1.620,-0.490,155.556,83.333,391.667,677.778,2.778,N
1387,-0.400,1.480,-0.460,130.556,86.111,397.222,669.444,8.333,N
1388,-0.340,1.575,-0.380,138.889,86.111,361.111,702.778,33.333,N
1389,-0.285,1.730,-0.345,141.667,86.111,355.556,700.000,2.778,N
1390,-0.290,1.710,-0.475,147.222,88.889,352.778,680.556,19.444,N
1391,-0.395,1.420,-0.445,150.000,86.111,366.667,680.556,0.000,N
1392,-0.305,1.575,-0.385,152.778,88.889,372.222,694.444,13.889,N
1393,-0.290,1.640,-0.395,138.889,86.111,358.333,713.889,19.444,N
1394,-0.300,1.645,-0.520,152.778,88.889,366.667,688.889,25.000,N
1395,-0.430,1.510,-0.575,158.333,86.111,358.333,675.000,13.889,N
1396,-0.435,1.440,-0.475,150.000,86.111,383.333,677.778,2.778,N
1397,-0.355,1.530,-0.440,141.667,86.111,386.111,669.444,8.333,N
1398,-0.355,1.610,-0.500,138.889,88.889,361.111,691.667,22.222,N
1399,-0.440,1.540,-0.600,163.889,86.111,347.222,708.333,16.667,N
1400,-0.625,1.310,-0.545,144.444,88.889,352.778,569.444,138.889,A
1401,-0.325,1.550,-0.430,141.667,91.667,363.889,766.667,197.222,N
1402,-0.255,0.315,-0.320,58.333,91.667,344.444,588.889,177.778,V
1403,-0.465,1.095,-0.410,138.889,86.111,386.111,808.333,219.444,N
1404,-0.280,1.510,-0.450,152.778,86.111,358.333,691.667,116.667,N
1405,-0.375,1.325,-0.565,155.556,75.000,88.889,658.333,33.333,N
1406,-0.560,1.320,-0.485,147.222,86.111,386.111,683.333,25.000,N
1407,-0.350,1.485,-0.545,144.444,88.889,380.556,669.444,13.889,N
1408,-0.445,1.310,-0.590,150.000,86.111,369.444,680.556,11.111,N
1409,-0.490,1.180,-0.520,138.889,86.111,383.333,683.333,2.778,N
1410,-0.400,1.295,-0.475,138.889,88.889,352.778,666.667,16.667,N
1411,-0.385,1.500,-0.540,147.222,80.556,352.778,661.111,5.556,N
1412,-0.465,1.325,-0.580,147.222,86.111,383.333,677.778,16.667,N
1413,-0.495,1.320,-0.615,141.667,83.333,350.000,697.222,19.444,N
1414,-0.475,1.220,-0.510,150.000,86.111,344.444,675.000,22.222,N
1415,-0.430,1.270,-0.495,147.222,86.111,375.000,633.333,41.667,N
1416,-0.420,1.420,-0.575,152.778,88.889,363.889,680.556,47.222,N
1417,-0.490,1.230,-0.630,152.778,86.111,372.222,661.111,19.444,N
1418,-0.525,1.245,-0.650,144.444,83.333,380.556,688.889,27.778,N
1419,-0.560,1.345,-0.565,133.333,86.111,366.667,683.333,5.556,N
1420,-0.450,1.265,-0.495,141.667,86.111,347.222,683.333,0.000,N
1421,-0.415,1.370,-0.555,141.667,83.333,355.556,663.889,19.444,N
1422,-0.465,1.295,-0.605,152.778,91.667,369.444,719.444,55.556,N
1423,-0.520,1.285,-0.625,147.222,86.111,350.000,716.667,2.778,N
1424,-0.505,1.240,-0.590,136.111,86.111,358.333,691.667,25.000,N
1425,-0.440,1.245,-0.490,147.222,86.111,377.778,680.556,11.111,N
1426,-0.385,1.215,-0.460,147.222,86.111,369.444,705.556,25.000,N
1427,-0.390,1.215,-0.525,158.333,88.889,361.111,708.333,2.778,N
1428,-0.430,1.190,-0.560,155.556,88.889,375.000,694.444,13.889,N
1429,-0.475,1.320,-0.580,147.222,91.667,380.556,688.889,5.556,N
1430,-0.455,1.175,-0.470,152.778,75.000,352.778,683.333,5.556,N
1431,-0.345,1.315,-0.435,138.889,91.667,358.333,686.111,2.778,N
1432,-0.350,1.260,-0.455,144.444,83.333,350.000,730.556,44.444,N
1433,-0.340,1.235,-0.480,141.667,86.111,352.778,697.222,33.333,N
1434,-0.400,1.320,-0.545,147.222,88.889,361.111,694.444,2.778,N
1435,-0.455,1.275,-0.530,155.556,86.111,361.111,702.778,8.333,N
1436,-0.345,1.280,-0.430,141.667,86.111,372.222,683.333,19.444,N
1437,-0.405,1.395,-0.570,138.889,80.556,383.333,716.667,33.333,N
1438,-0.475,1.315,-0.560,152.778,86.111,341.667,725.000,8.333,N
1439,-0.435,1.330,-0.515,150.000,88.889,372.222,694.444,30.556,N
1440,-0.400,1.410,-0.570,144.444,91.667,383.333,691.667,2.778,N
1441,-0.450,1.240,-0.550,152.778,86.111,388.889,722.222,30.556,N
1442,-0.410,1.250,-0.545,141.667,88.889,358.333,738.889,16.667,N
1443,-0.410,1.330,-0.485,150.000,86.111,366.667,719.444,19.444,N
1444,-0.320,1.340,-0.425,147.222,86.111,375.000,691.667,27.778,N
1445,-0.305,1.435,-0.470,136.111,86.111,352.778,725.000,33.333,N
1446,-0.365,1.310,-0.525,155.556,88.889,372.222,713.889,11.111,N
1447,-0.430,1.235,-0.395,141.667,86.111,386.111,722.222,8.333,N
1448,-0.395,1.050,-0.550,172.222,88.889,350.000,502.778,219.444,A
1449,-0.505,1.380,-0.545,58.333,116.667,400.000,480.556,22.222,V
1450,-0.310,1.475,-0.510,133.333,83.333,394.444,1038.889,558.333,N
1451,-0.495,0.170,-0.100,144.444,75.000,325.000,516.667,522.222,V
1452,-0.135,-1.510,-0.260,50.000,0.000,283.333,766.667,250.000,V
1453,-0.475,1.410,-0.690,58.333,116.667,386.111,597.222,169.444,V
1454,-0.420,1.260,-0.575,144.444,91.667,386.111,1033.333,436.111,N
1455,-0.565,0.180,-0.010,127.778,94.444,363.889,486.111,547.222,V
1456,-0.275,1.430,-0.495,147.222,91.667,397.222,933.333,447.222,N
1457,-0.485,0.245,0.000,122.222,66.667,305.556,494.444,438.889,V
1458,-0.485,1.285,-0.600,61.111,86.111,388.889,777.778,283.333,N
1459,-0.600,0.075,-0.115,130.556,72.222,308.333,463.889,313.889,V
1460,-0.235,1.520,-0.705,58.333,116.667,405.556,994.444,530.556,V
1461,-0.275,1.225,-0.415,144.444,86.111,377.778,825.000,169.444,N
1462,-0.360,1.275,-0.550,130.556,83.333,383.333,688.889,136.111,N
1463,-0.440,1.170,-0.500,127.778,80.556,391.667,691.667,2.778,N
1464,-0.380,1.310,-0.460,125.000,83.333,363.889,697.222,5.556,N
1465,-0.315,1.685,-0.600,77.778,116.667,388.889,619.444,77.778,V
1466,-0.380,1.300,-0.515,155.556,86.111,372.222,750.000,130.556,N
1467,-0.405,1.365,-0.460,152.778,88.889,388.889,677.778,72.222,N
1468,-0.370,1.355,-0.455,141.667,86.111,336.111,688.889,11.111,N
1469,-0.370,1.375,-0.455,150.000,80.556,352.778,675.000,13.889,N
1470,-0.405,1.350,-0.540,144.444,86.111,352.778,705.556,30.556,N
1471,-0.415,1.335,-0.495,150.000,86.111,375.000,683.333,22.222,N
1472,-0.380,1.480,-0.505,86.111,116.667,405.556,630.556,52.778,V
1473,-0.335,1.430,-0.410,138.889,91.667,366.667,716.667,86.111,N
1474,-0.405,1.315,-0.425,150.000,88.889,344.444,616.667,100.000,N
1475,-0.375,1.440,-0.565,144.444,80.556,361.111,741.667,125.000,N
1476,-0.465,1.330,-0.560,144.444,86.111,344.444,719.444,22.222,N
1477,-0.435,1.375,-0.615,58.333,116.667,394.444,625.000,94.444,V
1478,-0.395,1.330,-0.495,136.111,88.889,380.556,738.889,113.889,N
1479,-0.405,1.255,-0.515,158.333,86.111,369.444,713.889,25.000,N
1480,-0.435,1.890,-0.635,152.778,116.667,391.667,711.111,2.778,F
1481,-0.475,1.290,-0.570,158.333,88.889,358.333,700.000,11.111,N
1482,-0.475,1.275,-0.525,158.333,86.111,361.111,666.667,33.333,N
1483,-0.400,1.360,-0.525,152.778,86.111,336.111,694.444,27.778,N
1484,-0.420,1.435,-0.505,163.889,83.333,391.667,672.222,22.222,N
1485,-0.435,1.690,-0.675,58.333,116.667,402.778,555.556,116.667,V
1486,-0.465,1.350,-0.575,150.000,86.111,391.667,850.000,294.444,N
1487,-0.400,1.280,-0.470,144.444,86.111,350.000,675.000,175.000,N
1488,-0.330,1.565,-0.610,58.333,116.667,405.556,583.333,91.667,V
1489,-0.370,1.395,-0.520,158.333,83.333,361.111,808.333,225.000,N
1490,-0.410,1.345,-0.565,138.889,86.111,358.333,705.556,102.778,N
1491,-0.370,1.285,-0.640,58.333,116.667,375.000,611.111,94.444,V
1492,-0.390,1.380,-0.465,147.222,88.889,375.000,758.333,147.222,N
1493,-0.375,1.155,-0.465,188.889,83.333,366.667,586.111,172.222,A
1494,-0.345,1.695,-0.660,125.000,116.667,397.222,741.667,155.556,V
1495,-0.620,0.205,-0.110,144.444,97.222,344.444,508.333,233.333,V
1496,-0.450,1.375,-0.655,58.333,116.667,405.556,644.444,136.111,V
1497,-0.620,0.285,0.015,52.778,86.111,327.778,469.444,175.000,V
1498,-0.375,1.645,-0.565,58.333,116.667,397.222,608.333,138.889,V
1499,-0.535,0.385,0.040,50.000,77.778,322.222,452.778,155.556,V
1500,-0.380,1.680,-0.670,58.333,116.667,394.444,625.000,172.222,V
1501,-0.635,0.335,-0.070,130.556,83.333,319.444,491.667,133.333,V
1502,-0.470,1.425,-0.705,58.333,116.667,116.667,616.667,125.000,V
1503,-0.685,0.260,-0.020,50.000,80.556,313.889,472.222,144.444,V
1504,-0.305,1.595,-0.575,58.333,116.667,402.778,633.333,161.111,V
1505,-0.560,0.395,0.075,47.222,77.778,327.778,461.111,172.222,V
1506,-0.360,1.745,-0.575,194.444,113.889,391.667,619.444,158.333,V
1507,-0.550,0.405,0.025,55.556,86.111,316.667,488.889,130.556,V
1508,-0.310,1.545,-0.660,58.333,116.667,402.778,636.111,147.222,V
1509,-0.630,0.340,-0.030,44.444,69.444,297.222,483.333,152.778,V
1510,-0.420,1.510,-0.575,163.889,116.667,394.444,627.778,144.444,V
1511,-0.560,0.345,0.080,47.222,75.000,316.667,447.222,180.556,V
1512,-0.345,1.730,-0.620,58.333,116.667,402.778,666.667,219.444,V
1513,-0.605,0.435,-0.005,63.889,83.333,336.111,483.333,183.333,V
1514,-0.415,1.545,-0.655,172.222,116.667,402.778,644.444,161.111,V
1515,-0.630,0.300,-0.035,47.222,83.333,325.000,472.222,172.222,V
1516,-0.425,1.470,-0.670,58.333,116.667,405.556,594.444,122.222,V
1517,-0.605,0.280,0.005,50.000,75.000,316.667,475.000,119.444,V
1518,-0.430,1.635,-0.645,58.333,116.667,400.000,680.556,205.556,V
1519,-0.645,0.325,-0.015,105.556,83.333,325.000,447.222,233.333,V
1520,-0.360,1.645,-0.655,58.333,116.667,405.556,675.000,227.778,V
1521,-0.650,0.285,-0.065,50.000,75.000,305.556,491.667,183.333,V
1522,-0.465,1.430,-0.695,58.333,116.667,391.667,636.111,144.444,V
1523,-0.675,0.260,-0.055,47.222,80.556,308.333,461.111,175.000,V
1524,-0.405,1.685,-0.675,58.333,116.667,405.556,669.444,208.333,V
1525,-0.620,0.315,-0.020,50.000,80.556,338.889,477.778,191.667,V
1526,-0.390,1.725,-0.645,58.333,116.667,402.778,669.444,191.667,V
1527,-0.640,0.290,-0.030,52.778,77.778,322.222,466.667,202.778,V
1528,-0.425,1.470,-0.680,58.333,116.667,405.556,600.000,133.333,V
1529,-0.680,0.235,-0.035,122.222,75.000,313.889,469.444,130.556,V
1530,-0.425,1.560,-0.625,58.333,116.667,397.222,669.444,200.000,V
1531,-0.625,0.340,0.040,108.333,80.556,325.000,450.000,219.444,V
1532,-0.325,1.750,-0.610,58.333,116.667,405.556,677.778,227.778,V
1533,-0.610,0.340,-0.005,130.556,75.000,300.000,480.556,197.222,V
1534,-0.420,1.550,-0.660,58.333,116.667,405.556,652.778,172.222,V
1535,-0.660,0.240,-0.040,55.556,83.333,313.889,472.222,180.556,V
1536,-0.450,1.600,-0.605,66.667,116.667,116.667,680.556,208.333,V
1537,-0.645,0.275,0.060,108.333,83.333,330.556,472.222,208.333,V
1538,-0.385,1.680,-0.630,58.333,116.667,397.222,713.889,241.667,V
1539,-0.630,0.320,-0.025,125.000,80.556,311.111,472.222,241.667,V
1540,-0.450,1.510,-0.685,58.333,116.667,397.222,669.444,197.222,V
1541,-0.685,0.215,-0.020,50.000,80.556,313.889,463.889,205.556,V
1542,-0.495,1.620,-0.660,58.333,116.667,405.556,722.222,258.333,V
1543,-0.650,0.265,0.005,58.333,80.556,313.889,469.444,252.778,V
1544,-0.420,1.670,-0.695,58.333,116.667,402.778,755.556,286.111,V
1545,-0.675,0.200,-0.055,111.111,72.222,297.222,469.444,286.111,V
1546,-0.510,1.395,-0.685,58.333,116.667,397.222,725.000,255.556,V
1547,-0.670,0.220,0.025,102.778,77.778,305.556,466.667,258.333,V
1548,-0.400,1.715,-0.590,58.333,116.667,405.556,722.222,255.556,V
1549,-0.525,0.285,0.095,52.778,83.333,313.889,500.000,222.222,V
1550,-0.260,1.670,-0.600,58.333,116.667,394.444,675.000,175.000,V
1551,-0.600,0.315,0.000,138.889,72.222,297.222,475.000,200.000,V
1552,-0.370,1.385,-0.615,58.333,116.667,397.222,686.111,211.111,V
1553,-0.590,0.230,0.085,55.556,80.556,316.667,463.889,222.222,V
1554,-0.275,1.700,-0.575,58.333,116.667,397.222,744.444,280.556,V
1555,-0.515,0.290,0.155,55.556,75.000,316.667,488.889,255.556,V
1556,-0.315,1.725,-0.585,58.333,116.667,400.000,769.444,280.556,V
1557,-0.580,0.280,0.035,58.333,75.000,308.333,466.667,302.778,V
1558,-0.420,1.540,-0.575,58.333,116.667,402.778,794.444,327.778,V
1559,-0.545,0.280,0.080,102.778,80.556,308.333,483.333,311.111,V
1560,-0.015,-1.555,-0.220,44.444,2.778,286.111,1080.556,597.222,V
1561,-0.370,1.225,-0.535,138.889,88.889,377.778,933.333,147.222,N
1562,-0.410,1.090,-0.450,147.222,88.889,361.111,716.667,216.667,N
1563,-0.385,1.135,-0.485,136.111,88.889,369.444,697.222,19.444,N
1564,-0.385,1.210,-0.435,144.444,86.111,355.556,708.333,11.111,N
1565,-0.360,1.155,-0.525,147.222,88.889,347.222,711.111,2.778,N
1566,-0.420,1.125,-0.505,138.889,83.333,344.444,694.444,16.667,N
1567,-0.400,1.200,-0.470,147.222,86.111,352.778,663.889,30.556,N
1568,-0.385,1.140,-0.455,147.222,91.667,377.778,708.333,44.444,N
1569,-0.350,1.395,-0.485,144.444,86.111,341.667,705.556,2.778,N
1570,-0.415,1.295,-0.505,133.333,83.333,358.333,677.778,27.778,N
1571,-0.380,1.310,-0.430,138.889,86.111,355.556,675.000,2.778,N
1572,-0.345,1.245,-0.450,158.333,86.111,330.556,697.222,22.222,N
1573,-0.360,1.405,-0.450,166.667,86.111,386.111,672.222,25.000,N
1574,-0.390,1.370,-0.520,158.333,88.889,355.556,697.222,25.000,N
1575,-0.450,1.205,-0.480,127.778,80.556,369.444,688.889,8.333,N
1576,-0.340,1.275,-0.465,144.444,86.111,341.667,691.667,2.778,N
1577,-0.380,1.295,-0.435,161.111,83.333,358.333,683.333,8.333,N
1578,-0.320,1.345,-0.330,150.000,88.889,386.111,719.444,36.111,N
1579,-0.330,1.320,-0.515,186.111,86.111,330.556,513.889,205.556,A
1580,-0.435,1.400,-0.495,138.889,86.111,363.889,769.444,255.556,N
1581,-0.335,1.340,-0.445,136.111,83.333,350.000,708.333,61.111,N
1582,-0.340,1.325,-0.430,138.889,86.111,358.333,727.778,19.444,N
1583,-0.325,1.490,-0.490,152.778,88.889,347.222,711.111,16.667,N
1584,-0.385,1.355,-0.540,158.333,88.889,336.111,716.667,5.556,N
1585,-0.395,1.320,-0.465,150.000,88.889,375.000,691.667,25.000,N
1586,-0.330,1.265,-0.455,144.444,91.667,347.222,697.222,5.556,N
1587,-0.350,1.315,-0.420,152.778,88.889,377.778,697.222,0.000,N
1588,-0.325,1.420,-0.515,161.111,88.889,355.556,722.222,25.000,N
1589,-0.375,1.355,-0.490,169.444,86.111,350.000,705.556,16.667,N
1590,-0.365,1.285,-0.460,147.222,88.889,350.000,666.667,38.889,N
1591,-0.335,1.375,-0.455,150.000,88.889,369.444,677.778,11.111,N
1592,-0.350,1.435,-0.430,150.000,80.556,361.111,680.556,2.778,N
1593,0.755,-0.790,-0.580,75.000,61.111,280.556,658.333,22.222,V
1594,-0.370,1.325,-0.455,152.778,88.889,363.889,741.667,83.333,N
1595,-0.320,1.175,-0.440,141.667,88.889,383.333,680.556,61.111,N
1596,-0.340,1.170,-0.435,141.667,88.889,355.556,688.889,8.333,N
1597,-0.325,1.270,-0.410,141.667,88.889,380.556,711.111,22.222,N
1598,-0.345,1.325,-0.505,141.667,88.889,375.000,708.333,2.778,N
1599,-0.405,1.330,-0.500,147.222,83.333,347.222,694.444,13.889,N
1600,-0.380,1.395,-0.470,141.667,86.111,380.556,669.444,25.000,N
1601,-0.355,1.300,-0.470,155.556,88.889,336.111,705.556,36.111,N
1602,-0.380,1.415,-0.490,166.667,86.111,352.778,686.111,19.444,N
1603,-0.410,1.435,-0.535,152.778,88.889,383.333,705.556,19.444,N
1604,-0.420,1.330,-0.535,158.333,86.111,363.889,683.333,22.222,N
1605,-0.385,1.210,-0.500,141.667,88.889,352.778,686.111,2.778,N
1606,-0.365,1.230,-0.475,155.556,86.111,366.667,713.889,27.778,N
1607,-0.340,1.410,-0.495,155.556,80.556,358.333,733.333,19.444,N
1608,-0.380,1.385,-0.550,161.111,88.889,369.444,702.778,30.556,N
1609,-0.415,1.365,-0.555,147.222,88.889,380.556,683.333,19.444,N
1610,-0.400,1.295,-0.485,144.444,88.889,380.556,700.000,16.667,N
1611,-0.385,1.230,-0.495,144.444,88.889,380.556,700.000,0.000,N
1612,-0.380,1.425,-0.510,144.444,88.889,369.444,711.111,11.111,N
1613,-0.410,1.350,-0.545,144.444,83.333,344.444,722.222,11.111,N
1614,-0.445,1.335,-0.555,141.667,86.111,355.556,691.667,30.556,N
1615,-0.405,1.270,-0.535,152.778,88.889,369.444,686.111,5.556,N
1616,-0.425,1.335,-0.485,144.444,88.889,388.889,716.667,30.556,N
1617,-0.370,1.330,-0.445,152.778,83.333,366.667,722.222,5.556,N
1618,-0.360,1.295,-0.460,150.000,80.556,352.778,702.778,19.444,N
1619,-0.340,1.360,-0.530,155.556,86.111,338.889,691.667,11.111,N
1620,-0.430,1.275,-0.575,147.222,86.111,347.222,694.444,2.778,N
1621,-0.435,1.210,-0.515,155.556,88.889,366.667,680.556,13.889,N
1622,-0.330,-1.630,0.005,30.556,0.000,227.778,516.667,163.889,V
1623,-0.380,1.320,-0.530,138.889,88.889,405.556,875.000,358.333,N
1624,-0.530,0.250,-0.070,144.444,69.444,311.111,497.222,377.778,V
1625,-0.030,-1.440,-0.205,50.000,0.000,247.222,772.222,275.000,V
1626,-0.335,1.290,-0.450,158.333,86.111,388.889,844.444,72.222,N
1627,-0.350,1.240,-0.415,138.889,83.333,361.111,700.000,144.444,N
1628,-0.345,1.320,-0.485,141.667,86.111,355.556,700.000,0.000,N
1629,-0.390,1.360,-0.515,138.889,80.556,383.333,672.222,27.778,N
1630,-0.390,1.310,-0.485,136.111,86.111,352.778,705.556,33.333,N
1631,-0.390,1.275,-0.475,163.889,83.333,347.222,700.000,5.556,N
1632,-0.375,1.235,-0.475,155.556,91.667,366.667,686.111,13.889,N
1633,-0.370,1.375,-0.520,155.556,88.889,377.778,688.889,2.778,N
1634,-0.440,1.270,-0.535,136.111,86.111,372.222,675.000,13.889,N
1635,-0.410,1.310,-0.510,155.556,91.667,372.222,697.222,22.222,N
1636,-0.415,1.230,-0.505,166.667,86.111,347.222,722.222,25.000,N
1637,-0.415,1.250,-0.500,163.889,91.667,361.111,694.444,27.778,N
1638,-0.415,1.295,-0.555,144.444,86.111,350.000,675.000,19.444,N
1639,-0.475,1.300,-0.580,158.333,86.111,383.333,691.667,16.667,N
1640,-0.490,1.270,-0.540,138.889,88.889,391.667,702.778,11.111,N
1641,-0.425,1.200,-0.535,141.667,88.889,380.556,702.778,0.000,N
1642,-0.435,1.270,-0.520,155.556,86.111,327.778,722.222,19.444,N
1643,-0.385,1.315,-0.460,152.778,86.111,380.556,680.556,41.667,N
1644,-0.350,1.445,-0.475,152.778,88.889,372.222,680.556,0.000,N
1645,-0.360,1.365,-0.490,161.111,86.111,369.444,705.556,25.000,N
1646,-0.375,1.330,-0.445,141.667,86.111,355.556,708.333,2.778,N
1647,-0.370,1.300,-0.565,147.222,88.889,344.444,708.333,0.000,N
1648,-0.395,1.435,-0.435,147.222,86.111,341.667,677.778,30.556,N
1649,-0.340,1.390,-0.510,147.222,83.333,355.556,700.000,22.222,N
1650,-0.405,1.320,-0.500,144.444,86.111,402.778,666.667,33.333,N
1651,-0.345,1.390,-0.445,155.556,80.556,352.778,711.111,44.444,N
1652,-0.370,1.285,-0.465,141.667,88.889,338.889,688.889,22.222,N
1653,-0.375,1.380,-0.460,155.556,83.333,350.000,683.333,5.556,N
1654,-0.395,1.340,-0.535,136.111,83.333,358.333,658.333,25.000,N
1655,-0.425,1.305,-0.485,155.556,86.111,363.889,700.000,41.667,N
1656,-0.380,1.345,-0.450,158.333,86.111,358.333,705.556,5.556,N
1657,-0.350,1.225,-0.420,158.333,88.889,336.111,688.889,16.667,N
1658,-0.310,1.405,-0.330,158.333,83.333,361.111,675.000,13.889,N
1659,-0.330,1.320,-0.510,194.444,83.333,355.556,500.000,175.000,A
1660,-0.370,1.450,-0.475,155.556,86.111,405.556,761.111,261.111,N
1661,-0.475,0.230,-0.050,163.889,100.000,352.778,511.111,250.000,V
1662,-0.105,-1.825,-0.005,47.222,0.000,261.111,769.444,258.333,V
1663,-0.455,1.355,-0.435,58.333,86.111,350.000,708.333,61.111,e
1664,-0.305,1.455,-0.295,133.333,88.889,391.667,852.778,144.444,N
1665,-0.310,1.140,0.020,194.444,80.556,327.778,533.333,319.444,a
1666,-0.325,1.400,-0.470,144.444,88.889,372.222,791.667,258.333,N
1667,-0.310,1.350,-0.400,147.222,86.111,350.000,725.000,66.667,N
1668,-0.290,1.440,-0.445,155.556,88.889,338.889,708.333,16.667,N
1669,-0.330,1.455,-0.475,155.556,86.111,366.667,705.556,2.778,N
1670,-0.360,1.430,-0.465,155.556,88.889,394.444,702.778,2.778,N
1671,-0.370,1.375,-0.470,141.667,83.333,380.556,711.111,8.333,N
1672,-0.390,1.170,-0.470,144.444,88.889,366.667,713.889,2.778,N
1673,-0.355,1.340,-0.485,144.444,77.778,341.667,688.889,25.000,N
1674,-0.390,1.440,-0.495,155.556,88.889,388.889,694.444,5.556,N
1675,-0.375,1.315,-0.470,155.556,86.111,366.667,722.222,27.778,N
1676,-0.375,1.220,-0.500,155.556,86.111,363.889,700.000,22.222,N
1677,-0.390,1.220,-0.435,141.667,86.111,344.444,688.889,11.111,N
1678,-0.370,1.365,-0.500,147.222,75.000,358.333,677.778,11.111,N
1679,-0.410,1.365,-0.510,152.778,80.556,355.556,705.556,27.778,N
1680,-0.380,1.465,-0.450,161.111,86.111,363.889,697.222,8.333,N
1681,-0.375,1.315,-0.460,155.556,88.889,380.556,686.111,11.111,N
1682,-0.365,1.275,-0.430,150.000,88.889,341.667,702.778,16.667,N
1683,-0.340,1.385,-0.460,144.444,86.111,338.889,675.000,27.778,N
1684,-0.385,1.385,-0.495,141.667,86.111,355.556,677.778,2.778,N
1685,-0.375,1.270,-0.460,152.778,83.333,344.444,711.111,33.333,N
1686,-0.395,1.345,-0.490,155.556,86.111,355.556,688.889,22.222,N
1687,-0.390,1.295,-0.480,152.778,88.889,372.222,658.333,30.556,N
1688,-0.420,1.445,-0.560,144.444,80.556,383.333,683.333,25.000,N
1689,-0.470,1.340,-0.570,136.111,86.111,369.444,680.556,2.778,N
1690,-0.455,1.405,-0.510,152.778,80.556,347.222,716.667,36.111,N
1691,-0.400,1.275,-0.490,161.111,86.111,355.556,700.000,16.667,N
1692,-0.380,1.355,-0.440,150.000,88.889,355.556,705.556,5.556,N
1693,-0.350,1.470,-0.505,155.556,80.556,352.778,691.667,13.889,N
1694,-0.405,1.450,-0.510,152.778,88.889,380.556,711.111,19.444,N
1695,-0.380,1.415,-0.460,155.556,88.889,375.000,711.111,0.000,N
1696,-0.360,1.270,-0.445,147.222,88.889,341.667,697.222,13.889,N
1697,-0.330,1.340,-0.380,152.778,88.889,366.667,672.222,25.000,N
1698,-0.305,1.425,-0.460,150.000,88.889,375.000,691.667,19.444,N
1699,-0.355,1.425,-0.375,163.889,86.111,400.000,688.889,2.778,N
1700,-0.375,1.345,-0.465,180.556,80.556,358.333,522.222,166.667,A
1701,-0.415,1.475,-0.490,138.889,83.333,363.889,763.889,241.667,N
1702,-0.490,0.250,-0.025,169.444,97.222,352.778,477.778,286.111,V
1703,-0.055,-1.720,-0.080,44.444,0.000,266.667,727.778,250.000,V
1704,-0.360,1.360,-0.540,144.444,83.333,397.222,961.111,233.333,N
1705,-0.395,1.395,-0.440,141.667,80.556,355.556,713.889,247.222,N
1706,-0.385,1.295,-0.495,136.111,88.889,369.444,686.111,27.778,N
1707,-0.375,1.295,-0.480,138.889,86.111,355.556,683.333,2.778,N
1708,-0.405,1.290,-0.530,141.667,75.000,358.333,686.111,2.778,N
1709,-0.430,1.345,-0.505,150.000,86.111,377.778,688.889,2.778,N
1710,-0.360,1.355,-0.455,158.333,91.667,383.333,694.444,5.556,N
1711,-0.360,1.335,-0.455,152.778,88.889,366.667,683.333,11.111,N
1712,-0.345,1.430,-0.485,150.000,86.111,352.778,683.333,0.000,N
1713,-0.390,1.355,-0.530,152.778,77.778,363.889,686.111,2.778,N
1714,-0.425,1.350,-0.490,163.889,88.889,350.000,716.667,30.556,N
1715,-0.365,1.415,-0.435,150.000,86.111,377.778,675.000,41.667,N
1716,-0.360,1.395,-0.410,147.222,86.111,366.667,675.000,0.000,N
1717,-0.295,1.490,-0.465,152.778,86.111,372.222,694.444,19.444,N
1718,-0.390,1.415,-0.490,133.333,83.333,369.444,672.222,22.222,N
1719,-0.365,1.410,-0.460,147.222,86.111,372.222,691.667,19.444,N
1720,-0.360,1.305,-0.435,158.333,86.111,369.444,705.556,13.889,N
1721,-0.345,1.295,-0.425,144.444,88.889,375.000,661.111,44.444,N
1722,-0.345,1.445,-0.470,138.889,86.111,372.222,672.222,11.111,N
1723,-0.385,1.335,-0.480,152.778,83.333,369.444,705.556,33.333,N
1724,-0.375,1.310,-0.475,147.222,83.333,350.000,722.222,16.667,N
1725,-0.340,1.390,-0.415,155.556,86.111,341.667,705.556,16.667,N
1726,-0.350,1.310,-0.430,150.000,88.889,375.000,666.667,38.889,N
1727,-0.320,1.470,-0.490,166.667,83.333,352.778,716.667,50.000,N
1728,-0.370,1.240,-0.520,152.778,88.889,377.778,686.111,30.556,N
1729,-0.420,1.270,-0.510,163.889,83.333,377.778,711.111,25.000,N
1730,-0.380,1.310,-0.490,147.222,88.889,352.778,705.556,5.556,N
1731,-0.395,1.295,-0.500,152.778,88.889,338.889,688.889,16.667,N
1732,-0.410,1.295,-0.535,141.667,86.111,352.778,683.333,5.556,N
1733,-0.430,1.370,-0.560,158.333,86.111,363.889,716.667,33.333,N
1734,-0.450,1.210,-0.485,144.444,80.556,386.111,708.333,8.333,N
1735,-0.355,1.285,-0.455,144.444,86.111,361.111,688.889,19.444,N
1736,-0.345,1.220,-0.445,144.444,88.889,347.222,688.889,0.000,N
1737,-0.380,1.325,-0.525,138.889,80.556,358.333,688.889,0.000,N
1738,-0.425,1.315,-0.555,144.444,88.889,358.333,708.333,19.444,N
1739,-0.440,1.195,-0.515,155.556,75.000,352.778,686.111,22.222,N
1740,-0.415,1.250,-0.500,141.667,86.111,375.000,683.333,2.778,N
1741,-0.410,1.200,-0.505,147.222,88.889,375.000,675.000,8.333,N
1742,-0.440,1.355,-0.570,155.556,83.333,386.111,686.111,11.111,N
1743,-0.455,1.330,-0.510,144.444,88.889,377.778,711.111,25.000,N
1744,-0.375,1.340,-0.475,161.111,86.111,352.778,691.667,19.444,N
1745,-0.370,1.300,-0.420,150.000,91.667,380.556,672.222,19.444,N
1746,-0.345,1.440,-0.480,138.889,86.111,363.889,686.111,13.889,N
1747,-0.390,1.440,-0.535,161.111,83.333,361.111,697.222,11.111,N
1748,-0.425,1.425,-0.530,155.556,88.889,369.444,700.000,2.778,N
1749,-0.395,1.335,-0.475,150.000,77.778,358.333,700.000,0.000,N
1750,-0.400,1.240,-0.475,147.222,86.111,363.889,675.000,25.000,N
1751,-0.365,1.345,-0.470,163.889,88.889,361.111,697.222,22.222,N
1752,-0.395,1.300,-0.535,144.444,88.889,377.778,680.556,16.667,N
1753,-0.425,1.330,-0.535,141.667,86.111,347.222,697.222,16.667,N
1754,-0.390,1.315,-0.490,155.556,77.778,352.778,688.889,8.333,N
1755,-0.400,1.185,-0.460,158.333,91.667,358.333,675.000,13.889,N
1756,-0.375,1.405,-0.515,150.000,86.111,355.556,694.444,19.444,N
1757,-0.405,1.390,-0.540,155.556,80.556,363.889,697.222,2.778,N
1758,-0.420,1.425,-0.475,163.889,91.667,375.000,713.889,16.667,N
1759,-0.325,1.265,-0.460,147.222,86.111,344.444,705.556,8.333,N
1760,-0.355,1.325,-0.430,133.333,88.889,363.889,683.333,22.222,N
1761,-0.335,1.430,-0.495,155.556,83.333,350.000,708.333,25.000,N
1762,-0.415,1.340,-0.565,158.333,88.889,377.778,713.889,5.556,N
1763,-0.405,1.405,-0.480,147.222,86.111,377.778,697.222,16.667,N
1764,-0.370,1.350,-0.460,141.667,83.333,352.778,688.889,8.333,N
1765,-0.380,1.280,-0.440,141.667,88.889,372.222,683.333,5.556,N
1766,-0.345,1.300,-0.485,144.444,86.111,369.444,700.000,16.667,N
1767,-0.390,1.410,-0.530,150.000,83.333,361.111,708.333,8.333,N
1768,-0.385,1.395,-0.465,166.667,86.111,355.556,711.111,2.778,N
1769,-0.365,1.300,-0.470,144.444,88.889,372.222,680.556,30.556,N
1770,-0.400,1.325,-0.470,136.111,83.333,341.667,683.333,2.778,N
1771,-0.375,1.340,-0.510,150.000,83.333,375.000,680.556,2.778,N
1772,-0.415,1.400,-0.520,161.111,86.111,358.333,719.444,38.889,N
1773,-0.415,1.300,-0.475,152.778,88.889,380.556,677.778,41.667,N
1774,-0.350,1.275,-0.475,141.667,88.889,380.556,661.111,16.667,N
1775,-0.385,1.285,-0.435,152.778,86.111,363.889,686.111,25.000,N
1776,-0.350,1.325,-0.480,141.667,86.111,375.000,694.444,8.333,N
1777,-0.380,1.375,-0.490,155.556,88.889,366.667,702.778,8.333,N
1778,-0.360,1.445,-0.465,169.444,83.333,358.333,713.889,11.111,N
1779,-0.335,1.315,-0.445,161.111,80.556,352.778,697.222,16.667,N
1780,-0.350,1.220,-0.450,152.778,88.889,350.000,686.111,11.111,N
1781,-0.310,1.455,-0.430,150.000,88.889,377.778,700.000,13.889,N
1782,-0.330,1.360,-0.495,147.222,88.889,383.333,730.556,30.556,N
1783,-0.370,1.465,-0.480,166.667,86.111,355.556,686.111,44.444,N
1784,-0.350,1.395,-0.465,141.667,86.111,380.556,675.000,11.111,N
1785,-0.355,1.255,-0.435,161.111,88.889,355.556,697.222,22.222,N
1786,-0.335,1.335,-0.435,150.000,83.333,361.111,688.889,8.333,N
1787,-0.325,1.330,-0.465,147.222,86.111,380.556,716.667,27.778,N
1788,-0.360,1.385,-0.470,152.778,75.000,350.000,719.444,2.778,N
1789,-0.330,1.345,-0.450,150.000,86.111,375.000,683.333,36.111,N
1790,-0.360,1.250,-0.450,144.444,83.333,350.000,691.667,8.333,N
1791,-0.325,1.470,-0.455,152.778,91.667,375.000,711.111,19.444,N
1792,-0.390,1.385,-0.515,138.889,83.333,355.556,722.222,11.111,N
1793,-0.410,1.390,-0.485,147.222,83.333,355.556,702.778,19.444,N
1794,-0.410,1.215,-0.550,147.222,86.111,344.444,677.778,25.000,N
1795,-0.430,1.265,-0.530,161.111,88.889,363.889,708.333,30.556,N
1796,-0.420,1.350,-0.525,161.111,86.111,377.778,688.889,19.444,N
1797,-0.405,1.250,-0.560,155.556,86.111,402.778,708.333,19.444,N
1798,-0.470,1.345,-0.540,144.444,86.111,366.667,705.556,2.778,N
1799,-0.405,1.300,-0.495,158.333,80.556,355.556,705.556,0.000,N
1800,-0.375,1.225,-0.470,147.222,88.889,383.333,677.778,27.778,N
1801,-0.350,1.395,-0.485,163.889,86.111,388.889,727.778,50.000,N
1802,-0.415,1.330,-0.560,147.222,86.111,383.333,708.333,19.444,N
1803,-0.445,1.285,-0.530,152.778,80.556,344.444,686.111,22.222,N
1804,-0.445,1.185,-0.500,133.333,83.333,347.222,666.667,19.444,N
1805,-0.375,1.180,-0.450,158.333,86.111,363.889,694.444,27.778,N
1806,-0.335,1.345,-0.515,163.889,86.111,366.667,675.000,19.444,N
1807,-0.425,1.300,-0.545,155.556,86.111,358.333,697.222,22.222,N
1808,-0.435,1.290,-0.505,147.222,88.889,391.667,677.778,19.444,N
1809,-0.400,1.300,-0.465,155.556,83.333,352.778,691.667,13.889,N
1810,-0.360,1.300,-0.420,147.222,88.889,377.778,686.111,5.556,N
1811,-0.350,1.415,-0.500,161.111,88.889,347.222,725.000,38.889,N
1812,-0.400,1.305,-0.490,155.556,86.111,394.444,686.111,38.889,N
1813,-0.380,1.185,-0.500,150.000,83.333,361.111,697.222,11.111,N
1814,-0.400,1.190,-0.480,141.667,83.333,380.556,683.333,13.889,N
1815,-0.350,1.295,-0.505,141.667,86.111,352.778,697.222,13.889,N
1816,-0.415,1.320,-0.560,152.778,86.111,375.000,708.333,11.111,N
1817,-0.435,1.325,-0.530,152.778,88.889,341.667,702.778,5.556,N
1818,-0.425,1.200,-0.510,161.111,80.556,355.556,683.333,19.444,N
1819,-0.425,1.270,-0.470,147.222,83.333,361.111,705.556,22.222,N
1820,-0.375,1.325,-0.500,169.444,86.111,377.778,711.111,5.556,N
1821,-0.410,1.395,-0.525,141.667,80.556,388.889,719.444,8.333,N
1822,-0.520,1.240,-0.490,191.667,83.333,361.111,591.667,127.778,A
1823,-0.470,1.120,-0.500,102.778,86.111,386.111,716.667,125.000,e
1824,-0.385,1.325,-0.460,144.444,83.333,355.556,769.444,52.778,N
1825,-0.390,1.335,-0.525,147.222,83.333,388.889,686.111,83.333,N
1826,-0.410,1.270,-0.520,155.556,86.111,397.222,730.556,44.444,N
1827,-0.400,1.300,-0.495,136.111,80.556,347.222,711.111,19.444,N
1828,-0.405,1.295,-0.475,136.111,86.111,347.222,697.222,13.889,N
1829,-0.350,1.320,-0.520,147.222,86.111,372.222,680.556,16.667,N
1830,-0.450,1.350,-0.580,163.889,88.889,386.111,730.556,50.000,N
1831,-0.450,1.200,-0.525,147.222,88.889,377.778,702.778,27.778,N
1832,-0.435,1.185,-0.525,138.889,80.556,347.222,688.889,13.889,N
1833,-0.405,1.180,-0.475,150.000,88.889,372.222,686.111,2.778,N
1834,-0.385,1.385,-0.525,138.889,80.556,350.000,683.333,2.778,N
1835,-0.420,1.310,-0.515,152.778,88.889,402.778,686.111,2.778,N
1836,-0.375,1.225,-0.430,147.222,88.889,377.778,688.889,2.778,N
1837,-0.360,1.280,-0.415,144.444,77.778,355.556,686.111,2.778,N
1838,-0.300,1.380,-0.410,147.222,88.889,355.556,680.556,5.556,N
1839,-0.315,1.360,-0.450,152.778,86.111,375.000,675.000,5.556,N
1840,-0.360,1.405,-0.460,166.667,86.111,383.333,722.222,47.222,N
1841,-0.310,1.315,-0.405,158.333,86.111,361.111,688.889,33.333,N
1842,-0.310,1.320,-0.405,133.333,75.000,350.000,669.444,19.444,N
1843,-0.315,1.330,-0.395,150.000,83.333,352.778,702.778,33.333,N
1844,-0.320,1.340,-0.440,144.444,86.111,400.000,688.889,13.889,N
1845,-0.335,1.445,-0.425,138.889,80.556,355.556,711.111,22.222,N
1846,-0.310,1.380,-0.415,147.222,83.333,347.222,705.556,5.556,N
1847,-0.310,1.365,-0.400,152.778,88.889,363.889,686.111,19.444,N
1848,-0.305,1.370,-0.395,138.889,86.111,358.333,677.778,8.333,N
1849,-0.310,1.380,-0.455,147.222,88.889,377.778,711.111,33.333,N
1850,-0.360,1.460,-0.480,152.778,86.111,361.111,719.444,8.333,N
1851,-0.355,1.420,-0.460,150.000,86.111,350.000,711.111,8.333,N
1852,-0.375,1.290,-0.470,147.222,88.889,363.889,683.333,27.778,N
1853,-0.405,1.410,-0.475,166.667,86.111,347.222,716.667,33.333,N
1854,-0.385,1.455,-0.530,163.889,86.111,383.333,700.000,16.667,N
1855,-0.425,1.290,-0.540,147.222,88.889,377.778,702.778,2.778,N
1856,-0.395,1.340,-0.485,138.889,83.333,391.667,683.333,19.444,N
1857,-0.390,1.160,-0.470,138.889,88.889,352.778,680.556,2.778,N
1858,-0.345,1.420,-0.495,152.778,88.889,372.222,677.778,2.778,N
1859,-0.395,1.375,-0.535,155.556,83.333,358.333,705.556,27.778,N
1860,-0.430,1.370,-0.470,150.000,86.111,377.778,683.333,22.222,N
1861,-0.360,1.255,-0.335,125.000,86.111,405.556,677.778,5.556,N
1862,-0.335,1.195,-0.435,172.222,86.111,347.222,525.000,152.778,A
1863,-0.315,1.435,-0.515,141.667,88.889,377.778,769.444,244.444,N
1864,-0.515,0.235,-0.150,177.778,100.000,355.556,497.222,272.222,V
