id,Pamp,Ramp,Tamp,PR,QRS,QT,RRI,dRRI,label
1,-0.460,1.705,-0.540,105.556,61.111,77.778,886.111,127.778,N
2,-0.405,1.795,-0.575,55.556,61.111,372.222,586.111,300.000,N
3,-0.520,1.735,-0.595,166.667,86.111,100.000,808.333,222.222,N
4,-0.505,1.745,-0.580,102.778,77.778,88.889,600.000,208.333,N
5,-0.540,1.775,-0.580,111.111,58.333,377.778,786.111,186.111,N
6,-0.505,1.775,-0.615,75.000,58.333,72.222,752.778,33.333,N
7,-0.550,1.710,-0.675,52.778,63.889,77.778,683.333,69.444,N
8,-0.545,1.750,-0.715,186.111,63.889,77.778,797.222,113.889,N
9,-0.545,1.735,-0.600,58.333,58.333,69.444,608.333,188.889,N
10,-0.525,1.695,-0.595,161.111,63.889,77.778,630.556,22.222,N
11,-0.605,1.675,-0.730,50.000,63.889,80.556,1130.556,500.000,N
12,-0.570,1.725,-0.590,102.778,58.333,69.444,1147.222,16.667,N
13,-0.595,1.765,-0.640,47.222,63.889,75.000,841.667,305.556,N
14,-0.580,1.760,-0.630,44.444,61.111,72.222,897.222,55.556,N
15,-0.495,1.855,-0.615,47.222,61.111,75.000,838.889,58.333,N
16,-0.445,1.825,-0.565,61.111,61.111,75.000,1016.667,177.778,N
17,-0.440,1.870,-0.510,158.333,63.889,77.778,766.667,250.000,N
18,-0.420,1.825,-0.565,52.778,61.111,380.556,588.889,177.778,N
19,-0.460,1.840,-0.565,75.000,61.111,72.222,822.222,233.333,N
20,-0.485,1.840,-0.575,61.111,61.111,72.222,922.222,100.000,N
21,-0.475,1.760,-0.590,55.556,58.333,72.222,1197.222,275.000,N
22,-0.440,1.865,-0.525,41.667,58.333,355.556,747.222,450.000,N
23,-0.475,1.795,-0.560,83.333,63.889,75.000,1147.222,400.000,N
24,-0.465,1.850,-0.490,127.778,61.111,72.222,1144.444,2.778,N
25,-0.415,1.870,-0.450,47.222,58.333,72.222,655.556,488.889,N
26,-0.415,1.820,-0.505,127.778,61.111,75.000,783.333,127.778,N
27,-0.470,1.765,-0.615,158.333,61.111,72.222,722.222,61.111,N
28,-0.510,1.715,-0.570,136.111,61.111,72.222,683.333,38.889,N
29,-0.545,1.700,-0.570,122.222,61.111,75.000,850.000,166.667,N
30,-0.525,1.705,-0.635,194.444,61.111,72.222,944.444,94.444,N
31,-0.560,1.665,-0.675,177.778,63.889,77.778,980.556,36.111,N
32,-0.545,1.755,-0.630,136.111,55.556,66.667,825.000,155.556,N
33,-0.495,1.690,-0.570,122.222,58.333,75.000,719.444,105.556,N
34,-0.505,1.715,-0.615,163.889,58.333,72.222,644.444,75.000,N
35,-0.600,1.665,-0.665,169.444,61.111,75.000,705.556,61.111,N
36,-0.615,1.645,-0.680,77.778,61.111,380.556,738.889,33.333,N
37,-0.590,1.670,-0.650,44.444,61.111,380.556,733.333,5.556,N
38,-0.550,1.680,-0.655,52.778,61.111,75.000,944.444,211.111,N
39,-0.535,1.715,-0.595,86.111,58.333,350.000,558.333,386.111,N
40,-0.595,1.675,-0.705,47.222,61.111,72.222,994.444,436.111,N
41,-0.560,1.705,-0.600,61.111,55.556,69.444,852.778,141.667,N
42,-0.520,1.715,-0.580,58.333,61.111,377.778,838.889,13.889,N
43,-0.490,1.740,-0.605,50.000,58.333,69.444,811.111,27.778,N
44,-0.380,1.745,-0.600,58.333,116.667,402.778,711.111,100.000,V
45,-0.390,1.775,-0.455,58.333,61.111,72.222,772.222,61.111,N
46,-0.335,1.750,-0.450,180.556,63.889,380.556,761.111,11.111,N
47,-0.385,1.715,-0.485,150.000,61.111,72.222,630.556,130.556,N
48,-0.400,1.660,-0.535,44.444,58.333,69.444,888.889,258.333,N
49,-0.415,1.640,-0.450,113.889,61.111,75.000,744.444,144.444,N
50,-0.455,1.590,-0.565,116.667,58.333,72.222,966.667,222.222,N
51,-0.495,1.635,-0.575,150.000,58.333,72.222,741.667,225.000,N
52,-0.515,1.525,-0.630,47.222,61.111,72.222,688.889,52.778,N
53,-0.525,1.555,-0.595,166.667,61.111,75.000,747.222,58.333,N
54,-0.555,1.455,-0.665,66.667,58.333,72.222,708.333,38.889,N
55,-0.595,1.495,-0.625,88.889,61.111,75.000,761.111,52.778,N
56,-0.570,1.365,-0.640,97.222,61.111,75.000,844.444,83.333,N
57,-0.550,1.385,-0.615,58.333,63.889,75.000,761.111,83.333,N
58,-0.575,1.385,-0.645,111.111,66.667,75.000,780.556,19.444,N
59,-0.655,1.315,-0.695,52.778,61.111,75.000,672.222,108.333,N
60,-0.680,1.350,-0.745,44.444,61.111,72.222,827.778,155.556,N
61,-0.645,1.300,-0.690,150.000,61.111,72.222,769.444,58.333,N
62,-0.630,1.475,-0.695,100.000,61.111,72.222,625.000,144.444,N
63,-0.685,1.390,-0.740,61.111,61.111,72.222,1055.556,430.556,N
64,-0.665,1.460,-0.810,44.444,58.333,69.444,791.667,263.889,N
65,-0.630,1.510,-0.725,47.222,61.111,72.222,1022.222,230.556,N
66,-0.570,1.480,-0.685,105.556,61.111,88.889,569.444,452.778,N
67,-0.630,1.385,-0.745,133.333,63.889,75.000,694.444,125.000,N
68,-0.590,1.470,-0.675,47.222,58.333,372.222,1036.111,341.667,N
69,-0.570,1.435,-0.640,50.000,58.333,69.444,811.111,225.000,N
70,-0.575,1.380,-0.645,63.889,63.889,77.778,647.222,163.889,N
71,-0.580,1.585,-0.675,55.556,61.111,75.000,1163.889,516.667,N
72,-0.515,1.545,-0.570,138.889,61.111,75.000,677.778,486.111,N
73,-0.585,1.560,-0.695,111.111,61.111,72.222,575.000,102.778,N
74,-0.645,1.485,-0.720,180.556,83.333,405.556,697.222,122.222,N
75,-0.560,1.570,-0.715,41.667,58.333,69.444,688.889,8.333,N
76,-0.605,1.535,-0.610,138.889,63.889,77.778,816.667,127.778,N
77,-0.555,1.535,-0.680,102.778,63.889,75.000,591.667,225.000,N
78,-0.600,1.585,-0.665,63.889,61.111,72.222,827.778,236.111,N
79,-0.615,1.520,-0.655,105.556,63.889,75.000,777.778,50.000,N
80,-0.570,1.585,-0.635,55.556,61.111,72.222,686.111,91.667,N
81,-0.595,1.610,-0.655,172.222,63.889,75.000,975.000,288.889,N
82,0.280,1.300,-0.770,58.333,116.667,405.556,569.444,405.556,V
83,-0.585,1.560,-0.630,41.667,58.333,377.778,869.444,300.000,N
84,-0.570,1.545,-0.630,119.444,63.889,77.778,741.667,127.778,N
85,-0.595,1.685,-0.660,66.667,58.333,72.222,819.444,77.778,N
86,-0.535,1.740,-0.620,41.667,61.111,72.222,569.444,250.000,N
87,-0.550,1.630,-0.575,50.000,63.889,383.333,877.778,308.333,N
88,-0.460,1.630,-0.615,61.111,58.333,69.444,750.000,127.778,N
89,-0.535,1.685,-0.610,169.444,66.667,77.778,941.667,191.667,N
90,-0.540,1.655,-0.580,91.667,63.889,75.000,588.889,352.778,N
91,-0.585,1.745,-0.670,41.667,58.333,72.222,808.333,219.444,N
92,-0.495,1.755,-0.580,177.778,55.556,69.444,638.889,169.444,N
93,-0.545,1.670,-0.665,50.000,63.889,75.000,838.889,200.000,N
94,0.780,1.480,-0.750,58.333,116.667,405.556,608.333,230.556,V
95,-0.600,1.700,-0.655,100.000,66.667,386.111,813.889,205.556,N
96,-0.520,1.760,-0.580,150.000,61.111,72.222,883.333,69.444,N
97,0.460,1.505,-0.735,58.333,116.667,405.556,586.111,297.222,V
98,-0.510,1.710,-0.585,47.222,61.111,380.556,741.667,155.556,N
99,-0.545,1.660,-0.615,125.000,63.889,75.000,841.667,100.000,N
100,-0.495,1.670,-0.555,63.889,58.333,69.444,741.667,100.000,N
101,-0.510,1.720,-0.600,133.333,58.333,72.222,675.000,66.667,N
102,-0.605,1.665,-0.615,86.111,63.889,75.000,686.111,11.111,N
103,-0.570,1.600,-0.675,41.667,63.889,72.222,583.333,102.778,N
104,-0.505,1.635,-0.595,52.778,61.111,72.222,902.778,319.444,N
105,-0.530,1.660,-0.570,97.222,58.333,72.222,825.000,77.778,N
106,-0.555,1.655,-0.615,177.778,61.111,75.000,811.111,13.889,N
107,-0.550,1.610,-0.570,144.444,61.111,72.222,605.556,205.556,N
108,-0.515,1.580,-0.605,55.556,66.667,77.778,744.444,138.889,N
109,-0.535,1.510,-0.615,186.111,69.444,83.333,755.556,11.111,N
110,-0.585,1.355,-0.630,91.667,63.889,75.000,708.333,47.222,N
111,-0.580,1.500,-0.620,175.000,63.889,75.000,847.222,138.889,N
112,-0.530,1.550,-0.760,47.222,88.889,380.556,966.667,119.444,N
113,-0.620,1.570,-0.660,44.444,63.889,75.000,1000.000,33.333,N
114,-0.490,1.725,-0.760,58.333,116.667,405.556,700.000,300.000,V
115,-0.605,1.495,-0.650,61.111,77.778,88.889,894.444,194.444,N
116,-0.595,1.390,-0.710,47.222,63.889,77.778,780.556,113.889,N
117,0.340,1.140,-0.840,58.333,116.667,405.556,747.222,33.333,V
118,-0.580,1.570,-0.535,47.222,58.333,377.778,822.222,75.000,N
119,-0.430,1.605,-0.520,141.667,58.333,66.667,658.333,163.889,N
120,0.720,1.430,-0.750,58.333,116.667,394.444,561.111,97.222,V
121,-0.605,1.625,-0.655,197.222,86.111,100.000,1005.556,444.444,N
122,-0.540,1.670,-0.580,161.111,61.111,75.000,661.111,344.444,N
123,0.565,1.350,-0.760,58.333,116.667,397.222,566.667,94.444,V
124,-0.640,1.485,-0.605,61.111,63.889,377.778,694.444,127.778,N
125,-0.595,1.555,-0.650,77.778,58.333,69.444,950.000,255.556,N
126,0.330,1.165,-0.710,58.333,116.667,405.556,577.778,372.222,V
127,-0.480,1.670,-0.495,108.333,58.333,72.222,952.778,375.000,N
128,-0.520,1.670,-0.630,69.444,61.111,72.222,697.222,255.556,N
129,-0.550,1.670,-0.655,50.000,63.889,75.000,844.444,147.222,N
130,-0.445,1.615,-0.585,58.333,61.111,380.556,847.222,2.778,N
131,-0.475,1.605,-0.545,58.333,86.111,97.222,641.667,205.556,N
132,-0.505,1.635,-0.610,52.778,61.111,380.556,811.111,169.444,N
133,-0.515,1.660,-0.570,130.556,58.333,69.444,619.444,191.667,N
134,-0.520,1.700,-0.555,47.222,61.111,380.556,786.111,166.667,N
135,-0.435,1.730,-0.575,47.222,58.333,69.444,708.333,77.778,N
136,-0.530,1.690,-0.610,133.333,61.111,383.333,811.111,102.778,N
137,-0.520,1.670,-0.610,47.222,61.111,72.222,805.556,5.556,N
138,-0.550,1.615,-0.550,125.000,61.111,75.000,619.444,186.111,N
139,-0.490,1.655,-0.505,122.222,63.889,77.778,758.333,138.889,N
140,-0.460,1.635,-0.590,66.667,63.889,100.000,852.778,94.444,N
141,-0.475,1.650,-0.480,113.889,55.556,66.667,869.444,16.667,N
142,-0.465,1.625,-0.505,86.111,61.111,72.222,977.778,108.333,N
143,-0.380,1.880,0.590,166.667,58.333,163.889,686.111,291.667,N
144,-0.290,1.610,-0.605,186.111,63.889,383.333,716.667,30.556,N
145,-0.495,1.675,-0.610,50.000,61.111,75.000,1197.222,480.556,N
146,1.695,-0.785,-0.505,25.000,0.000,16.667,844.444,352.778,N
147,-0.470,1.655,-0.605,97.222,61.111,72.222,600.000,244.444,N
148,-0.500,1.695,-0.565,52.778,63.889,75.000,1233.333,633.333,N
149,-0.395,1.685,-0.450,55.556,58.333,72.222,561.111,672.222,N
150,-0.445,1.540,-0.550,55.556,63.889,75.000,905.556,344.444,N
151,-0.465,1.535,-0.570,186.111,61.111,75.000,755.556,150.000,N
152,-0.475,1.660,-0.515,69.444,58.333,69.444,919.444,163.889,N
153,-0.370,1.675,-0.400,122.222,58.333,72.222,622.222,297.222,N
154,-0.490,1.610,-0.575,155.556,61.111,72.222,800.000,177.778,N
155,-0.475,1.545,-0.600,72.222,61.111,75.000,883.333,83.333,N
156,-0.405,1.640,-0.540,116.667,61.111,75.000,950.000,66.667,N
157,-0.460,1.595,-0.525,113.889,58.333,72.222,725.000,225.000,N
158,-0.475,1.580,-0.595,50.000,66.667,386.111,613.889,111.111,N
159,-0.475,1.480,-0.595,147.222,63.889,380.556,616.667,2.778,N
160,-0.485,1.455,-0.515,116.667,58.333,72.222,641.667,25.000,N
161,-0.425,1.520,-0.505,55.556,61.111,75.000,872.222,230.556,N
162,-0.420,1.565,-0.560,47.222,91.667,383.333,947.222,75.000,N
163,-0.445,1.570,-0.515,105.556,61.111,75.000,908.333,38.889,N
164,-0.390,1.560,-0.495,52.778,61.111,75.000,905.556,2.778,N
165,-0.385,1.565,-0.445,88.889,63.889,77.778,608.333,297.222,N
166,-0.510,1.465,-0.580,38.889,58.333,69.444,841.667,233.333,N
167,-0.530,1.390,-0.560,77.778,61.111,75.000,755.556,86.111,N
168,-0.545,1.230,-0.620,88.889,61.111,72.222,766.667,11.111,N
169,-0.500,1.270,-0.540,47.222,66.667,77.778,761.111,5.556,N
170,-0.465,1.325,-0.600,50.000,61.111,72.222,900.000,138.889,N
171,-0.500,1.295,-0.515,58.333,63.889,77.778,713.889,186.111,N
172,-0.520,1.335,-0.525,94.444,63.889,75.000,602.778,111.111,N
173,-0.505,1.395,-0.515,61.111,63.889,375.000,630.556,27.778,N
174,-0.510,1.410,-0.575,50.000,58.333,72.222,894.444,263.889,N
175,-0.550,1.375,-0.645,50.000,58.333,72.222,1061.111,166.667,N
176,-0.580,1.395,-0.630,186.111,61.111,77.778,636.111,425.000,N
177,-0.585,1.375,-0.630,163.889,63.889,77.778,1019.444,383.333,N
178,-0.570,1.250,-0.720,50.000,61.111,75.000,711.111,308.333,N
179,-0.620,1.320,-0.620,55.556,63.889,77.778,944.444,233.333,N
180,-0.590,1.360,-0.585,52.778,61.111,72.222,872.222,72.222,N
181,-0.575,1.400,-0.635,166.667,86.111,97.222,775.000,97.222,N
182,-0.575,1.375,-0.620,183.333,83.333,97.222,808.333,33.333,N
183,-0.505,1.450,-0.530,136.111,86.111,100.000,1022.222,213.889,N
184,-0.495,1.470,-0.605,55.556,63.889,77.778,891.667,130.556,N
185,-0.550,1.440,-0.610,66.667,63.889,75.000,908.333,16.667,N
186,-0.550,1.415,-0.545,133.333,61.111,72.222,663.889,244.444,N
187,-0.510,1.440,-0.580,175.000,58.333,75.000,711.111,47.222,N
188,-0.510,1.445,-0.580,105.556,58.333,75.000,566.667,144.444,N
189,-0.540,1.440,-0.630,55.556,61.111,72.222,913.889,347.222,N
190,-0.495,1.495,-0.585,194.444,86.111,97.222,775.000,138.889,N
191,-0.470,1.495,-0.565,55.556,63.889,77.778,691.667,83.333,N
192,-0.475,1.540,-0.570,158.333,75.000,391.667,741.667,50.000,N
193,-0.510,1.455,-0.605,50.000,63.889,380.556,811.111,69.444,N
194,-0.470,1.465,-0.595,63.889,58.333,69.444,586.111,225.000,N
195,-0.460,1.515,-0.545,55.556,61.111,75.000,1027.778,441.667,N
196,-0.490,1.555,-0.540,63.889,61.111,72.222,775.000,252.778,N
197,-0.520,1.565,-0.595,86.111,58.333,72.222,888.889,113.889,N
198,-0.545,1.550,-0.610,91.667,63.889,77.778,705.556,183.333,N
199,-0.570,1.460,-0.650,47.222,66.667,363.889,686.111,19.444,N
200,-0.620,1.475,-0.740,105.556,63.889,383.333,833.333,147.222,N
201,-0.580,1.520,-0.660,97.222,58.333,72.222,655.556,177.778,N
202,-0.635,1.530,-0.645,80.556,61.111,72.222,677.778,22.222,N
203,0.285,1.215,-0.735,58.333,116.667,391.667,594.444,83.333,V
204,-0.565,1.535,-0.555,50.000,66.667,380.556,752.778,158.333,N
205,-0.485,1.580,-0.570,155.556,66.667,386.111,800.000,47.222,N
206,-0.485,1.645,-0.540,80.556,63.889,383.333,822.222,22.222,N
207,-0.450,1.655,-0.495,75.000,61.111,75.000,1055.556,233.333,N
208,-0.405,1.610,-0.525,86.111,63.889,75.000,652.778,402.778,N
209,-0.495,1.675,-0.565,102.778,61.111,72.222,916.667,263.889,N
210,-0.455,1.670,-0.485,180.556,63.889,77.778,744.444,172.222,N
211,-0.380,1.715,-0.525,50.000,91.667,380.556,802.778,58.333,N
212,-0.435,1.645,-0.525,158.333,61.111,75.000,741.667,61.111,N
213,-0.455,1.705,-0.555,47.222,61.111,75.000,922.222,180.556,N
214,-0.435,1.710,-0.525,61.111,61.111,77.778,916.667,5.556,N
215,-0.385,1.770,-0.475,58.333,77.778,91.667,636.111,280.556,N
216,-0.465,1.705,-0.565,52.778,61.111,75.000,827.778,191.667,N
217,-0.440,1.590,-0.565,100.000,58.333,72.222,641.667,186.111,N
218,-0.520,1.600,-0.570,111.111,61.111,361.111,811.111,169.444,N
219,-0.475,1.635,-0.550,58.333,61.111,75.000,819.444,8.333,N
220,-0.530,1.610,-0.505,58.333,91.667,402.778,458.333,361.111,F
221,-0.475,1.590,-0.555,66.667,61.111,72.222,1083.333,625.000,N
222,-0.440,1.555,-0.560,105.556,58.333,75.000,902.778,180.556,N
223,-0.475,1.520,-0.520,130.556,61.111,75.000,622.222,280.556,N
224,-0.465,1.595,-0.545,63.889,61.111,72.222,705.556,83.333,N
225,-0.475,1.575,-0.620,44.444,63.889,75.000,869.444,163.889,N
226,-0.480,1.625,-0.530,186.111,61.111,75.000,819.444,50.000,N
227,-0.540,1.550,-0.585,163.889,83.333,97.222,1080.556,261.111,N
228,-0.570,1.460,-0.640,72.222,61.111,75.000,766.667,313.889,N
229,-0.545,1.260,-0.590,116.667,61.111,72.222,850.000,83.333,N
230,-0.545,1.520,-0.635,169.444,61.111,72.222,980.556,130.556,N
231,-0.560,1.555,-0.645,77.778,58.333,69.444,647.222,333.333,N
232,-0.645,1.520,-0.670,44.444,58.333,375.000,794.444,147.222,N
233,-0.565,1.540,-0.655,47.222,61.111,75.000,747.222,47.222,N
234,-0.575,1.595,-0.675,50.000,58.333,375.000,880.556,133.333,N
235,-0.620,1.560,-0.655,100.000,61.111,72.222,800.000,80.556,N
236,-0.560,1.595,-0.595,47.222,58.333,366.667,508.333,291.667,N
237,-0.350,1.655,-0.455,55.556,61.111,75.000,883.333,375.000,N
238,-0.300,1.520,-0.395,52.778,63.889,380.556,658.333,225.000,N
239,-0.325,1.570,-0.405,111.111,61.111,75.000,763.889,105.556,N
240,-0.345,1.560,-0.455,169.444,58.333,69.444,691.667,72.222,N
241,-0.455,1.490,-0.560,52.778,61.111,380.556,677.778,13.889,N
242,-0.525,1.465,-0.605,80.556,63.889,75.000,755.556,77.778,N
243,-0.575,1.480,-0.725,80.556,66.667,80.556,813.889,58.333,N
244,-0.640,1.485,-0.685,183.333,63.889,77.778,800.000,13.889,N
245,-0.615,1.555,-0.685,52.778,55.556,66.667,722.222,77.778,N
246,-0.600,1.510,-0.745,55.556,61.111,72.222,727.778,5.556,N
247,-0.625,1.555,-0.675,97.222,55.556,69.444,900.000,172.222,N
248,-0.625,1.565,-0.650,169.444,61.111,72.222,933.333,33.333,N
249,-0.585,1.615,-0.595,163.889,61.111,75.000,866.667,66.667,N
250,-0.555,1.550,-0.685,180.556,58.333,377.778,711.111,155.556,N
251,-0.620,1.665,-0.655,61.111,63.889,75.000,819.444,108.333,N
252,-0.540,1.705,-0.640,58.333,61.111,75.000,958.333,138.889,N
253,-0.565,1.690,-0.675,191.667,61.111,72.222,775.000,183.333,N
254,-0.530,1.420,-0.600,130.556,113.889,127.778,1036.111,261.111,N
255,-0.280,1.160,-0.370,86.111,102.778,388.889,591.667,444.444,N
256,-0.240,0.775,-0.340,58.333,116.667,116.667,869.444,277.778,N
257,-0.350,1.020,-0.510,111.111,116.667,116.667,686.111,183.333,N
258,-0.540,1.150,-0.615,175.000,111.111,405.556,666.667,19.444,N
259,-0.565,1.260,-0.595,58.333,61.111,75.000,775.000,108.333,N
260,-0.590,1.110,-0.720,172.222,111.111,113.889,688.889,86.111,N
261,-0.670,1.030,-0.785,102.778,105.556,116.667,794.444,105.556,N
262,-0.705,1.160,-0.795,69.444,116.667,405.556,941.667,147.222,N
263,-0.610,0.995,-0.735,58.333,100.000,116.667,747.222,194.444,N
264,-0.640,1.295,-0.720,155.556,88.889,372.222,736.111,11.111,N
265,-0.605,1.480,-0.615,191.667,88.889,100.000,827.778,91.667,N
266,-0.565,1.215,-0.650,147.222,116.667,405.556,827.778,0.000,N
267,-0.475,0.425,-0.605,61.111,116.667,116.667,797.222,30.556,N
268,-0.495,0.755,-0.650,61.111,116.667,116.667,650.000,147.222,N
269,-0.575,1.380,-0.655,111.111,116.667,405.556,788.889,138.889,N
270,-0.470,1.720,-0.510,61.111,61.111,75.000,769.444,19.444,N
271,-0.425,1.865,-0.500,147.222,116.667,377.778,594.444,175.000,N
272,-0.520,1.685,-0.555,47.222,61.111,72.222,713.889,119.444,N
273,-0.525,1.805,-0.605,41.667,58.333,69.444,766.667,52.778,N
274,-0.480,1.700,-0.560,47.222,61.111,75.000,694.444,72.222,N
275,-0.520,1.770,-0.595,163.889,58.333,69.444,819.444,125.000,N
276,0.610,1.455,-0.805,58.333,116.667,405.556,561.111,258.333,V
277,-0.620,1.630,-0.660,66.667,63.889,75.000,1075.000,513.889,N
278,-0.560,1.670,-0.620,63.889,61.111,75.000,686.111,388.889,N
279,-0.510,1.680,-0.610,141.667,58.333,72.222,677.778,8.333,N
280,-0.540,1.720,-0.580,50.000,61.111,75.000,913.889,236.111,N
281,-0.480,1.660,-0.500,75.000,80.556,383.333,755.556,158.333,N
282,-0.355,1.760,-0.415,50.000,58.333,377.778,738.889,16.667,N
283,-0.280,1.760,-0.495,50.000,61.111,119.444,838.889,100.000,N
284,-0.425,1.670,-0.550,191.667,61.111,75.000,980.556,141.667,N
285,-0.495,1.570,-0.575,177.778,58.333,69.444,1044.444,63.889,N
286,-0.535,1.615,-0.650,77.778,61.111,72.222,733.333,311.111,N
287,-0.570,1.625,-0.640,147.222,61.111,75.000,738.889,5.556,N
288,-0.550,1.660,-0.640,177.778,63.889,75.000,633.333,105.556,N
289,-0.585,1.610,-0.625,47.222,61.111,72.222,800.000,166.667,N
290,-0.510,1.665,-0.545,138.889,86.111,97.222,997.222,197.222,N
291,0.925,1.465,-0.720,58.333,116.667,402.778,577.778,419.444,V
292,-0.540,1.515,-0.490,133.333,61.111,72.222,911.111,333.333,N
293,-0.535,1.440,-0.605,47.222,58.333,69.444,741.667,169.444,N
294,-0.575,1.365,-0.620,141.667,61.111,75.000,877.778,136.111,N
295,-0.660,1.375,-0.635,44.444,61.111,72.222,850.000,27.778,N
296,-0.560,1.495,-0.635,47.222,61.111,372.222,744.444,105.556,N
297,-0.495,1.630,-0.505,58.333,58.333,377.778,611.111,133.333,N
298,-0.420,1.720,-0.465,47.222,63.889,75.000,777.778,166.667,N
299,-0.250,1.790,-0.315,47.222,61.111,377.778,588.889,188.889,N
300,-0.240,1.720,-0.325,52.778,61.111,380.556,900.000,311.111,N
301,-0.270,1.715,-0.355,133.333,58.333,72.222,844.444,55.556,N
302,-0.385,1.625,-0.415,127.778,63.889,75.000,761.111,83.333,N
303,-0.435,1.485,-0.515,50.000,61.111,75.000,625.000,136.111,N
304,-0.435,1.600,-0.560,66.667,61.111,75.000,886.111,261.111,N
305,-0.405,1.675,-0.465,172.222,63.889,75.000,1069.444,183.333,N
306,-0.475,1.645,-0.545,50.000,63.889,77.778,752.778,316.667,N
307,-0.525,1.560,-0.570,83.333,61.111,75.000,697.222,55.556,N
308,-0.465,1.645,-0.615,61.111,63.889,75.000,838.889,141.667,N
309,-0.540,1.560,-0.680,180.556,63.889,77.778,788.889,50.000,N
310,-0.550,1.580,-0.615,44.444,61.111,75.000,566.667,222.222,N
311,-0.590,1.590,-0.640,61.111,58.333,369.444,919.444,352.778,N
312,-0.485,1.580,-0.535,50.000,58.333,380.556,752.778,166.667,N
313,-0.420,1.655,-0.465,166.667,63.889,75.000,713.889,38.889,N
314,-0.415,1.650,-0.425,66.667,61.111,380.556,847.222,133.333,N
315,-0.320,1.680,-0.345,122.222,61.111,75.000,877.778,30.556,N
316,-0.350,1.590,-0.485,55.556,58.333,72.222,1088.889,211.111,N
317,-0.485,1.505,-0.540,130.556,61.111,75.000,852.778,236.111,N
318,-0.530,1.345,-0.600,83.333,63.889,77.778,950.000,97.222,N
319,-0.530,1.330,-0.550,91.667,58.333,72.222,613.889,336.111,N
320,-0.590,1.195,-0.640,58.333,80.556,208.333,547.222,66.667,N
321,-0.580,1.265,-0.685,58.333,63.889,77.778,588.889,41.667,N
322,-0.620,1.410,-0.705,138.889,61.111,72.222,1211.111,622.222,N
323,-0.565,1.420,-0.670,63.889,63.889,77.778,755.556,455.556,N
324,-0.585,1.535,-0.680,141.667,113.889,405.556,580.556,175.000,N
325,-0.570,1.505,-0.655,138.889,86.111,94.444,697.222,116.667,N
326,-0.530,1.500,-0.660,52.778,61.111,75.000,836.111,138.889,N
327,-0.540,1.590,-0.565,58.333,58.333,69.444,786.111,50.000,N
328,-0.500,1.595,-0.560,136.111,61.111,75.000,675.000,111.111,N
329,-0.565,1.515,-0.620,150.000,61.111,380.556,677.778,2.778,N
330,-0.550,1.580,-0.575,52.778,63.889,77.778,572.222,105.556,N
331,-0.495,1.665,-0.455,47.222,61.111,383.333,866.667,294.444,N
332,-0.410,1.515,-0.480,47.222,61.111,75.000,961.111,94.444,N
333,-0.335,1.640,-0.390,52.778,61.111,75.000,808.333,152.778,N
334,-0.290,1.690,-0.325,63.889,61.111,75.000,775.000,33.333,N
335,-0.295,1.690,-0.275,63.889,61.111,72.222,905.556,130.556,N
336,-0.355,1.510,-0.455,147.222,61.111,72.222,783.333,122.222,N
337,-0.555,1.395,-0.600,91.667,58.333,69.444,841.667,58.333,N
338,-0.740,1.320,-0.815,52.778,66.667,383.333,1122.222,280.556,N
339,-0.660,1.370,-0.715,86.111,58.333,72.222,611.111,511.111,N
340,-0.685,1.390,-0.725,86.111,61.111,75.000,791.667,180.556,N
341,-0.680,1.470,-0.760,194.444,58.333,72.222,788.889,2.778,N
342,-0.635,1.510,-0.660,44.444,58.333,377.778,775.000,13.889,N
343,-0.625,1.580,-0.700,52.778,63.889,380.556,877.778,102.778,N
344,-0.565,1.535,-0.710,55.556,61.111,369.444,575.000,302.778,N
345,-0.625,1.600,-0.720,58.333,63.889,383.333,866.667,291.667,N
346,-0.555,1.590,-0.620,50.000,58.333,380.556,550.000,316.667,N
347,-0.550,1.615,-0.675,66.667,61.111,380.556,825.000,275.000,N
348,-0.495,1.635,-0.535,144.444,58.333,72.222,805.556,19.444,N
349,-0.420,1.660,-0.500,72.222,61.111,75.000,763.889,41.667,N
350,0.280,1.150,-0.670,58.333,116.667,405.556,605.556,158.333,V
351,-0.560,1.370,-0.640,197.222,108.333,386.111,988.889,383.333,N
352,-0.460,1.540,-0.620,113.889,61.111,77.778,577.778,411.111,N
353,-0.595,1.480,-0.615,52.778,63.889,77.778,744.444,166.667,N
354,-0.575,1.585,-0.590,122.222,58.333,72.222,636.111,108.333,N
355,-0.560,1.450,-0.565,47.222,58.333,366.667,713.889,77.778,N
356,-0.450,1.575,-0.560,94.444,61.111,75.000,619.444,94.444,N
357,-0.465,1.430,-0.445,47.222,66.667,383.333,1055.556,436.111,N
358,-0.195,1.705,-0.300,55.556,58.333,72.222,1022.222,33.333,N
359,-0.230,1.615,-0.410,194.444,63.889,375.000,658.333,363.889,N
360,-0.405,1.565,-0.495,44.444,63.889,383.333,777.778,119.444,N
361,-0.340,1.540,-0.350,77.778,61.111,380.556,711.111,66.667,N
362,-0.250,1.465,-0.355,69.444,61.111,75.000,891.667,180.556,N
363,-0.340,1.420,-0.525,194.444,58.333,72.222,763.889,127.778,N
364,-0.525,1.395,-0.645,169.444,61.111,72.222,611.111,152.778,N
365,-0.635,1.230,-0.715,169.444,63.889,383.333,852.778,241.667,N
366,-0.535,1.145,-0.655,100.000,61.111,72.222,600.000,252.778,N
367,-0.635,1.305,-0.730,152.778,61.111,75.000,752.778,152.778,N
368,-0.765,1.295,-0.935,52.778,61.111,75.000,866.667,113.889,N
369,-0.820,1.210,-0.870,47.222,61.111,77.778,666.667,200.000,N
370,-0.775,1.155,-0.805,130.556,58.333,72.222,750.000,83.333,N
371,-0.715,1.270,-0.805,72.222,58.333,72.222,605.556,144.444,N
372,-0.790,1.340,-0.910,172.222,61.111,380.556,797.222,191.667,N
373,-0.850,1.235,-0.900,116.667,61.111,380.556,847.222,50.000,N
374,-0.750,1.460,-0.785,61.111,61.111,75.000,744.444,102.778,N
375,-0.635,1.610,-0.625,58.333,61.111,75.000,1063.889,319.444,N
376,-0.515,1.740,-0.370,52.778,61.111,380.556,927.778,136.111,N
377,0.035,1.905,0.070,61.111,58.333,366.667,847.222,80.556,N
378,0.155,1.875,0.040,180.556,58.333,72.222,813.889,33.333,N
379,-0.125,1.660,-0.310,191.667,61.111,75.000,741.667,72.222,N
380,-0.315,1.485,-0.405,155.556,63.889,77.778,633.333,108.333,N
381,-0.675,-0.715,-0.665,41.667,0.000,83.333,1394.444,761.111,""""
382,-0.590,1.550,-0.760,194.444,66.667,77.778,1186.111,208.333,N
383,-0.455,1.595,-0.550,197.222,63.889,75.000,983.333,202.778,N
384,-0.370,1.585,-0.570,194.444,61.111,72.222,875.000,108.333,N
385,-0.560,1.485,-0.705,191.667,61.111,75.000,672.222,202.778,A
386,-0.620,1.620,-0.790,197.222,63.889,77.778,1011.111,338.889,N
387,-0.570,1.705,-0.655,197.222,61.111,75.000,913.889,97.222,N
388,-0.485,1.690,-0.640,197.222,61.111,72.222,883.333,30.556,N
389,-0.450,1.745,-0.550,197.222,61.111,75.000,858.333,25.000,N
390,-0.355,1.820,-0.445,180.556,61.111,72.222,852.778,5.556,N
391,-0.355,1.820,-0.500,197.222,61.111,72.222,852.778,0.000,N
392,-0.475,1.740,-0.600,197.222,61.111,75.000,755.556,97.222,A
393,-0.480,1.685,-0.695,194.444,61.111,72.222,1027.778,272.222,N
394,-0.580,1.655,-0.680,188.889,61.111,72.222,838.889,188.889,N
395,-0.510,1.675,-0.680,194.444,61.111,72.222,872.222,33.333,N
396,-0.470,1.635,-0.685,197.222,61.111,72.222,850.000,22.222,N
397,-0.505,1.740,-0.645,197.222,66.667,77.778,861.111,11.111,N
398,-0.515,1.750,-0.650,197.222,63.889,77.778,813.889,47.222,N
399,-0.435,1.850,-0.615,197.222,61.111,366.667,922.222,108.333,N
400,-0.410,1.760,-0.545,197.222,61.111,72.222,780.556,141.667,A
401,-0.300,1.795,-0.455,194.444,61.111,69.444,933.333,152.778,N
402,-0.330,1.600,-0.550,194.444,94.444,383.333,808.333,125.000,A
403,-0.265,1.955,-0.410,194.444,61.111,377.778,922.222,113.889,N
404,-0.045,2.150,0.045,197.222,61.111,380.556,797.222,125.000,N
405,0.290,2.115,0.115,197.222,63.889,75.000,922.222,125.000,N
406,-0.010,-0.080,-0.070,180.556,41.667,58.333,908.333,13.889,""""
407,-0.020,1.860,-0.285,197.222,63.889,75.000,694.444,213.889,N
408,-0.135,1.790,-0.315,191.667,61.111,72.222,819.444,125.000,N
409,-0.385,1.670,-0.510,127.778,61.111,77.778,800.000,19.444,N
410,-0.580,1.440,-0.705,169.444,61.111,72.222,819.444,19.444,N
411,-0.690,1.450,-0.755,152.778,63.889,77.778,719.444,100.000,N
412,-0.705,1.260,-0.755,155.556,61.111,75.000,766.667,47.222,N
413,-0.740,1.335,-0.820,136.111,61.111,72.222,644.444,122.222,N
414,-0.785,1.360,-0.835,61.111,63.889,77.778,827.778,183.333,N
415,-0.575,1.680,-0.300,52.778,61.111,380.556,827.778,0.000,N
416,0.060,1.900,0.085,47.222,61.111,72.222,822.222,5.556,N
417,0.030,1.780,-0.115,183.333,61.111,75.000,769.444,52.778,N
418,-0.160,1.635,-0.280,130.556,58.333,69.444,650.000,119.444,N
419,-0.480,1.390,-0.565,94.444,61.111,75.000,797.222,147.222,N
420,-0.645,1.220,-0.720,125.000,63.889,77.778,763.889,33.333,N
421,-0.705,1.435,-0.825,80.556,61.111,380.556,655.556,108.333,N
422,-0.745,1.435,-0.855,44.444,61.111,75.000,863.889,208.333,N
423,-0.745,1.550,-0.800,91.667,61.111,75.000,891.667,27.778,N
424,-0.725,1.640,-0.760,44.444,61.111,75.000,700.000,191.667,N
425,-0.680,1.625,-0.715,102.778,58.333,69.444,902.778,202.778,N
426,-0.590,1.635,-0.680,191.667,63.889,77.778,861.111,41.667,N
427,-0.620,1.565,-0.695,163.889,61.111,72.222,900.000,38.889,N
428,0.505,1.285,-0.875,58.333,116.667,405.556,558.333,341.667,V
429,-0.625,1.645,-0.675,41.667,58.333,69.444,747.222,188.889,N
430,-0.520,1.745,-0.530,58.333,61.111,75.000,958.333,211.111,N
431,-0.500,1.760,-0.570,50.000,61.111,72.222,822.222,136.111,N
432,-0.410,1.825,-0.465,97.222,63.889,77.778,619.444,202.778,N
433,-0.420,1.810,-0.455,44.444,58.333,72.222,816.667,197.222,N
434,-0.405,1.750,-0.460,66.667,61.111,380.556,850.000,33.333,N
435,-0.385,1.650,-0.425,130.556,61.111,75.000,636.111,213.889,N
436,-0.390,1.780,-0.415,105.556,61.111,72.222,836.111,200.000,N
437,-0.280,1.780,-0.395,69.444,63.889,75.000,733.333,102.778,N
438,-0.365,1.690,-0.495,61.111,61.111,72.222,891.667,158.333,N
439,-0.490,1.645,-0.545,86.111,61.111,72.222,669.444,222.222,N
440,-0.440,1.585,-0.480,102.778,58.333,377.778,672.222,2.778,N
441,-0.360,1.555,-0.485,138.889,63.889,77.778,669.444,2.778,N
442,-0.360,1.380,-0.560,197.222,58.333,72.222,627.778,41.667,N
443,-0.590,1.325,-0.700,91.667,58.333,72.222,658.333,30.556,N
444,-0.835,1.260,-0.950,102.778,61.111,75.000,850.000,191.667,N
445,-0.885,1.270,-0.990,86.111,61.111,75.000,780.556,69.444,N
446,0.470,1.175,-0.975,58.333,116.667,405.556,588.889,191.667,V
447,-0.810,1.530,-0.695,80.556,86.111,405.556,738.889,150.000,N
448,-0.595,1.695,-0.685,58.333,63.889,75.000,744.444,5.556,N
449,-0.550,1.835,-0.580,100.000,63.889,375.000,741.667,2.778,N
450,-0.420,1.900,-0.345,194.444,63.889,383.333,663.889,77.778,N
451,-0.160,1.950,-0.155,58.333,61.111,75.000,766.667,102.778,N
452,-0.245,1.825,-0.345,169.444,58.333,69.444,938.889,172.222,N
453,-0.535,1.680,-0.600,86.111,83.333,97.222,783.333,155.556,N
454,-0.535,1.650,-0.735,47.222,58.333,377.778,797.222,13.889,N
455,-0.655,1.615,-0.720,61.111,61.111,75.000,752.778,44.444,N
456,-0.715,1.555,-0.785,130.556,61.111,75.000,797.222,44.444,N
457,-0.680,1.635,-0.725,116.667,63.889,77.778,919.444,122.222,N
458,-0.485,1.790,-0.505,41.667,58.333,380.556,758.333,161.111,N
459,-0.285,2.035,-0.340,97.222,63.889,77.778,925.000,166.667,N
460,-0.295,2.025,-0.340,88.889,63.889,77.778,822.222,102.778,N
461,-0.265,1.965,-0.335,102.778,58.333,69.444,686.111,136.111,N
462,-0.245,1.920,-0.380,47.222,61.111,72.222,636.111,50.000,N
463,-0.260,1.830,-0.295,52.778,61.111,75.000,819.444,183.333,N
464,-0.330,1.740,-0.475,75.000,66.667,80.556,1019.444,200.000,N
465,-0.425,1.670,-0.540,175.000,58.333,72.222,630.556,388.889,N
466,-0.535,1.620,-0.600,47.222,61.111,380.556,905.556,275.000,N
467,-0.375,1.745,-0.420,133.333,58.333,375.000,752.778,152.778,N
468,-0.310,1.735,-0.425,172.222,63.889,75.000,705.556,47.222,N
469,-0.395,1.705,-0.555,180.556,61.111,75.000,644.444,61.111,N
470,0.500,1.280,-0.780,58.333,116.667,394.444,586.111,58.333,V
471,-0.570,1.640,-0.590,58.333,61.111,380.556,1197.222,611.111,N
472,-0.490,1.615,-0.595,50.000,63.889,80.556,619.444,577.778,N
473,-0.550,1.610,-0.635,47.222,63.889,77.778,755.556,136.111,N
474,-0.590,1.525,-0.760,86.111,61.111,75.000,852.778,97.222,N
475,-0.630,1.565,-0.660,155.556,61.111,72.222,575.000,277.778,N
476,-0.680,1.495,-0.795,55.556,61.111,72.222,766.667,191.667,N
477,-0.700,1.555,-0.750,50.000,63.889,380.556,747.222,19.444,N
478,-0.615,1.695,-0.510,86.111,83.333,391.667,647.222,100.000,N
479,-0.370,1.745,-0.485,55.556,58.333,69.444,736.111,88.889,N
480,-0.430,1.740,-0.515,66.667,61.111,72.222,844.444,108.333,N
481,-0.240,1.775,-0.230,55.556,61.111,380.556,844.444,0.000,N
482,0.935,1.640,-0.350,58.333,116.667,405.556,627.778,216.667,V
483,-0.200,1.720,-0.310,52.778,61.111,380.556,775.000,147.222,N
484,-0.215,1.650,-0.325,116.667,61.111,380.556,730.556,44.444,N
485,-0.340,1.690,-0.420,105.556,86.111,100.000,830.556,100.000,N
486,-0.400,1.695,-0.520,177.778,63.889,100.000,730.556,100.000,N
487,-0.515,1.680,-0.620,194.444,58.333,72.222,694.444,36.111,N
488,-0.515,1.685,-0.550,175.000,61.111,75.000,772.222,77.778,N
489,-0.580,1.630,-0.680,91.667,61.111,75.000,783.333,11.111,N
490,-0.715,1.570,-0.755,158.333,58.333,72.222,838.889,55.556,N
491,-0.710,1.600,-0.750,105.556,61.111,380.556,808.333,30.556,N
492,-0.455,1.730,-0.420,55.556,58.333,69.444,922.222,113.889,N
493,-0.370,1.730,-0.460,52.778,61.111,75.000,563.889,358.333,N
494,-0.425,1.720,-0.530,66.667,63.889,75.000,844.444,280.556,N
495,-0.420,1.740,-0.535,88.889,61.111,75.000,861.111,16.667,N
496,-0.415,1.775,-0.480,136.111,58.333,72.222,713.889,147.222,N
497,-0.545,1.585,-0.730,55.556,61.111,72.222,977.778,263.889,N
498,-0.655,1.580,-0.775,172.222,61.111,75.000,652.778,325.000,N
499,-0.700,1.635,-0.790,44.444,61.111,72.222,736.111,83.333,N
500,-0.665,1.630,-0.745,63.889,58.333,372.222,655.556,80.556,N
501,-0.575,1.730,-0.520,55.556,61.111,75.000,969.444,313.889,N
502,-0.590,1.690,-0.570,194.444,58.333,369.444,705.556,263.889,N
503,-0.340,1.760,0.015,63.889,75.000,391.667,600.000,105.556,N
504,0.180,1.745,0.085,111.111,61.111,75.000,813.889,213.889,N
505,0.015,1.625,-0.090,147.222,58.333,72.222,763.889,50.000,N
506,0.475,1.215,-0.505,58.333,116.667,391.667,558.333,205.556,V
507,-0.540,1.395,-0.645,130.556,61.111,72.222,833.333,275.000,N
508,-0.650,1.300,-0.835,52.778,58.333,69.444,622.222,211.111,N
509,-0.800,1.310,-0.910,105.556,61.111,75.000,713.889,91.667,N
510,-0.835,1.375,-0.900,61.111,61.111,77.778,661.111,52.778,N
511,-0.880,1.460,-0.915,69.444,61.111,75.000,669.444,8.333,N
512,-0.860,1.385,-0.970,44.444,61.111,355.556,677.778,8.333,N
513,-0.810,1.460,-0.910,61.111,61.111,75.000,991.667,313.889,N
514,-0.735,1.590,-0.650,136.111,58.333,72.222,866.667,125.000,N
515,-0.590,1.655,-0.600,80.556,61.111,361.111,677.778,188.889,N
516,-0.560,1.630,-0.615,61.111,63.889,75.000,650.000,27.778,N
517,-0.565,1.655,-0.615,166.667,66.667,100.000,675.000,25.000,N
518,-0.495,1.590,-0.490,122.222,61.111,75.000,750.000,75.000,N
519,0.325,1.550,-0.645,58.333,116.667,402.778,583.333,166.667,V
520,-0.515,1.475,-0.570,94.444,63.889,75.000,752.778,169.444,N
521,-0.600,1.565,-0.650,130.556,58.333,72.222,775.000,22.222,N
522,-0.560,1.400,-0.620,69.444,61.111,380.556,1280.556,505.556,N
523,-0.460,1.325,-0.610,55.556,61.111,75.000,738.889,541.667,N
524,-0.530,1.565,-0.590,55.556,61.111,72.222,913.889,175.000,N
525,-0.570,1.605,-0.560,119.444,77.778,88.889,597.222,316.667,N
526,-0.525,1.660,-0.580,44.444,55.556,69.444,705.556,108.333,N
527,-0.510,1.575,-0.625,55.556,105.556,116.667,869.444,163.889,N
528,-0.525,1.640,-0.610,44.444,61.111,72.222,797.222,72.222,N
529,-0.520,1.825,-0.555,197.222,86.111,97.222,702.778,94.444,N
530,-0.510,1.720,-0.535,183.333,63.889,75.000,680.556,22.222,N
531,-0.450,1.675,-0.540,47.222,91.667,380.556,933.333,252.778,N
532,-0.440,1.590,-0.520,166.667,63.889,100.000,750.000,183.333,N
533,-0.475,1.660,-0.580,127.778,58.333,363.889,638.889,111.111,N
534,-0.495,1.480,-0.570,169.444,58.333,69.444,705.556,66.667,N
535,-0.500,1.600,-0.590,125.000,72.222,380.556,627.778,77.778,N
536,-0.525,1.705,-0.520,177.778,61.111,72.222,744.444,116.667,N
537,-0.445,1.865,-0.500,130.556,63.889,369.444,625.000,119.444,N
538,-0.390,1.805,-0.390,186.111,66.667,77.778,755.556,130.556,N
539,-0.280,1.845,-0.430,55.556,63.889,347.222,597.222,158.333,N
540,-0.360,1.850,-0.490,86.111,63.889,383.333,861.111,263.889,N
541,-0.360,1.835,-0.345,175.000,58.333,69.444,797.222,63.889,N
542,-0.345,1.805,-0.490,147.222,63.889,361.111,636.111,161.111,N
543,-0.450,1.690,-0.640,102.778,91.667,375.000,852.778,216.667,N
544,-0.625,1.455,-0.690,180.556,58.333,72.222,747.222,105.556,N
545,-0.690,1.485,-0.735,113.889,66.667,383.333,633.333,113.889,N
546,0.405,1.365,-0.845,58.333,116.667,405.556,566.667,66.667,V
547,-0.580,1.635,-0.585,97.222,63.889,366.667,819.444,252.778,N
548,-0.500,1.640,-0.570,158.333,61.111,80.556,725.000,94.444,N
549,-0.520,1.690,-0.540,158.333,63.889,77.778,638.889,86.111,N
550,-0.395,1.780,-0.460,58.333,66.667,77.778,761.111,122.222,N
551,-0.355,1.865,-0.360,58.333,63.889,77.778,763.889,2.778,N
552,-0.260,1.885,-0.285,161.111,58.333,72.222,772.222,8.333,N
553,-0.150,1.975,-0.120,158.333,63.889,77.778,805.556,33.333,N
554,-0.075,1.960,-0.155,191.667,63.889,77.778,794.444,11.111,N
555,-0.265,1.745,-0.365,194.444,61.111,75.000,869.444,75.000,N
556,-0.500,1.585,-0.595,194.444,58.333,72.222,833.333,36.111,N
557,-0.565,1.580,-0.610,47.222,55.556,66.667,800.000,33.333,N
558,-0.630,1.540,-0.620,194.444,63.889,75.000,825.000,25.000,N
559,-0.610,1.630,-0.700,50.000,58.333,380.556,852.778,27.778,N
560,-0.545,1.620,-0.470,61.111,61.111,375.000,663.889,188.889,N
561,-0.295,1.775,-0.260,155.556,61.111,72.222,858.333,194.444,N
562,-0.340,1.660,-0.445,119.444,58.333,69.444,827.778,30.556,N
563,-0.290,1.620,-0.290,166.667,58.333,69.444,850.000,22.222,N
564,-0.360,1.570,-0.445,122.222,61.111,75.000,786.111,63.889,N
565,-0.495,1.485,-0.650,102.778,63.889,75.000,813.889,27.778,N
566,-0.640,1.395,-0.780,52.778,63.889,75.000,688.889,125.000,N
567,-0.725,1.435,-0.750,130.556,66.667,77.778,669.444,19.444,N
568,-0.595,1.540,-0.640,61.111,58.333,363.889,766.667,97.222,N
569,-0.545,1.585,-0.620,127.778,61.111,75.000,869.444,102.778,N
570,-0.585,1.560,-0.685,44.444,61.111,380.556,694.444,175.000,N
571,-0.565,1.640,-0.505,69.444,58.333,372.222,844.444,150.000,N
572,-0.045,1.805,0.025,80.556,61.111,380.556,813.889,30.556,N
573,0.175,1.760,0.055,119.444,61.111,75.000,808.333,5.556,N
574,-0.105,1.560,-0.170,150.000,58.333,72.222,888.889,80.556,N
575,-0.285,1.470,-0.375,147.222,61.111,72.222,738.889,150.000,N
576,-0.575,1.345,-0.800,177.778,91.667,100.000,855.556,116.667,N
577,-0.845,1.205,-0.955,44.444,58.333,72.222,1280.556,425.000,N
578,-0.865,1.355,-0.925,63.889,63.889,75.000,680.556,600.000,N
579,-0.805,1.415,-0.830,175.000,58.333,72.222,1113.889,433.333,N
580,-0.765,1.460,-0.910,47.222,63.889,75.000,902.778,211.111,N
581,-0.700,1.590,-0.775,63.889,61.111,72.222,1261.111,358.333,N
582,-0.590,1.510,-0.600,66.667,91.667,383.333,800.000,461.111,N
583,-0.380,1.790,-0.430,138.889,61.111,75.000,900.000,100.000,N
584,-0.350,1.785,-0.250,66.667,63.889,383.333,680.556,219.444,N
585,0.010,1.880,0.020,44.444,63.889,75.000,772.222,91.667,N
586,0.005,1.730,-0.150,55.556,63.889,77.778,869.444,97.222,N
587,-0.335,1.520,-0.495,75.000,63.889,75.000,780.556,88.889,N
588,-0.640,1.395,-0.805,66.667,61.111,75.000,869.444,88.889,N
589,-0.925,1.220,-0.695,100.000,63.889,-466208.333,797.222,72.222,N
590,-0.695,1.105,-0.695,467088.889,61.111,-467055.556,847.222,50.000,N
591,-0.870,1.350,-0.800,75.000,63.889,383.333,825.000,22.222,N
592,-0.590,1.475,-0.670,183.333,86.111,97.222,1133.333,308.333,N
593,-0.660,1.440,-0.780,47.222,61.111,72.222,602.778,530.556,N
594,-0.785,1.440,-0.870,58.333,61.111,377.778,680.556,77.778,N
595,-0.785,1.545,-0.810,41.667,58.333,69.444,741.667,61.111,N
596,-0.810,1.605,-0.870,197.222,66.667,77.778,802.778,61.111,N
597,-0.835,1.585,-0.915,166.667,61.111,75.000,805.556,2.778,N
598,-0.810,1.720,-0.870,133.333,63.889,77.778,786.111,19.444,N
599,-0.720,1.780,-0.765,133.333,61.111,75.000,808.333,22.222,N
600,-0.665,1.755,-0.700,152.778,66.667,80.556,827.778,19.444,N
601,-0.570,1.905,-0.550,119.444,63.889,380.556,797.222,30.556,N
602,-0.155,2.185,0.260,77.778,83.333,405.556,719.444,77.778,N
603,0.440,2.185,0.320,133.333,63.889,77.778,905.556,186.111,N
604,0.125,1.880,-0.035,172.222,63.889,75.000,844.444,61.111,N
605,-0.170,1.740,-0.165,61.111,61.111,380.556,705.556,138.889,N
606,0.030,1.625,-0.060,172.222,58.333,69.444,1083.333,377.778,N
607,-0.350,1.305,-0.570,177.778,63.889,77.778,863.889,219.444,N
608,-0.845,1.040,-0.695,91.667,63.889,-481666.667,680.556,183.333,N
609,-0.695,0.970,-0.695,482327.778,63.889,-482291.667,625.000,55.556,N
610,-0.695,1.150,-0.695,483316.667,61.111,-483283.333,988.889,363.889,N
611,-0.695,1.290,-0.695,484044.444,61.111,-484011.111,727.778,261.111,N
612,-0.535,1.600,-0.450,61.111,58.333,372.222,897.222,169.444,N
613,-0.250,1.735,-0.340,47.222,61.111,380.556,644.444,252.778,N
614,-0.295,1.735,-0.380,172.222,63.889,77.778,688.889,44.444,N
615,-0.570,1.670,-0.715,55.556,63.889,77.778,897.222,208.333,N
616,-0.705,1.635,-0.780,50.000,58.333,72.222,797.222,100.000,N
617,-0.640,1.770,-0.720,50.000,63.889,75.000,830.556,33.333,N
618,-0.645,1.715,-0.730,41.667,58.333,69.444,813.889,16.667,N
619,-0.690,1.735,-0.665,155.556,61.111,75.000,719.444,94.444,N
620,-0.665,1.740,-0.725,52.778,58.333,72.222,769.444,50.000,N
621,-0.755,1.640,-0.800,180.556,61.111,72.222,908.333,138.889,N
622,0.460,1.195,-0.695,58.333,113.889,-492530.556,577.778,330.556,V
623,-0.790,1.675,-0.805,75.000,58.333,366.667,969.444,391.667,N
624,-0.650,1.830,-0.720,72.222,55.556,69.444,830.556,138.889,N
625,0.800,1.595,-0.735,58.333,116.667,405.556,605.556,225.000,V
626,-0.485,1.900,-0.455,83.333,86.111,405.556,772.222,166.667,N
627,-0.235,2.120,-0.230,119.444,63.889,75.000,902.778,130.556,N
628,-0.195,2.125,-0.255,161.111,63.889,77.778,844.444,58.333,N
629,-0.330,1.960,-0.355,186.111,61.111,75.000,822.222,22.222,N
630,-0.155,1.950,-0.145,75.000,61.111,75.000,727.778,94.444,N
631,-0.130,1.765,-0.185,158.333,66.667,77.778,880.556,152.778,N
632,-0.235,1.800,-0.385,66.667,61.111,72.222,716.667,163.889,N
633,-0.380,1.800,-0.445,94.444,63.889,75.000,825.000,108.333,N
634,-0.355,1.745,-0.320,166.667,66.667,77.778,838.889,13.889,N
635,-0.095,1.545,-0.305,47.222,94.444,94.444,911.111,72.222,N
636,-0.235,1.585,-0.355,194.444,77.778,88.889,752.778,158.333,N
637,-0.545,1.505,-0.590,172.222,61.111,75.000,827.778,75.000,N
638,-0.635,1.425,-0.735,141.667,63.889,77.778,786.111,41.667,N
639,-0.720,1.365,-0.800,150.000,58.333,72.222,833.333,47.222,N
640,-0.810,1.305,-0.830,175.000,61.111,72.222,641.667,191.667,N
641,-0.680,1.310,-0.720,197.222,61.111,75.000,786.111,144.444,N
642,-0.740,1.285,-0.955,177.778,94.444,100.000,1033.333,247.222,N
643,-0.695,1.185,-0.695,510547.222,61.111,-510513.889,1650.000,616.667,N
644,-0.840,1.305,-0.865,50.000,58.333,380.556,822.222,827.778,N
645,-0.680,1.460,-0.765,55.556,58.333,69.444,819.444,2.778,N
646,-0.670,1.585,-0.610,55.556,69.444,83.333,800.000,19.444,N
647,-0.530,1.700,-0.615,47.222,61.111,377.778,741.667,58.333,N
648,-0.530,1.730,-0.570,61.111,61.111,377.778,763.889,22.222,N
649,-0.500,1.670,-0.500,55.556,80.556,91.667,769.444,5.556,N
650,-0.490,1.585,-0.580,50.000,63.889,75.000,841.667,72.222,N
651,-0.580,1.630,-0.615,194.444,86.111,97.222,1022.222,180.556,N
652,-0.590,1.700,-0.620,47.222,61.111,72.222,950.000,72.222,N
653,-0.495,1.825,-0.490,169.444,63.889,75.000,650.000,300.000,N
654,-0.485,1.840,-0.435,163.889,63.889,75.000,600.000,50.000,N
655,-0.415,1.910,-0.445,141.667,61.111,72.222,811.111,211.111,N
656,-0.365,1.905,-0.385,122.222,63.889,77.778,786.111,25.000,N
657,-0.370,1.890,-0.455,47.222,61.111,377.778,730.556,55.556,N
658,-0.380,1.835,-0.350,50.000,61.111,72.222,727.778,2.778,N
659,-0.135,1.995,-0.215,72.222,61.111,72.222,686.111,41.667,N
660,-0.160,1.900,-0.270,172.222,61.111,75.000,702.778,16.667,N
661,0.595,1.495,-0.640,58.333,116.667,402.778,555.556,147.222,V
662,-0.560,1.700,-0.590,41.667,58.333,72.222,716.667,161.111,N
663,-0.455,1.785,-0.495,166.667,61.111,75.000,588.889,127.778,N
664,-0.500,1.715,-0.615,75.000,80.556,400.000,672.222,83.333,N
665,-0.585,1.625,-0.695,47.222,61.111,72.222,800.000,127.778,N
666,-0.615,1.605,-0.605,130.556,58.333,69.444,738.889,61.111,N
667,-0.455,1.650,-0.600,69.444,63.889,77.778,938.889,200.000,N
668,-0.655,1.485,-0.795,119.444,63.889,75.000,1272.222,333.333,N
669,-0.680,1.545,-0.675,100.000,61.111,75.000,850.000,422.222,N
670,-0.665,1.620,-0.725,150.000,58.333,72.222,1211.111,361.111,N
671,-0.750,1.545,-0.800,152.778,61.111,75.000,1066.667,144.444,N
672,-0.770,1.575,-0.820,191.667,63.889,75.000,811.111,255.556,N
673,-0.705,1.670,-0.740,175.000,63.889,75.000,850.000,38.889,N
674,-0.620,1.715,-0.695,122.222,58.333,69.444,547.222,302.778,N
675,-0.605,1.775,-0.610,130.556,61.111,69.444,816.667,269.444,N
676,-0.385,1.880,-0.385,100.000,58.333,72.222,802.778,13.889,N
677,-0.350,1.810,-0.485,69.444,61.111,366.667,733.333,69.444,N
678,0.815,1.525,-0.640,58.333,116.667,405.556,580.556,152.778,V
679,-0.580,1.730,-0.565,52.778,63.889,75.000,977.778,397.222,N
680,-0.480,1.775,-0.520,125.000,63.889,75.000,550.000,427.778,N
681,-0.410,1.805,-0.500,47.222,63.889,75.000,741.667,191.667,N
682,-0.315,1.840,-0.405,58.333,61.111,380.556,805.556,63.889,N
683,-0.320,1.910,-0.370,50.000,58.333,380.556,800.000,5.556,N
684,0.540,1.585,-0.565,58.333,116.667,405.556,563.889,236.111,V
685,-0.345,1.975,-0.460,136.111,86.111,100.000,1019.444,455.556,N
686,-0.355,1.900,-0.365,152.778,61.111,72.222,838.889,180.556,N
687,0.980,1.705,-0.540,58.333,116.667,405.556,563.889,275.000,V
688,-0.285,1.895,-0.265,61.111,61.111,375.000,952.778,388.889,N
689,0.130,1.985,0.185,113.889,61.111,75.000,850.000,102.778,N
690,0.310,1.930,0.260,152.778,61.111,75.000,866.667,16.667,N
691,0.090,1.755,-0.025,197.222,61.111,69.444,858.333,8.333,N
692,-0.285,1.485,-0.440,197.222,61.111,72.222,802.778,55.556,N
693,-0.625,1.315,-0.715,194.444,63.889,77.778,830.556,27.778,N
694,-0.745,1.265,-0.860,44.444,61.111,72.222,608.333,222.222,N
695,-0.900,1.300,-0.890,161.111,58.333,72.222,783.333,175.000,N
696,-0.785,1.380,-0.890,111.111,61.111,75.000,786.111,2.778,N
697,-0.805,1.390,-0.910,77.778,61.111,72.222,711.111,75.000,N
698,-0.850,1.385,-0.960,63.889,66.667,375.000,652.778,58.333,N
699,-0.795,1.575,-0.785,55.556,63.889,75.000,952.778,300.000,N
700,-0.670,1.685,-0.720,125.000,58.333,69.444,961.111,8.333,N
701,-0.600,1.685,-0.720,44.444,58.333,72.222,725.000,236.111,N
702,-0.600,1.815,-0.645,52.778,63.889,75.000,794.444,69.444,N
703,-0.575,1.830,-0.600,197.222,86.111,97.222,802.778,8.333,N
704,-0.570,1.845,-0.605,172.222,80.556,94.444,594.444,208.333,N
705,-0.570,1.825,-0.695,50.000,61.111,72.222,666.667,72.222,N
706,-0.585,1.885,-0.670,138.889,61.111,72.222,908.333,241.667,N
707,-0.515,1.865,-0.615,72.222,61.111,77.778,958.333,50.000,N
708,-0.530,1.895,-0.585,161.111,63.889,75.000,897.222,61.111,N
709,-0.480,1.900,-0.585,116.667,61.111,380.556,825.000,72.222,N
710,-0.230,2.045,-0.075,44.444,63.889,383.333,913.889,88.889,N
711,0.455,2.105,0.400,102.778,63.889,75.000,833.333,80.556,N
712,0.245,1.865,0.120,191.667,61.111,75.000,791.667,41.667,N
713,-0.240,1.465,-0.375,177.778,58.333,72.222,886.111,94.444,N
714,-0.635,1.200,-0.765,197.222,58.333,75.000,791.667,94.444,N
715,-0.945,1.085,-0.695,136.111,61.111,-567963.889,805.556,13.889,N
716,-0.695,1.120,-0.695,568869.444,58.333,-568836.111,872.222,66.667,N
717,-0.615,1.435,-0.385,44.444,55.556,375.000,791.667,80.556,N
718,-0.185,1.455,-0.265,141.667,63.889,75.000,775.000,16.667,N
719,-0.310,1.360,-0.485,150.000,63.889,77.778,627.778,147.222,N
720,-0.620,1.245,-0.735,180.556,58.333,69.444,636.111,8.333,N
721,-0.860,1.240,-0.695,108.333,55.556,-572469.444,797.222,161.111,N
722,-0.965,1.280,-0.995,88.889,63.889,77.778,913.889,116.667,N
723,-0.955,1.355,-0.695,186.111,61.111,-574011.111,633.333,280.556,N
724,-0.820,1.525,-0.655,55.556,63.889,383.333,769.444,136.111,N
725,-0.330,1.685,-0.340,52.778,63.889,363.889,713.889,55.556,N
726,-0.290,1.540,-0.465,172.222,61.111,72.222,644.444,69.444,N
727,-0.620,1.315,-0.755,158.333,63.889,77.778,811.111,166.667,N
728,-0.930,1.235,-0.695,58.333,63.889,-577786.111,838.889,27.778,N
729,-0.695,1.290,-0.695,578608.333,61.111,-578575.000,786.111,52.778,N
730,-0.945,1.525,-0.960,136.111,58.333,380.556,725.000,61.111,N
731,-0.805,1.725,-0.750,150.000,63.889,77.778,583.333,141.667,N
732,-0.535,1.965,-0.355,52.778,63.889,380.556,700.000,116.667,N
733,-0.065,2.110,-0.110,69.444,61.111,380.556,722.222,22.222,N
734,-0.025,2.125,-0.155,61.111,63.889,77.778,780.556,58.333,N
735,-0.245,1.965,-0.360,52.778,58.333,72.222,766.667,13.889,N
736,-0.415,1.940,-0.495,58.333,55.556,69.444,775.000,8.333,N
737,-0.485,1.865,-0.575,52.778,58.333,72.222,780.556,5.556,N
738,-0.450,1.935,-0.565,72.222,61.111,375.000,616.667,163.889,N
739,-0.450,1.920,-0.555,52.778,61.111,375.000,961.111,344.444,N
740,-0.475,1.965,-0.565,61.111,58.333,69.444,780.556,180.556,N
741,-0.515,1.885,-0.640,55.556,58.333,69.444,777.778,2.778,N
742,-0.580,1.875,-0.565,163.889,61.111,75.000,738.889,38.889,N
743,-0.515,1.970,-0.575,52.778,61.111,72.222,852.778,113.889,N
744,-0.470,1.895,-0.575,50.000,61.111,72.222,772.222,80.556,N
745,-0.480,1.805,-0.570,122.222,63.889,75.000,644.444,127.778,N
746,-0.545,1.850,-0.660,61.111,66.667,77.778,933.333,288.889,N
747,-0.540,1.880,-0.605,47.222,61.111,380.556,825.000,108.333,N
748,-0.490,1.925,-0.570,113.889,58.333,72.222,797.222,27.778,N
749,-0.445,1.820,-0.575,197.222,58.333,69.444,700.000,97.222,N
750,-0.595,1.630,-0.740,194.444,58.333,72.222,719.444,19.444,N
751,-0.745,1.645,-0.780,86.111,61.111,380.556,847.222,127.778,N
752,-0.575,1.725,-0.630,47.222,61.111,380.556,938.889,91.667,N
753,-0.465,1.915,-0.300,41.667,58.333,372.222,752.778,186.111,N
754,0.125,2.085,0.080,47.222,63.889,75.000,811.111,58.333,N
755,0.190,2.055,0.105,58.333,61.111,72.222,816.667,5.556,N
756,-0.055,1.845,-0.205,194.444,63.889,77.778,725.000,91.667,N
757,-0.330,1.680,-0.470,166.667,63.889,75.000,591.667,133.333,N
758,-0.195,1.745,0.140,91.667,88.889,405.556,658.333,66.667,N
759,0.405,1.805,0.340,52.778,61.111,75.000,750.000,91.667,N
760,0.225,1.650,0.070,194.444,61.111,75.000,783.333,33.333,N
761,-0.130,1.470,-0.295,191.667,61.111,75.000,658.333,125.000,N
762,-0.415,1.340,-0.590,141.667,63.889,77.778,616.667,41.667,N
763,-0.645,1.265,-0.810,88.889,58.333,69.444,716.667,100.000,N
764,-0.875,1.260,-0.970,69.444,63.889,77.778,766.667,50.000,N
765,-0.955,1.240,-0.695,127.778,61.111,-605627.778,669.444,97.222,N
766,-0.915,1.355,-0.860,72.222,58.333,377.778,1150.000,480.556,N
767,-0.420,1.675,-0.305,44.444,61.111,380.556,872.222,277.778,N
768,-0.095,1.690,-0.235,177.778,66.667,77.778,997.222,125.000,N
769,-0.480,1.520,-0.605,180.556,63.889,77.778,1008.333,11.111,N
770,0.300,1.070,-0.695,58.333,116.667,-610200.000,566.667,441.667,V
771,-0.695,1.285,-0.695,611244.444,83.333,-611188.889,986.111,419.444,N
772,-0.695,1.365,-0.695,611805.556,86.111,-611747.222,561.111,425.000,N
773,-0.695,1.505,-0.695,612552.778,61.111,-612519.444,747.222,186.111,N
774,-0.830,1.735,-0.830,58.333,63.889,375.000,819.444,72.222,N
775,-0.650,1.900,-0.505,44.444,58.333,380.556,683.333,136.111,N
776,0.940,1.775,-0.320,58.333,116.667,394.444,594.444,88.889,V
777,-0.165,2.090,-0.235,52.778,63.889,380.556,713.889,119.444,N
778,-0.230,2.005,-0.310,155.556,63.889,75.000,761.111,47.222,N
779,-0.375,2.030,-0.445,197.222,63.889,375.000,713.889,47.222,N
780,-0.250,2.000,-0.335,69.444,58.333,69.444,775.000,61.111,N
781,-0.280,2.020,-0.325,94.444,66.667,77.778,688.889,86.111,N
782,-0.280,2.020,-0.415,183.333,63.889,77.778,725.000,36.111,N
783,-0.400,1.925,-0.555,75.000,66.667,77.778,625.000,100.000,N
784,-0.545,1.895,-0.600,108.333,61.111,75.000,802.778,177.778,N
785,1.585,-0.820,-0.550,27.778,58.333,338.889,586.111,216.667,V
786,-0.280,1.975,-0.340,47.222,58.333,75.000,780.556,194.444,N
787,-0.405,1.765,-0.595,180.556,58.333,69.444,875.000,94.444,N
788,0.240,1.400,-0.600,58.333,116.667,405.556,661.111,213.889,V
789,-0.310,1.855,-0.340,47.222,58.333,375.000,833.333,172.222,N
790,-0.270,1.815,-0.375,191.667,61.111,75.000,747.222,86.111,N
791,-0.525,1.690,-0.620,147.222,61.111,77.778,822.222,75.000,N
792,-0.605,1.675,-0.670,52.778,61.111,75.000,577.778,244.444,N
793,-0.710,1.700,-0.740,61.111,61.111,72.222,822.222,244.444,N
794,-0.695,1.655,-0.830,141.667,61.111,75.000,797.222,25.000,N
795,-0.750,1.690,-0.760,155.556,61.111,369.444,616.667,180.556,N
796,-0.665,1.700,-0.695,52.778,61.111,380.556,822.222,205.556,N
797,-0.570,1.825,-0.580,158.333,58.333,69.444,644.444,177.778,N
798,-0.525,1.805,-0.625,58.333,61.111,75.000,733.333,88.889,N
799,-0.690,1.680,-0.735,169.444,61.111,75.000,816.667,83.333,N
800,-0.685,1.640,-0.750,58.333,61.111,72.222,786.111,30.556,N
801,-0.545,1.745,-0.565,52.778,61.111,75.000,858.333,72.222,N
802,-0.355,1.895,-0.410,44.444,61.111,380.556,736.111,122.222,N
803,-0.175,2.020,-0.230,41.667,61.111,363.889,616.667,119.444,N
804,-0.120,2.025,-0.165,197.222,61.111,72.222,763.889,147.222,N
805,-0.115,2.075,-0.180,172.222,80.556,94.444,738.889,25.000,N
806,-0.200,1.990,-0.300,197.222,61.111,72.222,763.889,25.000,N
807,0.835,1.675,-0.585,58.333,116.667,388.889,566.667,197.222,V
808,-0.420,1.745,-0.525,50.000,58.333,377.778,741.667,175.000,N
809,-0.435,1.675,-0.460,69.444,58.333,69.444,727.778,13.889,N
810,-0.385,1.765,-0.445,41.667,61.111,72.222,666.667,61.111,N
811,-0.360,1.780,-0.110,113.889,86.111,405.556,772.222,105.556,N
812,0.200,2.045,0.725,77.778,88.889,405.556,572.222,200.000,N
813,0.870,1.980,0.735,150.000,61.111,75.000,966.667,394.444,N
814,0.690,1.800,0.375,130.556,91.667,91.667,588.889,377.778,N
815,-0.035,1.395,-0.220,161.111,61.111,72.222,991.667,402.778,N
816,-0.540,1.215,-0.670,163.889,63.889,75.000,1005.556,13.889,N
817,-0.555,1.195,-0.610,105.556,58.333,72.222,611.111,394.444,N
818,-0.625,1.180,-0.750,141.667,66.667,80.556,666.667,55.556,N
819,-0.820,1.150,-0.915,147.222,58.333,72.222,769.444,102.778,N
820,-0.885,1.255,-0.890,63.889,58.333,69.444,819.444,50.000,N
821,-0.840,1.285,-0.935,50.000,61.111,72.222,986.111,166.667,N
822,-0.845,1.325,-0.945,72.222,61.111,75.000,1052.778,66.667,N
823,-0.840,1.460,-0.845,72.222,80.556,94.444,766.667,286.111,N
824,-0.735,1.590,-0.765,69.444,58.333,72.222,605.556,161.111,N
825,-0.695,1.620,-0.725,119.444,58.333,72.222,833.333,227.778,N
826,-0.430,1.705,-0.175,52.778,63.889,383.333,986.111,152.778,N
827,0.190,1.985,0.275,63.889,61.111,372.222,608.333,377.778,N
828,0.370,1.900,0.260,94.444,61.111,77.778,791.667,183.333,N
829,-0.265,1.475,-0.480,183.333,61.111,72.222,1063.889,272.222,N
830,-0.690,1.375,-0.835,47.222,55.556,377.778,1025.000,38.889,N
831,-0.605,1.450,-0.620,80.556,61.111,75.000,769.444,255.556,N
832,-0.630,1.435,-0.790,58.333,61.111,72.222,844.444,75.000,N
833,-0.885,1.340,-0.935,197.222,63.889,77.778,736.111,108.333,N
834,-0.915,1.390,-0.955,61.111,61.111,72.222,638.889,97.222,N
835,-0.825,1.500,-0.895,58.333,63.889,75.000,688.889,50.000,N
836,-0.750,1.600,-0.835,50.000,61.111,75.000,733.333,44.444,N
837,-0.720,1.685,-0.760,144.444,63.889,77.778,630.556,102.778,N
838,-0.720,1.725,-0.750,44.444,61.111,383.333,719.444,88.889,N
839,-0.550,1.905,-0.345,58.333,63.889,380.556,894.444,175.000,N
840,-0.030,2.015,-0.020,50.000,61.111,75.000,780.556,113.889,N
841,-0.005,1.840,-0.185,177.778,61.111,75.000,769.444,11.111,N
842,-0.055,1.700,-0.055,50.000,61.111,75.000,1005.556,236.111,N
843,-0.015,1.565,-0.085,186.111,58.333,75.000,763.889,241.667,N
844,-0.325,1.380,-0.525,194.444,61.111,75.000,844.444,80.556,N
845,-0.780,1.220,-0.885,127.778,61.111,75.000,891.667,47.222,N
846,-0.995,1.190,-0.695,52.778,63.889,-668586.111,869.444,22.222,N
847,-0.695,1.190,-0.695,669391.667,58.333,-669358.333,769.444,100.000,N
848,-0.695,1.255,-0.695,670263.889,63.889,-670227.778,872.222,102.778,N
849,-0.895,1.420,-0.485,58.333,86.111,402.778,713.889,158.333,N
850,-0.125,1.520,-0.130,61.111,61.111,77.778,786.111,72.222,N
851,-0.260,1.320,-0.540,58.333,91.667,108.333,830.556,44.444,N
852,-0.640,1.190,-0.725,177.778,86.111,97.222,886.111,55.556,N
853,-0.525,1.370,-0.495,58.333,58.333,72.222,613.889,272.222,N
854,-0.515,1.430,-0.635,52.778,61.111,72.222,769.444,155.556,N
855,-0.880,1.320,-0.695,175.000,61.111,-675611.111,780.556,11.111,N
856,-0.970,1.415,-0.965,152.778,63.889,75.000,744.444,36.111,N
857,-0.840,1.620,-0.840,77.778,61.111,377.778,925.000,180.556,N
858,-0.695,1.740,-0.750,50.000,58.333,75.000,780.556,144.444,N
859,-0.515,1.910,-0.550,47.222,63.889,383.333,833.333,52.778,N
860,-0.390,2.110,-0.305,50.000,55.556,372.222,702.778,130.556,N
861,-0.120,2.200,-0.130,58.333,63.889,75.000,705.556,2.778,N
862,-0.075,2.195,-0.240,72.222,63.889,77.778,680.556,25.000,N
863,-0.265,2.015,-0.430,105.556,58.333,69.444,936.111,255.556,N
864,-0.500,1.910,-0.540,138.889,58.333,69.444,883.333,52.778,N
865,-0.710,1.755,-0.775,161.111,61.111,72.222,972.222,88.889,N
866,-0.720,1.655,-0.795,47.222,63.889,75.000,744.444,227.778,N
867,-0.630,1.750,-0.635,47.222,61.111,72.222,875.000,130.556,N
868,-0.500,1.860,-0.480,125.000,61.111,72.222,1102.778,227.778,N
869,-0.440,1.855,-0.525,50.000,66.667,77.778,700.000,402.778,N
870,-0.425,1.905,-0.280,58.333,61.111,377.778,605.556,94.444,N
871,0.230,2.255,0.435,63.889,63.889,372.222,869.444,263.889,N
872,0.470,2.165,0.345,91.667,58.333,72.222,763.889,105.556,N
873,0.150,1.895,-0.045,197.222,63.889,72.222,572.222,191.667,N
874,-0.385,1.580,-0.530,105.556,58.333,69.444,908.333,336.111,N
875,-0.575,1.500,-0.675,77.778,61.111,75.000,808.333,100.000,N
876,-0.710,1.405,-0.845,197.222,58.333,69.444,958.333,150.000,N
877,-0.920,1.290,-0.695,152.778,61.111,-693386.111,702.778,255.556,N
878,-0.695,1.300,-0.695,694180.556,63.889,-694144.444,761.111,58.333,N
879,-0.925,1.375,-0.950,72.222,58.333,72.222,938.889,177.778,N
880,-0.920,1.390,-0.905,55.556,66.667,77.778,1458.333,519.444,N
881,-0.775,1.570,-0.725,91.667,61.111,75.000,797.222,661.111,N
882,-0.610,1.700,-0.620,52.778,61.111,77.778,755.556,41.667,N
883,-0.425,1.855,-0.435,61.111,66.667,80.556,883.333,127.778,N
884,-0.320,1.830,-0.310,161.111,86.111,402.778,694.444,188.889,N
885,-0.025,2.050,0.350,44.444,61.111,380.556,644.444,50.000,N
886,0.610,2.030,0.550,166.667,61.111,77.778,861.111,216.667,N
887,0.230,1.595,-0.005,194.444,61.111,75.000,763.889,97.222,N
888,-0.285,1.290,-0.460,172.222,61.111,75.000,622.222,141.667,N
889,0.065,0.930,-0.945,58.333,116.667,405.556,555.556,66.667,V
890,-0.825,1.230,-0.915,147.222,63.889,75.000,1041.667,486.111,N
891,-0.785,1.375,-0.890,41.667,58.333,375.000,591.667,450.000,N
892,-0.665,1.660,-0.445,133.333,61.111,380.556,997.222,405.556,N
893,-0.190,1.800,-0.035,47.222,61.111,380.556,580.556,416.667,N
894,0.045,1.850,0.005,116.667,63.889,77.778,636.111,55.556,N
895,0.035,1.815,0.010,133.333,66.667,80.556,716.667,80.556,N
896,-0.040,1.700,-0.280,194.444,61.111,75.000,733.333,16.667,N
897,-0.390,1.570,-0.565,169.444,58.333,69.444,633.333,100.000,N
898,-0.840,1.465,-0.985,194.444,55.556,69.444,800.000,166.667,N
899,-0.695,1.345,-0.695,710597.222,61.111,-710563.889,711.111,88.889,N
900,-0.695,1.355,-0.695,711413.889,63.889,-711377.778,816.667,105.556,N
901,-0.695,1.545,-0.695,712197.222,63.889,-712161.111,783.333,33.333,N
902,-0.895,1.660,-0.970,52.778,61.111,377.778,688.889,94.444,N
903,-0.830,1.645,-0.880,108.333,61.111,72.222,652.778,36.111,N
904,-0.680,1.830,-0.750,63.889,61.111,72.222,1252.778,600.000,N
905,-0.550,1.965,-0.615,52.778,61.111,75.000,783.333,469.444,N
906,-0.530,2.050,-0.555,41.667,58.333,69.444,616.667,166.667,N
907,-0.425,2.080,-0.465,61.111,66.667,80.556,836.111,219.444,N
908,-0.285,2.150,-0.355,50.000,61.111,72.222,752.778,83.333,N
909,-0.375,1.990,-0.470,127.778,61.111,72.222,775.000,22.222,N
910,-0.550,1.810,-0.715,141.667,61.111,72.222,647.222,127.778,N
911,-0.705,1.765,-0.700,94.444,58.333,380.556,786.111,138.889,N
912,-0.530,1.855,-0.480,41.667,58.333,369.444,577.778,208.333,N
913,-0.195,2.040,-0.160,116.667,61.111,380.556,911.111,333.333,N
914,-0.080,2.040,-0.175,158.333,63.889,75.000,675.000,236.111,N
915,-0.220,1.925,-0.365,86.111,61.111,72.222,802.778,127.778,N
916,-0.330,1.800,-0.405,111.111,61.111,75.000,850.000,47.222,N
917,-0.325,1.805,-0.430,52.778,58.333,69.444,611.111,238.889,N
918,-0.400,1.760,-0.370,47.222,61.111,380.556,852.778,241.667,N
919,-0.200,1.790,-0.235,47.222,58.333,72.222,633.333,219.444,N
920,-0.280,1.770,-0.430,77.778,58.333,375.000,941.667,308.333,N
921,-0.395,1.710,-0.545,186.111,61.111,72.222,908.333,33.333,N
922,-0.560,1.725,-0.670,191.667,61.111,75.000,875.000,33.333,N
923,-0.585,1.725,-0.550,133.333,61.111,366.667,736.111,138.889,N
924,-0.415,1.680,-0.540,47.222,58.333,69.444,975.000,238.889,N
925,-0.675,1.435,-0.830,150.000,61.111,69.444,883.333,91.667,N
926,-0.900,1.355,-0.930,66.667,61.111,75.000,577.778,305.556,N
927,-0.295,1.725,0.050,47.222,61.111,380.556,941.667,363.889,N
928,0.340,1.895,0.275,50.000,63.889,75.000,616.667,325.000,N
929,0.200,1.695,0.020,197.222,63.889,75.000,869.444,252.778,N
930,-0.155,1.490,-0.260,127.778,61.111,75.000,569.444,300.000,N
931,-0.580,1.370,-0.715,105.556,58.333,72.222,877.778,308.333,N
932,-0.895,1.230,-0.695,50.000,55.556,-736519.444,875.000,2.778,N
933,-0.695,1.235,-0.695,737397.222,63.889,-737363.889,847.222,27.778,N
934,-0.955,1.300,-0.695,52.778,55.556,-737927.778,561.111,286.111,N
935,-0.935,1.490,-0.970,47.222,63.889,383.333,866.667,305.556,N
936,-0.795,1.605,-0.740,194.444,66.667,380.556,644.444,222.222,N
937,-0.530,1.925,-0.240,58.333,63.889,383.333,933.333,288.889,N
938,0.555,2.235,0.535,63.889,61.111,72.222,1305.556,372.222,N
939,0.445,2.075,0.340,127.778,63.889,75.000,625.000,680.556,N
940,-0.110,1.755,-0.190,91.667,61.111,75.000,766.667,141.667,N
941,-0.225,1.735,0.065,50.000,61.111,380.556,658.333,108.333,N
942,0.280,1.765,0.230,44.444,63.889,77.778,755.556,97.222,N
943,0.165,1.465,0.010,122.222,63.889,77.778,580.556,175.000,N
944,-0.285,1.105,-0.560,150.000,94.444,94.444,600.000,19.444,N
945,-0.840,0.910,-0.695,188.889,91.667,-746597.222,938.889,338.889,N
946,-0.695,1.005,-0.695,747450.000,55.556,-747419.444,816.667,122.222,N
947,-0.695,1.095,-0.695,748308.333,100.000,-748263.889,858.333,41.667,N
948,-0.695,1.340,-0.780,749088.889,66.667,386.111,780.556,77.778,N
949,-0.510,1.635,-0.495,44.444,61.111,366.667,630.556,150.000,N
950,-0.430,1.710,-0.480,52.778,61.111,75.000,711.111,80.556,N
951,-0.770,1.590,-0.695,125.000,94.444,-751266.667,872.222,161.111,N
952,-0.935,1.515,-0.695,69.444,63.889,-752113.889,847.222,25.000,N
953,-0.825,1.575,-0.815,44.444,61.111,377.778,552.778,294.444,N
954,-0.425,1.930,-0.370,127.778,83.333,94.444,972.222,419.444,N
955,-0.250,1.920,-0.285,163.889,58.333,72.222,733.333,238.889,N
956,-0.360,1.935,-0.375,188.889,63.889,377.778,666.667,66.667,N
957,0.080,2.075,0.200,61.111,88.889,402.778,805.556,138.889,N
958,0.380,2.045,0.280,108.333,58.333,72.222,608.333,197.222,N
959,-0.130,1.635,-0.380,188.889,58.333,72.222,847.222,238.889,N
960,-0.815,1.335,-0.940,152.778,63.889,77.778,830.556,16.667,N
961,-0.695,1.395,-0.695,758925.000,61.111,-758891.667,758.333,72.222,N
962,-0.695,1.520,-0.695,759661.111,61.111,-759627.778,736.111,22.222,N
963,-0.980,1.575,-0.990,119.444,61.111,75.000,675.000,61.111,N
964,-0.940,1.630,-0.980,113.889,61.111,75.000,661.111,13.889,N
965,-0.860,1.775,-0.870,144.444,83.333,94.444,927.778,266.667,N
966,-0.795,1.785,-0.855,61.111,63.889,77.778,922.222,5.556,N
967,-0.815,1.760,-0.895,47.222,61.111,75.000,716.667,205.556,N
968,-0.730,1.785,-0.795,58.333,63.889,377.778,850.000,133.333,N
969,-0.480,1.985,-0.465,55.556,66.667,77.778,897.222,47.222,N
970,-0.265,2.050,-0.310,66.667,63.889,75.000,913.889,16.667,N
971,-0.160,2.125,-0.260,44.444,61.111,75.000,736.111,177.778,N
972,-0.170,2.120,-0.240,152.778,61.111,75.000,677.778,58.333,N
973,-0.230,2.065,-0.255,50.000,63.889,383.333,1000.000,322.222,N
974,0.115,2.250,0.160,61.111,58.333,72.222,752.778,247.222,N
975,0.165,2.025,-0.050,197.222,63.889,75.000,933.333,180.556,N
976,-0.220,1.750,-0.425,102.778,55.556,69.444,547.222,386.111,N
977,-0.930,1.285,-0.695,161.111,58.333,-771788.889,947.222,400.000,N
978,-0.695,1.280,-0.695,772388.889,61.111,-772355.556,569.444,377.778,N
979,-0.970,1.370,-0.695,105.556,63.889,-773127.778,775.000,205.556,N
980,-0.895,1.515,-0.915,175.000,63.889,369.444,727.778,47.222,N
981,-0.740,1.635,-0.680,63.889,61.111,372.222,536.111,191.667,N
982,-0.525,1.840,-0.170,52.778,63.889,386.111,694.444,158.333,N
983,0.120,2.030,0.295,47.222,61.111,380.556,616.667,77.778,N
984,0.375,2.060,0.270,180.556,63.889,75.000,866.667,250.000,N
985,0.150,1.985,0.040,158.333,61.111,72.222,744.444,122.222,N
986,-0.090,1.900,0.005,75.000,63.889,380.556,922.222,177.778,N
987,0.345,2.050,0.300,111.111,63.889,77.778,833.333,88.889,N
988,-0.300,1.600,-0.500,136.111,58.333,72.222,1091.667,258.333,N
989,-0.830,1.460,-0.940,86.111,58.333,72.222,788.889,302.778,N
990,-0.995,1.465,-0.695,80.556,61.111,-781677.778,725.000,63.889,N
991,-0.780,1.720,-0.780,50.000,61.111,377.778,705.556,19.444,N
992,-0.550,1.820,-0.665,186.111,63.889,77.778,1063.889,358.333,N
993,-0.720,1.810,-0.790,197.222,63.889,80.556,794.444,269.444,N
994,-0.745,1.770,-0.795,113.889,63.889,75.000,875.000,80.556,N
995,-0.795,1.730,-0.850,55.556,61.111,72.222,777.778,97.222,N
996,-0.820,1.745,-0.805,63.889,61.111,75.000,902.778,125.000,N
997,-0.195,2.170,-0.120,47.222,58.333,377.778,950.000,47.222,N
998,0.050,2.230,-0.020,44.444,58.333,72.222,727.778,222.222,N
999,-0.045,2.140,-0.165,55.556,61.111,75.000,547.222,180.556,N
1000,-0.360,2.030,-0.450,47.222,61.111,72.222,891.667,344.444,N
1001,-0.355,2.035,-0.515,50.000,58.333,72.222,575.000,316.667,N
1002,-0.535,1.985,-0.625,100.000,61.111,72.222,875.000,300.000,N
1003,-0.445,2.025,-0.340,44.444,58.333,380.556,811.111,63.889,N
1004,-0.205,2.070,-0.200,80.556,58.333,72.222,611.111,200.000,N
1005,-0.250,1.995,-0.490,130.556,91.667,94.444,552.778,58.333,N
1006,-0.520,1.875,-0.635,138.889,66.667,75.000,738.889,186.111,N
1007,-0.650,1.815,-0.740,55.556,58.333,72.222,750.000,11.111,N
1008,-0.660,1.815,-0.675,61.111,63.889,75.000,800.000,50.000,N
1009,-0.575,1.880,-0.620,58.333,61.111,72.222,608.333,191.667,N
1010,-0.620,1.860,-0.635,194.444,66.667,77.778,794.444,186.111,N
1011,-0.595,1.850,-0.645,158.333,66.667,75.000,600.000,194.444,N
1012,-0.470,1.970,-0.445,47.222,61.111,72.222,1286.111,686.111,N
1013,-0.345,2.020,-0.440,72.222,58.333,72.222,891.667,394.444,N
1014,-0.390,1.930,-0.370,52.778,63.889,383.333,811.111,80.556,N
1015,0.005,2.200,0.280,116.667,61.111,380.556,666.667,144.444,N
1016,0.350,2.225,0.345,97.222,61.111,72.222,813.889,147.222,N
1017,0.695,2.235,0.820,63.889,63.889,383.333,872.222,58.333,N
1018,0.965,2.040,0.830,161.111,66.667,80.556,755.556,116.667,N
1019,0.240,1.460,-0.075,180.556,61.111,72.222,916.667,161.111,N
1020,-0.685,0.970,-0.915,197.222,61.111,75.000,802.778,113.889,N
1021,-0.695,0.750,-0.695,806266.667,66.667,-806230.556,786.111,16.667,N
1022,-0.695,0.670,-0.695,806997.222,66.667,-806961.111,730.556,55.556,N
1023,-0.695,0.740,-0.695,807633.333,63.889,-807597.222,636.111,94.444,N
1024,-0.695,1.010,-0.695,808397.222,63.889,-808363.889,763.889,127.778,N
1025,-0.695,1.245,-0.695,809238.889,83.333,-809180.556,841.667,77.778,N
1026,-0.990,1.435,-0.905,169.444,88.889,394.444,636.111,205.556,N
1027,-0.665,1.825,-0.590,63.889,66.667,372.222,863.889,227.778,N
1028,-0.035,2.165,0.445,80.556,86.111,405.556,855.556,8.333,N
1029,0.565,2.295,0.440,155.556,61.111,75.000,936.111,80.556,N
1030,-0.005,1.900,-0.280,169.444,61.111,72.222,916.667,19.444,N
1031,-0.525,1.705,-0.655,194.444,63.889,77.778,997.222,80.556,N
1032,-0.590,1.715,-0.695,188.889,58.333,72.222,725.000,272.222,N
1033,-0.680,1.765,-0.785,47.222,61.111,72.222,655.556,69.444,N
1034,-0.800,1.745,-0.875,63.889,61.111,72.222,683.333,27.778,N
1035,-0.860,1.750,-0.920,52.778,63.889,77.778,786.111,102.778,N
1036,-0.855,1.745,-0.895,72.222,63.889,77.778,725.000,61.111,N
1037,-0.740,1.810,-0.865,58.333,66.667,383.333,883.333,158.333,N
1038,-0.665,1.940,-0.680,169.444,66.667,386.111,911.111,27.778,N
1039,-0.545,2.000,-0.490,52.778,61.111,383.333,602.778,308.333,N
1040,-0.255,2.130,-0.375,50.000,66.667,80.556,902.778,300.000,N
1041,-0.345,2.070,-0.475,47.222,61.111,72.222,741.667,161.111,N
1042,-0.510,1.990,-0.145,52.778,61.111,375.000,883.333,141.667,N
1043,0.375,2.275,0.530,50.000,63.889,383.333,727.778,155.556,N
1044,0.595,2.130,0.485,102.778,61.111,75.000,686.111,41.667,N
1045,0.195,1.775,-0.015,180.556,61.111,72.222,836.111,150.000,N
1046,-0.275,1.610,-0.515,144.444,61.111,72.222,797.222,38.889,N
1047,-0.610,1.460,-0.715,130.556,61.111,72.222,658.333,138.889,N
1048,-0.615,1.590,-0.245,44.444,61.111,380.556,633.333,25.000,N
1049,0.145,1.805,0.110,66.667,63.889,75.000,733.333,100.000,N
1050,-0.455,1.375,-0.735,194.444,63.889,75.000,1436.111,702.778,N
1051,-0.925,1.195,-0.695,197.222,61.111,-830019.444,600.000,836.111,N
1052,-0.695,1.105,-0.695,831100.000,63.889,-831063.889,1047.222,447.222,N
1053,-0.695,1.045,-0.695,831647.222,61.111,-831613.889,547.222,500.000,N
1054,-0.695,1.115,-0.695,832677.778,63.889,-832638.889,1030.556,483.333,N
1055,-0.695,1.155,-0.695,833558.333,63.889,-833522.222,880.556,150.000,N
1056,-0.695,-1.245,-0.695,834930.556,38.889,-834900.000,1372.222,491.667,""""
1057,-0.690,1.855,-0.735,186.111,105.556,397.222,1188.889,183.333,N
1058,-0.285,2.180,0.240,52.778,63.889,383.333,922.222,266.667,N
1059,0.825,2.650,1.080,41.667,63.889,383.333,686.111,236.111,A
1060,1.120,2.430,0.685,197.222,91.667,97.222,997.222,311.111,N
1061,2.430,0.560,0.410,172.222,91.667,244.444,172.222,825.000,x
1062,-0.160,1.680,-0.695,188.889,91.667,94.444,1372.222,1200.000,N
1063,-0.660,1.410,-0.890,197.222,66.667,77.778,830.556,541.667,N
1064,-0.980,1.345,-0.695,197.222,66.667,-842033.333,969.444,138.889,N
1065,-0.695,1.330,-0.695,842858.333,69.444,-842816.667,788.889,180.556,A
1066,-0.895,1.475,-0.975,197.222,66.667,75.000,930.556,141.667,N
1067,1.485,-1.030,-0.865,155.556,102.778,388.889,158.333,772.222,x
1068,-0.350,1.985,-0.535,183.333,63.889,77.778,1561.111,1402.778,N
1069,-0.305,1.995,-0.430,197.222,66.667,80.556,833.333,727.778,N
1070,-0.210,1.955,-0.380,197.222,61.111,75.000,852.778,19.444,N
1071,-0.200,1.985,-0.335,197.222,66.667,77.778,825.000,27.778,N
1072,-0.160,2.085,-0.315,197.222,69.444,80.556,775.000,50.000,N
1073,2.085,-0.405,-0.355,111.111,58.333,325.000,111.111,663.889,x
1074,-0.190,2.070,-0.310,175.000,61.111,72.222,1377.778,1266.667,N
1075,-0.100,2.115,-0.260,197.222,63.889,75.000,886.111,491.667,N
1076,-0.230,1.945,-0.480,197.222,63.889,75.000,905.556,19.444,N
1077,-0.385,1.765,-0.555,197.222,63.889,116.667,769.444,136.111,N
1078,-0.480,1.620,-0.500,47.222,61.111,380.556,830.556,61.111,N
1079,-0.170,1.640,-0.130,58.333,83.333,402.778,675.000,155.556,N
1080,-0.095,1.540,-0.210,138.889,66.667,80.556,755.556,80.556,N
1081,-0.310,1.485,-0.455,180.556,63.889,77.778,738.889,16.667,N
1082,-0.495,1.375,-0.630,77.778,61.111,75.000,702.778,36.111,N
1083,-0.645,1.305,-0.800,177.778,61.111,72.222,625.000,77.778,N
1084,-0.945,1.170,-0.695,55.556,66.667,-857886.111,750.000,125.000,N
1085,-0.695,1.205,-0.695,858758.333,63.889,-858722.222,836.111,86.111,N
1086,-0.695,1.310,-0.695,859397.222,86.111,-859338.889,638.889,197.222,N
1087,-0.835,1.485,-0.835,116.667,61.111,380.556,783.333,144.444,N
1088,-0.565,1.735,-0.690,58.333,61.111,72.222,825.000,41.667,N
1089,-0.410,1.875,-0.505,58.333,63.889,75.000,855.556,30.556,N
1090,-0.285,2.060,-0.360,77.778,63.889,383.333,919.444,63.889,N
1091,0.035,2.250,0.075,136.111,58.333,72.222,922.222,2.778,N
1092,0.065,2.135,0.020,55.556,61.111,380.556,819.444,102.778,N
1093,0.360,2.265,0.505,75.000,88.889,405.556,619.444,200.000,N
1094,0.585,2.035,0.410,177.778,61.111,72.222,733.333,113.889,N
1095,0.200,1.755,0.000,163.889,61.111,75.000,630.556,102.778,N
1096,-0.485,1.380,-0.845,158.333,91.667,97.222,755.556,125.000,N
1097,-0.695,0.950,-0.695,868088.889,66.667,-868052.778,827.778,72.222,N
1098,-0.695,0.865,-0.695,868638.889,63.889,-868602.778,550.000,277.778,N
1099,-0.695,1.000,-0.695,869327.778,66.667,-869288.889,688.889,138.889,N
1100,-0.695,1.210,-0.695,870083.333,63.889,-870047.222,755.556,66.667,N
1101,0.135,1.120,-0.925,58.333,116.667,402.778,575.000,180.556,V
1102,-0.690,1.615,-0.600,175.000,66.667,380.556,858.333,283.333,N
1103,-0.290,2.040,-0.055,50.000,58.333,380.556,1136.111,277.778,N
1104,0.400,2.165,0.525,44.444,61.111,380.556,602.778,533.333,N
1105,0.535,2.095,0.365,183.333,61.111,72.222,697.222,94.444,N
1106,0.255,1.840,0.005,180.556,61.111,72.222,633.333,63.889,N
1107,-0.295,1.530,-0.595,47.222,91.667,91.667,869.444,236.111,N
1108,-0.560,1.365,-0.675,44.444,63.889,77.778,541.667,327.778,N
1109,-0.735,1.385,-0.410,52.778,58.333,380.556,777.778,236.111,N
1110,0.025,1.615,-0.030,47.222,61.111,75.000,775.000,2.778,N
1111,0.010,1.420,-0.285,150.000,94.444,97.222,613.889,161.111,N
1112,-0.465,1.185,-0.750,183.333,63.889,72.222,694.444,80.556,N
1113,-0.885,1.055,-0.695,197.222,61.111,-879508.333,683.333,11.111,N
1114,-0.695,0.980,-0.695,880197.222,61.111,-880163.889,655.556,27.778,N
1115,-0.695,1.130,-0.695,881088.889,61.111,-881055.556,891.667,236.111,N
1116,-0.695,1.070,-0.695,881630.556,61.111,-881597.222,541.667,350.000,N
1117,-0.695,0.890,-0.695,882513.889,108.333,-882461.111,883.333,341.667,N
1118,-0.985,1.395,-0.975,69.444,61.111,380.556,769.444,113.889,N
1119,-0.845,1.435,-0.890,80.556,58.333,69.444,777.778,8.333,N
1120,-0.855,1.385,-0.695,41.667,58.333,-884755.556,725.000,52.778,N
1121,-0.940,1.405,-0.695,50.000,63.889,-885458.333,705.556,19.444,N
1122,-0.865,1.555,-0.965,50.000,63.889,75.000,877.778,172.222,N
1123,-0.850,1.620,-0.820,58.333,80.556,402.778,694.444,183.333,N
1124,-0.700,1.805,-0.650,72.222,77.778,88.889,813.889,119.444,N
1125,-0.400,1.980,-0.400,88.889,58.333,72.222,822.222,8.333,N
1126,-0.260,2.110,-0.285,69.444,86.111,97.222,747.222,75.000,N
1127,-0.220,2.210,-0.210,50.000,61.111,380.556,713.889,33.333,N
1128,0.110,2.335,0.470,47.222,63.889,377.778,641.667,72.222,N
1129,0.690,2.390,0.620,47.222,58.333,72.222,722.222,80.556,N
1130,0.375,2.055,0.125,191.667,63.889,77.778,861.111,138.889,N
1131,-0.620,1.390,-0.910,191.667,58.333,69.444,1597.222,736.111,N
1132,-0.895,1.320,-0.695,197.222,63.889,-894863.889,913.889,683.333,N
1133,1.320,-1.100,-0.695,113.889,100.000,-894969.444,113.889,800.000,x
1134,-0.595,1.350,-0.775,194.444,63.889,75.000,1455.556,1341.667,N
1135,-0.575,1.425,-0.755,197.222,61.111,161.111,888.889,566.667,N
1136,1.435,-0.795,-0.600,136.111,116.667,405.556,138.889,750.000,x
1137,0.405,1.910,0.230,188.889,66.667,77.778,1411.111,1272.222,N
1138,0.125,1.725,-0.105,197.222,63.889,75.000,836.111,575.000,N
1139,1.725,-0.205,-0.300,169.444,102.778,313.889,169.444,666.667,x
1140,-0.485,1.390,-0.850,188.889,63.889,72.222,1394.444,1225.000,N
1141,-0.840,1.315,-0.695,194.444,61.111,-902080.556,808.333,586.111,N
1142,1.325,-1.080,-0.695,105.556,111.111,-902166.667,108.333,700.000,x
1143,-0.695,1.275,-0.695,903625.000,66.667,-903588.889,1402.778,1294.444,N
1144,-0.695,1.210,-0.695,904438.889,61.111,-904405.556,813.889,588.889,N
1145,1.245,-1.230,-0.695,133.333,63.889,-904569.444,136.111,677.778,x
1146,-0.680,1.700,-0.790,194.444,66.667,77.778,1338.889,1202.778,N
1147,-0.460,1.890,-0.590,197.222,61.111,75.000,897.222,441.667,N
1148,-0.565,1.835,-0.570,116.667,58.333,72.222,800.000,97.222,N
1149,-0.565,1.785,-0.540,72.222,58.333,377.778,752.778,47.222,N
1150,-0.030,2.040,0.130,61.111,86.111,402.778,752.778,0.000,N
1151,0.340,2.085,0.195,97.222,61.111,72.222,705.556,47.222,N
1152,0.040,1.835,-0.155,175.000,63.889,75.000,777.778,72.222,N
1153,-0.235,1.700,-0.380,72.222,61.111,75.000,594.444,183.333,N
1154,-0.375,1.745,-0.440,105.556,61.111,72.222,825.000,230.556,N
1155,0.695,1.735,0.160,58.333,116.667,405.556,647.222,177.778,V
1156,0.985,2.240,0.950,86.111,66.667,80.556,880.556,233.333,N
1157,0.810,1.925,0.530,180.556,58.333,69.444,752.778,127.778,N
1158,0.885,1.445,-0.410,58.333,116.667,391.667,558.333,194.444,V
1159,-0.480,1.395,-0.640,197.222,63.889,75.000,769.444,211.111,N
1160,-0.710,1.280,-0.830,194.444,61.111,75.000,730.556,38.889,N
1161,-0.890,1.235,-0.955,50.000,63.889,383.333,655.556,75.000,N
1162,-0.445,1.475,-0.395,88.889,58.333,72.222,905.556,250.000,N
1163,-0.420,1.400,-0.565,197.222,88.889,100.000,880.556,25.000,N
1164,-0.925,1.200,-0.695,191.667,63.889,-920316.667,1552.778,672.222,N
1165,-0.695,1.260,-0.695,921227.778,61.111,-921191.667,875.000,677.778,N
1166,1.260,-1.380,-0.695,116.667,91.667,-921311.111,116.667,758.333,x
1167,-0.695,1.215,-0.695,922744.444,63.889,-922708.333,1400.000,1283.333,N
1168,-0.735,1.240,-0.830,197.222,108.333,183.333,825.000,575.000,N
1169,1.260,-0.845,-0.800,116.667,97.222,383.333,119.444,705.556,x
1170,-0.565,1.705,-0.670,191.667,69.444,386.111,1405.556,1286.111,N
1171,0.110,2.205,0.350,58.333,61.111,177.778,802.778,602.778,N
1172,2.205,0.305,0.440,163.889,108.333,391.667,163.889,638.889,x
1173,0.095,1.645,-0.360,186.111,63.889,77.778,1391.667,1227.778,N
1174,-0.575,1.330,-0.695,197.222,61.111,-928211.111,791.667,600.000,N
1175,1.330,-1.045,-0.695,116.667,100.000,-928319.444,116.667,675.000,x
1176,-0.695,1.240,-0.695,929725.000,66.667,-929688.889,1363.889,1247.222,N
1177,-0.905,1.400,-0.900,194.444,61.111,144.444,833.333,530.556,N
1178,1.400,-0.925,-0.835,113.889,113.889,386.111,113.889,719.444,x
1179,-0.630,1.640,-0.795,180.556,63.889,75.000,1388.889,1275.000,N
1180,-0.630,1.700,-0.770,197.222,63.889,155.556,813.889,575.000,N
1181,1.730,-0.795,-0.740,127.778,105.556,375.000,130.556,683.333,x
1182,0.110,2.190,0.070,188.889,66.667,77.778,1391.667,1261.111,N
1183,0.375,2.175,0.085,197.222,61.111,72.222,841.667,550.000,N
1184,2.175,0.005,-0.110,130.556,105.556,311.111,130.556,711.111,x
1185,-0.285,1.770,-0.685,180.556,91.667,91.667,1350.000,1219.444,N
1186,-0.430,1.665,-0.610,194.444,66.667,80.556,838.889,511.111,N
1187,1.675,-0.630,-0.650,111.111,108.333,380.556,113.889,725.000,x
1188,-0.415,1.715,-0.610,172.222,63.889,75.000,1355.556,1241.667,N
1189,-0.485,1.620,-0.675,197.222,66.667,152.778,802.778,552.778,N
1190,1.620,-0.680,-0.305,111.111,108.333,394.444,111.111,691.667,x
1191,0.795,1.860,0.455,183.333,88.889,94.444,1402.778,1291.667,N
1192,0.305,1.375,-0.240,197.222,61.111,69.444,797.222,605.556,N
1193,-0.720,0.840,-0.695,119.444,63.889,-942922.222,816.667,19.444,N
1194,-0.695,0.550,-0.695,943697.222,63.889,-943661.111,738.889,77.778,N
1195,-0.695,1.055,-0.695,945352.778,86.111,-945294.444,1655.556,916.667,N
1196,-0.835,1.415,-0.950,197.222,63.889,383.333,863.889,791.667,N
1197,1.415,-0.970,-0.640,122.222,102.778,386.111,122.222,741.667,x
1198,0.325,1.980,-0.020,180.556,94.444,100.000,1441.667,1319.444,N
1199,0.035,1.735,-0.360,197.222,61.111,72.222,830.556,611.111,N
1200,1.735,-0.395,-0.480,116.667,94.444,380.556,116.667,713.889,x
1201,-0.425,1.465,-0.815,188.889,94.444,100.000,1375.000,1258.333,N
1202,-0.505,1.640,-0.660,197.222,63.889,155.556,819.444,555.556,N
1203,1.640,-0.700,-0.650,130.556,113.889,380.556,130.556,688.889,x
1204,-0.075,1.955,-0.375,180.556,91.667,105.556,1355.556,1225.000,N
1205,-0.100,1.965,-0.395,197.222,63.889,72.222,802.778,552.778,N
1206,1.990,-0.435,-0.505,119.444,100.000,325.000,122.222,680.556,x
1207,-0.390,1.890,-0.715,177.778,91.667,94.444,1350.000,1227.778,N
1208,-0.375,1.825,-0.630,197.222,61.111,72.222,830.556,519.444,N
1209,1.885,-0.785,-0.745,144.444,58.333,316.667,147.222,683.333,x
1210,-0.575,1.640,-0.830,183.333,61.111,72.222,1333.333,1186.111,N
1211,-0.580,1.615,-0.795,197.222,61.111,163.889,819.444,513.889,N
1212,1.630,-0.850,-0.745,141.667,116.667,380.556,144.444,675.000,x
1213,-0.150,2.030,-0.290,183.333,61.111,72.222,1358.333,1213.889,N
1214,-0.065,1.845,-0.255,177.778,61.111,136.111,772.222,586.111,A
1215,-0.275,1.860,-0.510,197.222,69.444,80.556,1108.333,336.111,N
1216,1.860,-0.620,-0.310,166.667,116.667,405.556,166.667,941.667,x
1217,0.750,2.250,0.465,177.778,91.667,94.444,1372.222,1205.556,N
1218,0.475,1.845,0.035,197.222,91.667,166.667,825.000,547.222,N
1219,1.845,0.005,-0.200,136.111,88.889,88.889,136.111,688.889,x
1220,-0.210,1.495,-0.415,183.333,63.889,75.000,1372.222,1236.111,N
1221,-0.180,1.370,-0.535,197.222,58.333,155.556,827.778,544.444,N
1222,1.370,-0.550,-0.645,127.778,80.556,322.222,130.556,697.222,x
1223,-0.645,1.215,-0.960,180.556,61.111,72.222,1325.000,1194.444,N
1224,1.215,-1.090,-0.905,155.556,94.444,377.778,155.556,1169.444,x
1225,-0.695,1.415,-0.695,188.889,94.444,-968875.000,1402.778,1247.222,N
1226,-0.710,1.495,-0.930,197.222,63.889,75.000,802.778,600.000,N
1227,1.495,-0.955,-0.970,133.333,97.222,380.556,133.333,669.444,x
1228,-0.780,1.365,-0.695,183.333,94.444,-971127.778,1319.444,1186.111,N
1229,-0.640,1.450,-0.795,197.222,63.889,175.000,833.333,486.111,N
1230,1.480,-0.800,-0.760,147.222,105.556,383.333,150.000,683.333,x
1231,0.330,1.970,0.345,177.778,61.111,75.000,1327.778,1177.778,N
1232,0.585,1.820,0.195,197.222,63.889,75.000,808.333,519.444,N
1233,1.820,0.175,0.000,136.111,102.778,111.111,136.111,672.222,x
1234,-0.320,1.530,-0.705,191.667,66.667,75.000,1363.889,1227.778,N
1235,1.530,-0.890,-0.800,175.000,113.889,380.556,175.000,1188.889,x
1236,-0.100,1.675,-0.290,188.889,63.889,75.000,1350.000,1175.000,N
1237,-0.250,1.455,-0.595,197.222,61.111,75.000,813.889,536.111,N
1238,1.455,-0.640,-0.795,130.556,77.778,316.667,133.333,680.556,x
1239,-0.790,1.320,-0.695,183.333,61.111,-979577.778,1352.778,1219.444,N
1240,-0.685,1.530,-0.960,194.444,58.333,69.444,800.000,552.778,N
1241,1.530,-0.985,-0.965,127.778,91.667,380.556,127.778,672.222,x
1242,-0.720,1.745,-0.945,183.333,58.333,72.222,1375.000,1247.222,N
1243,1.745,-1.080,-0.850,152.778,80.556,344.444,152.778,1222.222,x
1244,-0.205,2.010,-0.405,177.778,61.111,72.222,1330.556,1177.778,N
1245,-0.280,1.860,-0.620,197.222,58.333,72.222,847.222,483.333,N
1246,1.875,-0.655,-0.730,133.333,94.444,375.000,136.111,711.111,x
1247,-0.605,1.790,-0.835,183.333,63.889,77.778,1322.222,1186.111,N
1248,-0.665,1.695,-0.895,191.667,61.111,75.000,838.889,483.333,N
1249,1.705,-0.945,-0.860,155.556,113.889,386.111,158.333,680.556,x
1250,-0.565,1.820,-0.735,186.111,63.889,75.000,1311.111,1152.778,N
1251,0.085,2.190,0.390,44.444,58.333,166.667,819.444,491.667,N
1252,2.190,0.355,0.660,150.000,97.222,386.111,150.000,669.444,x
1253,0.445,1.940,0.130,180.556,61.111,75.000,1283.333,1133.333,N
1254,0.435,1.735,0.160,197.222,58.333,69.444,808.333,475.000,N
1255,1.735,0.120,-0.050,130.556,111.111,311.111,130.556,677.778,x
1256,-0.670,1.000,-0.695,188.889,63.889,-992477.778,1311.111,1180.556,N
1257,-0.695,0.865,-0.695,993344.444,63.889,-993311.111,830.556,480.556,N
1258,0.880,-1.580,-0.695,147.222,108.333,-993444.444,150.000,680.556,x
1259,-0.695,1.120,-0.695,994827.778,66.667,-994788.889,1333.333,1183.333,N
1260,-0.695,1.195,-0.695,995669.444,58.333,-995638.889,841.667,491.667,N
1261,1.225,-1.260,-0.895,141.667,91.667,380.556,144.444,697.222,x
1262,0.100,1.855,-0.150,175.000,61.111,72.222,1300.000,1155.556,N
1263,-0.115,1.675,-0.520,188.889,58.333,69.444,850.000,450.000,N
1264,1.690,-0.610,-0.710,150.000,100.000,358.333,152.778,697.222,x
1265,-0.750,1.565,-0.695,183.333,63.889,-999444.444,1363.889,1211.111,N
1266,1.565,-1.180,-0.695,166.667,91.667,-999613.889,166.667,1197.222,x
1267,-0.830,1.580,-0.695,177.778,63.889,-1000911.111,1300.000,1133.333,N
1268,1.580,-1.110,-0.905,172.222,97.222,383.333,172.222,1127.778,x
1269,-0.435,2.025,-0.535,177.778,63.889,75.000,1330.556,1158.333,N
1270,2.025,-0.615,-0.420,175.000,97.222,388.889,175.000,1155.556,x
1271,-0.205,2.035,-0.315,172.222,58.333,69.444,1275.000,1100.000,N
1272,-0.010,1.945,-0.320,194.444,52.778,66.667,811.111,463.889,N
1273,1.955,-0.385,-0.440,144.444,100.000,358.333,147.222,663.889,x
1274,-0.425,1.860,-0.715,180.556,66.667,77.778,1297.222,1150.000,N
1275,-0.510,1.840,-0.775,197.222,58.333,72.222,819.444,477.778,N
1276,1.840,-0.830,-0.815,158.333,105.556,383.333,158.333,661.111,x
1277,-0.545,1.970,-0.645,177.778,66.667,77.778,1302.778,1144.444,N
1278,0.975,-0.735,-0.310,197.222,113.889,400.000,211.111,1091.667,x
1279,-0.055,2.230,-0.340,175.000,61.111,72.222,1327.778,1116.667,N
1280,-0.200,2.095,-0.430,194.444,58.333,69.444,788.889,538.889,N
1281,2.150,-0.495,-0.455,141.667,108.333,380.556,144.444,644.444,x
1282,-0.255,2.130,-0.480,180.556,63.889,75.000,1313.889,1169.444,N
1283,2.130,-0.600,-0.435,177.778,105.556,386.111,177.778,1136.111,x
1284,-0.255,2.140,-0.490,172.222,63.889,75.000,1344.444,1166.667,N
1285,2.155,-0.570,0.535,188.889,100.000,388.889,191.667,1152.778,x
1286,-0.455,0.695,0.180,61.111,88.889,116.667,352.778,161.111,V
1287,-0.195,2.145,-0.420,191.667,61.111,72.222,980.556,627.778,N
1288,2.175,-0.530,-0.310,180.556,88.889,347.222,183.333,797.222,x
1289,-0.045,2.210,-0.260,175.000,58.333,69.444,1330.556,1147.222,N
1290,0.660,2.450,0.960,44.444,61.111,177.778,783.333,547.222,N
1291,2.450,0.885,1.055,172.222,116.667,358.333,172.222,611.111,x
1292,0.465,1.560,-0.090,183.333,61.111,72.222,1280.556,1108.333,N
1293,-0.505,0.975,-0.915,197.222,61.111,75.000,816.667,463.889,N
1294,0.975,-1.040,-0.695,155.556,91.667,-1019958.333,155.556,661.111,x
1295,-0.695,0.820,-0.695,1021280.556,66.667,-1021244.444,1288.889,1133.333,N
1296,-0.695,1.010,-0.695,1022102.778,66.667,-1022063.889,822.222,466.667,N
1297,1.010,-1.285,-0.695,175.000,111.111,-1022225.000,175.000,647.222,x
1298,-0.705,1.545,-0.855,180.556,63.889,77.778,1283.333,1108.333,N
1299,1.545,-0.940,-0.645,175.000,100.000,380.556,175.000,1108.333,x
1300,-0.330,1.990,-0.450,180.556,61.111,69.444,1347.222,1172.222,N
1301,1.990,-0.560,-0.305,188.889,108.333,391.667,188.889,1158.333,x
1302,0.045,2.180,-0.185,197.222,66.667,77.778,1311.111,1122.222,N
1303,2.165,-0.360,-0.190,197.222,116.667,386.111,200.000,1111.111,x
1304,-0.155,1.965,-0.355,183.333,66.667,77.778,1294.444,1094.444,N
1305,1.965,-0.485,0.415,188.889,97.222,386.111,188.889,1105.556,x
1306,-0.340,0.695,0.135,72.222,88.889,116.667,358.333,169.444,V
1307,-0.065,2.045,-0.305,186.111,61.111,75.000,972.222,613.889,N
1308,2.045,-0.390,-0.025,169.444,94.444,383.333,169.444,802.778,x
1309,1.035,2.380,0.815,186.111,58.333,69.444,1327.778,1158.333,N
1310,0.650,1.960,0.235,197.222,63.889,75.000,802.778,525.000,N
1311,1.960,0.145,-0.115,147.222,105.556,316.667,147.222,655.556,x
1312,-0.430,1.425,-0.880,197.222,88.889,105.556,1336.111,1188.889,N
1313,0.535,-0.975,-0.775,197.222,116.667,377.778,211.111,1125.000,x
1314,-0.855,1.145,-0.695,180.556,61.111,-1034833.333,1275.000,1063.889,N
1315,1.155,-1.330,-0.695,188.889,116.667,-1035000.000,191.667,1083.333,x
1316,-0.895,1.290,-0.695,183.333,63.889,-1036369.444,1344.444,1152.778,N
1317,-0.730,1.430,-0.925,197.222,61.111,183.333,794.444,550.000,N
1318,1.450,-0.930,-0.900,150.000,102.778,383.333,152.778,641.667,x
1319,-0.615,1.720,-0.810,188.889,63.889,75.000,1275.000,1122.222,N
1320,-0.500,1.710,-0.695,197.222,61.111,75.000,775.000,500.000,N
1321,-0.460,1.860,-0.600,197.222,66.667,77.778,827.778,52.778,N
1322,-0.205,1.985,-0.405,197.222,61.111,72.222,805.556,22.222,N
1323,-0.090,1.995,-0.340,191.667,61.111,75.000,805.556,0.000,N
1324,-0.135,2.015,-0.325,194.444,69.444,80.556,841.667,36.111,N
1325,-0.130,2.000,-0.320,194.444,66.667,75.000,855.556,13.889,N
1326,2.000,-0.345,-0.275,155.556,116.667,380.556,155.556,700.000,x
1327,0.345,2.110,0.250,183.333,61.111,75.000,1388.889,1233.333,N
1328,1.920,0.070,0.190,197.222,108.333,355.556,205.556,1183.333,x
1329,-0.215,1.545,-0.605,186.111,61.111,75.000,1347.222,1141.667,N
1330,1.545,-0.835,-0.770,194.444,108.333,377.778,194.444,1152.778,x
1331,-0.830,1.220,-0.695,186.111,63.889,-1048116.667,1325.000,1130.556,N
1332,1.220,-1.135,-0.740,175.000,83.333,352.778,175.000,1150.000,x
1333,-0.480,1.335,-0.580,88.889,66.667,80.556,913.889,738.889,N
1334,-0.420,1.355,-0.400,44.444,61.111,380.556,691.667,222.222,N
1335,-0.020,1.515,-0.090,41.667,63.889,75.000,538.889,152.778,N
1336,-0.075,1.390,-0.190,186.111,61.111,75.000,738.889,200.000,N
1337,-0.255,1.355,-0.490,72.222,63.889,77.778,527.778,211.111,N
1338,-0.575,1.255,-0.710,50.000,63.889,75.000,600.000,72.222,N
1339,-0.210,1.510,-0.150,52.778,58.333,69.444,744.444,144.444,N
1340,0.005,1.565,-0.160,102.778,61.111,116.667,686.111,58.333,N
1341,-0.340,1.375,-0.520,197.222,58.333,69.444,697.222,11.111,N
1342,-0.820,1.205,-0.950,197.222,58.333,69.444,794.444,97.222,N
1343,-0.695,1.165,-0.695,1055905.556,63.889,-1055869.444,644.444,150.000,N
1344,-0.695,1.090,-0.695,1056677.778,63.889,-1056641.667,772.222,127.778,N
1345,-0.695,1.300,-0.695,1057336.111,61.111,-1057302.778,658.333,113.889,N
1346,-0.695,1.515,-0.695,1058002.778,86.111,-1057944.444,666.667,8.333,N
1347,-0.580,1.810,-0.725,197.222,63.889,75.000,1255.556,588.889,N
1348,-0.580,1.805,-0.665,183.333,66.667,77.778,922.222,333.333,N
1349,-0.680,1.725,-0.820,197.222,61.111,75.000,858.333,63.889,N
1350,-0.715,1.660,-0.855,194.444,63.889,75.000,869.444,11.111,N
1351,-0.570,1.810,-0.740,197.222,66.667,77.778,852.778,16.667,N
1352,-0.425,2.030,-0.495,197.222,63.889,75.000,869.444,16.667,N
1353,-0.110,2.145,-0.165,197.222,63.889,77.778,855.556,13.889,N
1354,0.095,2.225,-0.055,197.222,63.889,75.000,838.889,16.667,N
1355,2.225,-0.140,-0.130,161.111,102.778,325.000,161.111,677.778,x
1356,0.100,2.260,-0.020,194.444,61.111,72.222,1383.333,1222.222,N
1357,0.600,2.375,0.565,191.667,63.889,75.000,852.778,530.556,N
1358,0.575,2.130,0.240,197.222,63.889,75.000,841.667,11.111,N
1359,0.070,1.805,-0.295,197.222,58.333,69.444,841.667,0.000,N
1360,-0.430,1.590,-0.685,197.222,66.667,77.778,863.889,22.222,N
1361,-0.520,1.650,-0.350,197.222,61.111,380.556,844.444,19.444,N
1362,0.325,1.740,0.100,197.222,58.333,72.222,847.222,2.778,N
1363,-0.140,1.445,-0.495,197.222,66.667,77.778,850.000,2.778,N
1364,-0.845,1.200,-0.695,197.222,66.667,-1073630.556,858.333,8.333,N
1365,-0.695,1.095,-0.695,1074541.667,63.889,-1074508.333,872.222,13.889,N
1366,1.135,-1.475,-0.695,133.333,86.111,-1074650.000,136.111,736.111,x
1367,-0.695,1.305,-0.695,1076027.778,61.111,-1075994.444,1350.000,1213.889,N
1368,1.325,-1.490,-0.695,188.889,94.444,-1076183.333,191.667,1158.333,x
1369,-0.800,1.560,-0.995,188.889,61.111,75.000,1372.222,1180.556,N
1370,1.560,-1.155,-0.985,188.889,116.667,377.778,188.889,1183.333,x
1371,-0.720,1.775,-0.850,183.333,58.333,69.444,1313.889,1125.000,N
1372,-0.545,1.895,-0.690,197.222,58.333,72.222,847.222,466.667,N
1373,-0.185,1.925,-0.310,197.222,61.111,75.000,833.333,13.889,N
1374,0.060,1.990,-0.120,197.222,58.333,69.444,866.667,33.333,N
1375,1.990,-0.180,-0.130,147.222,94.444,383.333,147.222,719.444,x
1376,-0.175,1.795,-0.515,180.556,61.111,72.222,1300.000,1152.778,N
1377,-0.485,1.710,-0.685,197.222,61.111,75.000,880.556,419.444,N
1378,-0.565,1.750,-0.720,197.222,61.111,72.222,850.000,30.556,N
1379,0.230,1.500,-0.725,58.333,116.667,116.667,569.444,280.556,V
1380,-0.200,2.055,0.095,44.444,61.111,380.556,727.778,158.333,N
1381,0.760,2.380,0.585,197.222,63.889,75.000,1038.889,311.111,N
1382,2.385,0.460,0.485,186.111,108.333,344.444,188.889,850.000,x
1383,0.205,2.030,-0.055,183.333,63.889,72.222,1369.444,1180.556,N
1384,1.960,-0.280,-0.190,197.222,116.667,347.222,202.778,1166.667,x
1385,-0.370,1.685,-0.675,191.667,63.889,75.000,1308.333,1105.556,N
1386,1.685,-0.820,-0.725,191.667,86.111,350.000,191.667,1116.667,x
1387,-0.630,1.680,-0.850,188.889,61.111,75.000,1363.889,1172.222,N
1388,1.500,-1.040,-0.705,197.222,116.667,383.333,205.556,1158.333,x
1389,-0.020,1.905,-0.200,197.222,63.889,75.000,1288.889,1083.333,N
1390,1.905,-0.375,-0.355,183.333,91.667,352.778,183.333,1105.556,x
1391,-0.620,1.570,-0.880,188.889,61.111,75.000,1316.667,1133.333,N
1392,-0.605,1.590,-0.785,197.222,61.111,72.222,830.556,486.111,N
1393,-0.550,1.555,-0.850,194.444,61.111,72.222,797.222,33.333,N
1394,1.595,-0.920,-0.925,155.556,97.222,386.111,158.333,638.889,x
1395,-0.760,1.595,-0.995,183.333,58.333,72.222,1397.222,1238.889,N
1396,-0.680,1.615,-0.890,197.222,58.333,69.444,811.111,586.111,N
1397,1.675,-0.935,-0.840,152.778,94.444,383.333,155.556,655.556,x
1398,-0.480,1.935,-0.600,183.333,58.333,69.444,1277.778,1122.222,N
1399,-0.200,2.090,-0.385,197.222,61.111,72.222,841.667,436.111,N
1400,2.090,-0.415,-0.390,161.111,102.778,388.889,161.111,680.556,x
1401,-0.290,1.920,-0.560,186.111,63.889,77.778,1297.222,1136.111,N
1402,-0.230,2.000,-0.415,197.222,58.333,72.222,830.556,466.667,N
1403,-0.080,2.100,-0.265,197.222,66.667,80.556,855.556,25.000,N
1404,2.100,-0.290,-0.165,186.111,102.778,386.111,186.111,669.444,x
1405,-0.060,2.010,-0.320,177.778,58.333,72.222,1294.444,1108.333,N
1406,-0.105,1.945,-0.360,197.222,61.111,75.000,830.556,463.889,N
1407,1.970,-0.430,-0.375,186.111,116.667,383.333,188.889,641.667,x
1408,-0.075,2.070,-0.040,186.111,63.889,77.778,1283.333,1094.444,N
1409,0.985,2.160,0.820,197.222,58.333,69.444,852.778,430.556,N
1410,0.625,1.780,0.180,197.222,58.333,72.222,833.333,19.444,N
1411,-0.185,1.345,-0.615,197.222,63.889,75.000,808.333,25.000,N
1412,1.350,-0.755,-0.855,166.667,88.889,308.333,169.444,638.889,x
1413,-0.910,1.175,-0.695,191.667,63.889,-1111922.222,1319.444,1150.000,N
1414,1.165,-1.340,-0.695,197.222,113.889,-1112100.000,200.000,1119.444,x
1415,-0.930,1.400,-0.695,197.222,61.111,-1113430.556,1308.333,1108.333,N
1416,1.400,-1.180,-0.985,186.111,102.778,380.556,186.111,1122.222,x
1417,-0.640,1.745,-0.825,188.889,63.889,77.778,1325.000,1138.889,N
1418,1.700,-0.920,-0.340,197.222,97.222,383.333,200.000,1125.000,x
1419,0.505,2.055,0.455,163.889,61.111,72.222,1180.556,980.556,N
1420,-0.065,1.475,-0.365,197.222,61.111,75.000,833.333,347.222,N
1421,-0.895,1.160,-0.695,136.111,61.111,-1118088.889,933.333,100.000,N
1422,-0.695,1.105,-0.695,1118847.222,61.111,-1118813.889,725.000,208.333,N
1423,-0.695,1.290,-0.695,1119480.556,61.111,-1119447.222,633.333,91.667,N
1424,-0.695,1.440,-0.695,1120108.333,61.111,-1120075.000,627.778,5.556,N
1425,-0.995,1.600,-0.980,113.889,55.556,69.444,691.667,63.889,N
1426,-0.745,1.870,-0.870,47.222,61.111,75.000,666.667,25.000,N
1427,-0.640,1.980,-0.695,52.778,63.889,383.333,575.000,91.667,N
1428,-0.330,2.100,-0.275,75.000,86.111,97.222,819.444,244.444,N
1429,0.045,2.135,-0.015,55.556,61.111,75.000,750.000,69.444,N
1430,-0.295,1.910,-0.490,177.778,63.889,77.778,988.889,238.889,N
1431,-0.665,1.870,-0.725,194.444,63.889,75.000,988.889,0.000,N
1432,-0.150,2.115,0.020,50.000,61.111,380.556,827.778,161.111,N
1433,0.335,2.120,0.210,138.889,63.889,77.778,655.556,172.222,N
1434,0.035,1.885,-0.190,194.444,61.111,75.000,677.778,22.222,N
1435,0.315,1.830,-0.605,58.333,116.667,405.556,575.000,102.778,V
1436,-0.325,1.740,-0.360,50.000,63.889,77.778,730.556,155.556,N
1437,-0.395,1.625,-0.635,83.333,61.111,75.000,586.111,144.444,N
1438,-0.760,1.540,-0.925,186.111,58.333,69.444,675.000,88.889,N
1439,-0.955,1.615,-0.990,133.333,63.889,77.778,880.556,205.556,N
1440,-0.950,1.605,-0.990,86.111,61.111,75.000,713.889,166.667,N
1441,-0.940,1.640,-0.995,183.333,61.111,75.000,630.556,83.333,N
1442,-0.875,1.795,-0.905,58.333,61.111,75.000,816.667,186.111,N
1443,-0.755,1.850,-0.815,58.333,58.333,72.222,561.111,255.556,N
1444,-0.700,1.970,-0.725,41.667,55.556,69.444,813.889,252.778,N
1445,-0.590,1.955,-0.655,47.222,61.111,72.222,683.333,130.556,N
1446,-0.515,2.090,-0.555,58.333,66.667,77.778,702.778,19.444,N
1447,-0.395,2.125,-0.450,66.667,61.111,72.222,847.222,144.444,N
1448,-0.470,2.060,-0.565,63.889,58.333,72.222,794.444,52.778,N
1449,-0.545,1.900,-0.315,55.556,63.889,383.333,816.667,22.222,N
1450,0.190,2.060,0.250,58.333,61.111,75.000,680.556,136.111,N
1451,0.210,1.860,0.080,119.444,58.333,72.222,658.333,22.222,N
1452,-0.205,1.660,-0.425,188.889,63.889,75.000,866.667,208.333,N
1453,-0.465,1.650,-0.525,47.222,61.111,75.000,969.444,102.778,N
1454,-0.425,1.720,-0.560,50.000,61.111,75.000,894.444,75.000,N
1455,-0.665,1.730,-0.750,66.667,61.111,75.000,855.556,38.889,N
1456,-0.630,1.825,-0.765,61.111,61.111,366.667,561.111,294.444,N
1457,-0.715,1.795,-0.735,52.778,63.889,75.000,975.000,413.889,N
1458,-0.585,1.855,-0.720,50.000,61.111,75.000,572.222,402.778,N
1459,-0.765,1.725,-0.830,180.556,63.889,77.778,911.111,338.889,N
1460,-0.395,1.930,-0.480,194.444,66.667,80.556,1525.000,613.889,N
1461,0.025,2.150,0.045,191.667,66.667,77.778,886.111,638.889,N
1462,0.200,2.170,0.045,194.444,61.111,75.000,827.778,58.333,N
1463,0.020,2.140,-0.005,197.222,63.889,383.333,847.222,19.444,N
1464,0.330,2.075,0.155,197.222,58.333,69.444,819.444,27.778,N
1465,0.015,1.870,-0.210,180.556,66.667,77.778,886.111,66.667,N
1466,-0.425,1.675,-0.665,194.444,63.889,77.778,880.556,5.556,N
1467,-0.720,1.580,-0.875,197.222,58.333,72.222,863.889,16.667,N
1468,-0.780,1.685,-0.830,169.444,61.111,72.222,980.556,116.667,N
1469,-0.690,1.750,-0.755,191.667,63.889,75.000,830.556,150.000,N
1470,-0.660,1.710,-0.795,177.778,61.111,75.000,880.556,50.000,N
1471,-0.665,1.755,-0.520,197.222,61.111,380.556,900.000,19.444,N
1472,-0.030,1.890,-0.025,197.222,61.111,75.000,875.000,25.000,N
1473,-0.010,1.765,-0.215,197.222,61.111,72.222,888.889,13.889,N
1474,1.765,-0.330,-0.430,161.111,105.556,275.000,161.111,727.778,x
1475,-0.535,1.590,-0.775,194.444,61.111,72.222,1433.333,1272.222,N
1476,1.590,-0.995,-0.715,186.111,102.778,391.667,188.889,1244.444,x
1477,-0.425,1.735,-0.480,197.222,66.667,77.778,1363.889,1175.000,N
1478,-0.020,1.865,-0.200,197.222,61.111,75.000,880.556,483.333,N
1479,-0.270,1.675,-0.515,197.222,61.111,75.000,858.333,22.222,N
1480,-0.535,1.515,-0.770,197.222,61.111,75.000,836.111,22.222,N
1481,-0.790,1.445,-0.950,194.444,61.111,75.000,863.889,27.778,N
1482,-0.835,1.505,-0.980,194.444,63.889,75.000,858.333,5.556,N
1483,-0.770,1.630,-0.850,177.778,63.889,77.778,861.111,2.778,N
1484,1.655,-0.865,-0.720,147.222,100.000,386.111,150.000,711.111,x
1485,0.095,1.815,-0.060,197.222,63.889,75.000,1452.778,1302.778,N
1486,1.815,-0.200,-0.200,180.556,97.222,350.000,180.556,1272.222,x
1487,-0.700,1.205,-0.695,183.333,61.111,-1170861.111,1388.889,1208.333,N
1488,1.205,-1.200,-0.695,175.000,77.778,-1171047.222,175.000,1213.889,x
1489,-0.730,1.285,-0.960,191.667,61.111,75.000,1347.222,1172.222,N
1490,1.300,-1.090,-0.980,183.333,94.444,380.556,186.111,1161.111,x
1491,-0.805,1.605,-0.955,180.556,61.111,72.222,1352.778,1166.667,N
1492,1.605,-1.065,-0.785,180.556,91.667,380.556,180.556,1172.222,x
1493,-0.115,2.000,-0.235,175.000,61.111,72.222,1311.111,1130.556,N
1494,-0.135,1.910,-0.400,197.222,61.111,72.222,844.444,466.667,N
1495,-0.370,1.900,-0.585,194.444,61.111,72.222,852.778,8.333,N
1496,-0.400,1.880,-0.185,197.222,61.111,380.556,813.889,38.889,N
1497,1.930,-0.405,0.165,166.667,116.667,405.556,169.444,644.444,x
1498,0.290,1.755,-0.050,188.889,66.667,77.778,1311.111,1141.667,N
1499,-0.320,1.110,-0.760,197.222,94.444,97.222,866.667,444.444,N
1500,-0.775,0.960,-0.695,197.222,97.222,-1181091.667,827.778,38.889,N
1501,-0.915,1.245,-0.695,197.222,63.889,-1181944.444,850.000,22.222,N
1502,-0.785,1.450,-0.900,197.222,63.889,75.000,838.889,11.111,N
1503,-0.770,1.615,-0.880,197.222,66.667,77.778,861.111,22.222,N
1504,-0.675,1.680,-0.765,194.444,61.111,75.000,863.889,2.778,N
1505,1.740,-0.865,-0.705,158.333,97.222,383.333,161.111,702.778,x
1506,-0.290,1.895,-0.420,197.222,63.889,75.000,1361.111,1200.000,N
1507,1.935,-0.560,-0.415,180.556,75.000,363.889,183.333,1177.778,x
1508,-0.345,1.895,-0.545,180.556,58.333,69.444,1375.000,1191.667,N
1509,1.740,-0.840,-0.595,197.222,58.333,322.222,202.778,1172.222,x
1510,-0.490,1.575,-0.685,180.556,63.889,75.000,1313.889,1111.111,N
1511,1.600,-0.830,-0.660,186.111,86.111,375.000,188.889,1125.000,x
1512,-0.330,1.815,-0.505,188.889,61.111,75.000,1358.333,1169.444,N
1513,1.830,-0.635,0.705,191.667,102.778,383.333,194.444,1163.889,x
1514,-0.515,0.665,0.065,58.333,86.111,111.111,336.111,141.667,V
1515,-0.365,1.695,-0.610,197.222,61.111,75.000,975.000,638.889,N
1516,1.730,-0.765,-0.585,194.444,111.111,380.556,197.222,777.778,x
1517,-0.435,1.675,-0.605,186.111,63.889,75.000,1322.222,1125.000,N
1518,-0.255,1.765,-0.460,191.667,55.556,69.444,816.667,505.556,N
1519,-0.225,1.805,-0.445,197.222,61.111,72.222,800.000,16.667,N
1520,0.140,2.040,0.255,55.556,66.667,77.778,822.222,22.222,N
1521,0.700,2.010,0.455,197.222,61.111,75.000,841.667,19.444,N
1522,0.215,1.600,-0.195,197.222,61.111,72.222,819.444,22.222,N
1523,-0.465,1.325,-0.775,197.222,61.111,72.222,841.667,22.222,N
1524,-0.850,1.160,-0.695,197.222,66.667,-1199486.111,869.444,27.778,N
1525,-0.890,1.220,-0.695,197.222,63.889,-1200380.556,891.667,22.222,N
1526,-0.815,1.460,-0.930,197.222,63.889,75.000,891.667,0.000,N
1527,1.460,-1.015,-0.680,175.000,97.222,380.556,175.000,716.667,x
1528,0.105,1.845,-0.065,186.111,63.889,75.000,1411.111,1236.111,N
1529,0.335,-0.320,-0.180,197.222,58.333,313.889,216.667,1194.444,x
1530,-0.485,1.600,-0.710,180.556,61.111,72.222,1380.556,1163.889,N
1531,0.095,1.770,0.035,194.444,61.111,72.222,894.444,486.111,N
1532,0.015,1.565,-0.330,197.222,61.111,75.000,850.000,44.444,N
1533,-0.555,1.325,-0.895,197.222,61.111,72.222,863.889,13.889,N
1534,1.345,-1.000,-0.990,150.000,91.667,377.778,152.778,711.111,x
1535,-0.980,1.300,-0.695,180.556,58.333,-1208530.556,1308.333,1155.556,N
1536,-0.695,1.250,-0.695,1209413.889,61.111,-1209380.556,852.778,455.556,N
1537,-0.695,1.480,-0.695,1210266.667,63.889,-1210233.333,852.778,0.000,N
1538,-0.330,1.950,-0.365,197.222,58.333,188.889,866.667,13.889,N
1539,1.950,-0.375,-0.305,161.111,105.556,347.222,161.111,705.556,x
1540,-0.365,1.760,-0.635,191.667,66.667,77.778,1322.222,1161.111,N
1541,1.645,-0.880,-0.645,197.222,97.222,383.333,205.556,1116.667,x
1542,-0.605,1.830,-0.800,183.333,63.889,75.000,1369.444,1163.889,N
1543,1.710,-0.975,-0.830,197.222,102.778,352.778,202.778,1166.667,x
1544,-0.600,2.010,-0.765,186.111,63.889,75.000,1305.556,1102.778,N
1545,1.700,-0.880,0.685,197.222,83.333,361.111,205.556,1100.000,x
1546,-0.670,0.665,0.060,58.333,86.111,111.111,333.333,127.778,V
1547,-0.360,2.040,-0.620,197.222,61.111,69.444,1002.778,669.444,N
1548,-0.600,1.720,-0.815,58.333,116.667,405.556,558.333,444.444,V
1549,-0.520,2.025,-0.670,197.222,61.111,75.000,958.333,400.000,N
1550,-0.420,1.840,-0.605,58.333,116.667,405.556,527.778,430.556,V
1551,-0.430,2.070,-0.450,155.556,63.889,77.778,636.111,108.333,N
1552,-0.400,2.125,-0.475,52.778,61.111,75.000,636.111,0.000,N
1553,-0.065,2.335,-0.090,38.889,52.778,66.667,1180.556,544.444,N
1554,-0.010,2.215,-0.120,141.667,61.111,77.778,811.111,369.444,N
1555,-0.175,2.095,-0.265,158.333,61.111,75.000,644.444,166.667,N
1556,-0.400,1.950,-0.505,52.778,61.111,72.222,647.222,2.778,N
1557,-0.565,1.950,-0.685,47.222,63.889,77.778,775.000,127.778,N
1558,-0.560,1.935,-0.595,50.000,61.111,72.222,800.000,25.000,N
1559,-0.445,1.825,-0.520,77.778,61.111,75.000,766.667,33.333,N
1560,-0.605,1.550,-0.770,116.667,58.333,72.222,605.556,161.111,N
1561,-0.785,1.500,-0.780,133.333,58.333,69.444,819.444,213.889,N
1562,-0.630,1.660,-0.695,50.000,61.111,72.222,880.556,61.111,N
1563,-0.695,1.635,-0.770,116.667,61.111,72.222,800.000,80.556,N
1564,-0.670,1.675,-0.675,111.111,61.111,380.556,733.333,66.667,N
1565,-0.505,1.740,-0.480,50.000,61.111,72.222,633.333,100.000,N
1566,-0.385,1.850,-0.565,52.778,61.111,72.222,872.222,238.889,N
1567,-0.530,1.765,-0.570,163.889,61.111,75.000,875.000,2.778,N
1568,-0.535,1.830,-0.595,55.556,63.889,75.000,763.889,111.111,N
1569,-0.480,1.870,-0.460,88.889,63.889,77.778,733.333,30.556,N
1570,-0.415,1.975,-0.540,77.778,58.333,75.000,716.667,16.667,N
1571,-0.360,1.990,-0.400,47.222,58.333,72.222,850.000,133.333,N
1572,-0.355,1.855,-0.455,94.444,63.889,75.000,841.667,8.333,N
1573,-0.465,1.935,-0.510,44.444,55.556,69.444,836.111,5.556,N
1574,-0.445,1.905,-0.495,130.556,61.111,72.222,933.333,97.222,N
1575,-0.285,1.980,-0.290,75.000,55.556,69.444,647.222,286.111,N
1576,-0.150,2.005,-0.240,50.000,58.333,72.222,736.111,88.889,N
1577,-0.235,1.930,-0.385,113.889,63.889,72.222,627.778,108.333,N
1578,-0.420,1.750,-0.515,177.778,63.889,77.778,738.889,111.111,N
1579,-0.420,1.840,-0.385,161.111,58.333,72.222,716.667,22.222,N
1580,-0.305,1.900,-0.410,44.444,55.556,69.444,847.222,130.556,N
1581,-0.385,1.805,-0.470,188.889,58.333,72.222,711.111,136.111,N
1582,-0.535,1.855,-0.580,61.111,58.333,69.444,977.778,266.667,N
1583,-0.480,1.940,-0.455,163.889,61.111,75.000,861.111,116.667,N
1584,-0.350,1.965,-0.410,52.778,58.333,72.222,630.556,230.556,N
1585,-0.335,2.010,-0.410,44.444,58.333,72.222,755.556,125.000,N
1586,-0.300,2.030,-0.355,55.556,61.111,380.556,883.333,127.778,N
1587,0.470,2.280,0.645,66.667,61.111,380.556,872.222,11.111,N
1588,0.645,2.015,0.410,175.000,63.889,75.000,902.778,30.556,N
1589,-0.060,1.455,-0.350,197.222,58.333,72.222,786.111,116.667,N
1590,-0.630,1.190,-0.765,105.556,63.889,75.000,591.667,194.444,N
1591,-0.695,1.075,-0.695,1251202.778,63.889,-1251166.667,838.889,247.222,N
1592,-0.695,1.210,-0.695,1251969.444,63.889,-1251933.333,766.667,72.222,N
1593,-0.930,1.295,-0.695,175.000,61.111,-1253166.667,1230.556,463.889,N
1594,-0.695,1.260,-0.695,1254161.111,63.889,-1254127.778,961.111,269.444,N
1595,-0.695,1.330,-0.695,1254922.222,86.111,-1254863.889,761.111,200.000,N
1596,-0.695,1.420,-0.695,1255583.333,63.889,-1255547.222,661.111,100.000,N
1597,-0.695,1.565,-0.695,1256216.667,61.111,-1256180.556,633.333,27.778,N
1598,-0.695,1.685,-0.695,1256944.444,88.889,-1256886.111,727.778,94.444,N
1599,-0.930,1.720,-0.955,50.000,55.556,69.444,558.333,169.444,N
1600,-0.805,1.780,-0.940,72.222,63.889,75.000,1025.000,466.667,N
1601,-0.675,1.900,-0.690,50.000,58.333,377.778,875.000,150.000,N
1602,-0.140,2.130,0.170,47.222,61.111,377.778,738.889,136.111,N
1603,0.235,1.945,0.070,88.889,63.889,77.778,941.667,202.778,N
1604,-0.735,1.510,-0.835,152.778,61.111,75.000,1458.333,516.667,N
1605,-0.975,1.490,-0.695,47.222,58.333,-1263308.333,797.222,661.111,N
1606,-0.695,1.545,-0.695,1263869.444,58.333,-1263836.111,530.556,266.667,N
1607,-0.930,1.560,-0.695,72.222,61.111,-1264497.222,663.889,133.333,N
1608,-0.885,1.490,-0.975,52.778,61.111,75.000,677.778,13.889,N
1609,-0.835,1.370,-0.695,47.222,91.667,-1265775.000,597.222,80.556,N
1610,-0.855,1.720,-0.880,50.000,63.889,380.556,788.889,191.667,N
1611,-0.680,2.000,-0.720,47.222,61.111,75.000,933.333,144.444,N
1612,-0.555,2.025,-0.560,69.444,63.889,375.000,630.556,302.778,N
1613,-0.395,2.100,-0.370,97.222,61.111,380.556,602.778,27.778,N
1614,-0.350,2.100,-0.480,52.778,58.333,75.000,913.889,311.111,N
1615,-0.415,2.090,-0.305,55.556,61.111,380.556,777.778,136.111,N
1616,0.100,2.170,0.045,86.111,58.333,72.222,755.556,22.222,N
1617,-0.095,1.935,-0.240,188.889,66.667,77.778,875.000,119.444,N
1618,-0.435,1.720,-0.630,188.889,58.333,72.222,663.889,211.111,N
1619,-0.750,1.655,-0.875,52.778,61.111,75.000,763.889,100.000,N
1620,-0.700,1.755,-0.475,44.444,61.111,380.556,866.667,102.778,N
1621,-0.085,1.900,-0.120,66.667,63.889,77.778,758.333,108.333,N
1622,-0.160,1.775,-0.290,166.667,61.111,75.000,691.667,66.667,N
1623,-0.640,1.605,-0.890,197.222,58.333,69.444,802.778,111.111,N
1624,-0.995,1.445,-0.695,52.778,61.111,-1277491.667,891.667,88.889,N
1625,-0.695,1.370,-0.695,1278102.778,61.111,-1278069.444,577.778,313.889,N
1626,-0.695,1.330,-0.695,1278922.222,61.111,-1278886.111,819.444,241.667,N
1627,-0.695,1.495,-0.695,1279713.889,58.333,-1279680.556,791.667,27.778,N
1628,-0.875,1.760,-0.855,127.778,63.889,380.556,644.444,147.222,N
1629,-0.690,1.865,-0.740,55.556,61.111,75.000,836.111,191.667,N
1630,-0.625,1.875,-0.760,108.333,61.111,75.000,783.333,52.778,N
1631,-0.660,1.970,-0.705,180.556,61.111,75.000,702.778,80.556,N
1632,-0.460,2.110,-0.245,58.333,61.111,380.556,844.444,141.667,N
1633,-0.015,2.165,-0.095,94.444,63.889,77.778,836.111,8.333,N
1634,-0.070,2.060,-0.140,191.667,61.111,75.000,627.778,208.333,N
1635,-0.290,2.050,-0.405,172.222,58.333,69.444,752.778,125.000,N
1636,-0.360,2.055,-0.465,136.111,58.333,69.444,661.111,91.667,N
1637,-0.435,2.005,-0.530,47.222,58.333,72.222,877.778,216.667,N
1638,-0.445,1.980,-0.465,194.444,63.889,75.000,713.889,163.889,N
1639,-0.465,1.970,-0.520,55.556,66.667,80.556,622.222,91.667,N
1640,-0.490,1.925,-0.545,127.778,63.889,383.333,783.333,161.111,N
1641,-0.230,1.945,0.035,55.556,61.111,380.556,691.667,91.667,N
1642,0.165,1.820,0.065,150.000,63.889,75.000,894.444,202.778,N
1643,-0.305,1.505,-0.455,69.444,63.889,75.000,922.222,27.778,N
1644,-0.700,1.485,-0.820,72.222,58.333,69.444,1002.778,80.556,N
1645,-0.820,1.525,-0.830,175.000,86.111,405.556,1063.889,61.111,N
1646,-0.255,1.750,-0.060,55.556,83.333,402.778,833.333,230.556,N
1647,0.095,1.805,0.045,194.444,58.333,72.222,727.778,105.556,N
1648,-0.350,1.590,-0.525,152.778,61.111,75.000,825.000,97.222,N
1649,-0.525,1.555,-0.595,163.889,58.333,72.222,780.556,44.444,N
1650,-0.635,1.490,-0.745,105.556,58.333,72.222,605.556,175.000,N
1651,-0.900,1.385,-0.990,175.000,61.111,72.222,733.333,127.778,N
1652,-0.695,1.385,-0.695,1299311.111,63.889,-1299275.000,830.556,97.222,N
1653,-0.695,1.425,-0.695,1300086.111,61.111,-1300052.778,775.000,55.556,N
1654,-0.870,1.585,-0.900,55.556,58.333,69.444,872.222,97.222,N
1655,-0.825,1.620,-0.915,47.222,63.889,75.000,602.778,269.444,N
1656,-0.765,1.675,-0.770,50.000,61.111,380.556,797.222,194.444,N
1657,-0.545,1.955,-0.575,47.222,58.333,72.222,827.778,30.556,N
1658,-0.365,2.100,-0.370,44.444,55.556,69.444,863.889,36.111,N
1659,-0.255,2.030,-0.310,119.444,58.333,72.222,1075.000,211.111,N
1660,-0.435,1.915,-0.480,150.000,61.111,75.000,902.778,172.222,N
1661,-0.515,1.980,-0.470,194.444,63.889,75.000,772.222,130.556,N
1662,-0.425,2.050,-0.465,41.667,61.111,72.222,816.667,44.444,N
1663,-0.350,2.005,-0.380,52.778,61.111,75.000,613.889,202.778,N
1664,-0.330,2.035,-0.370,50.000,61.111,75.000,994.444,380.556,N
1665,-0.310,2.140,-0.300,113.889,58.333,69.444,961.111,33.333,N
1666,-0.310,1.975,-0.290,91.667,63.889,77.778,883.333,77.778,N
1667,-0.325,1.955,-0.400,50.000,55.556,72.222,758.333,125.000,N
1668,-0.315,1.960,-0.320,97.222,61.111,72.222,911.111,152.778,N
1669,-0.230,1.940,-0.305,158.333,63.889,75.000,700.000,211.111,N
1670,-0.325,1.880,-0.180,66.667,61.111,366.667,708.333,8.333,N
1671,-0.010,1.890,-0.035,44.444,58.333,69.444,641.667,66.667,N
1672,0.060,1.875,-0.055,50.000,66.667,80.556,608.333,33.333,N
1673,-0.175,1.720,-0.310,188.889,61.111,75.000,869.444,261.111,N
1674,-0.410,1.520,-0.670,180.556,113.889,402.778,725.000,144.444,N
1675,-0.590,1.455,-0.640,144.444,61.111,75.000,602.778,122.222,N
1676,-0.705,1.485,-0.790,166.667,61.111,75.000,1019.444,416.667,N
1677,-0.820,1.395,-0.840,161.111,58.333,72.222,761.111,258.333,N
1678,-0.910,1.345,-0.975,169.444,63.889,75.000,644.444,116.667,N
1679,-0.965,1.350,-0.695,127.778,63.889,-1320811.111,827.778,183.333,N
1680,-0.760,1.465,-0.700,58.333,61.111,380.556,766.667,61.111,N
1681,-0.550,1.530,-0.600,91.667,88.889,100.000,558.333,208.333,N
1682,-0.580,1.610,-0.625,125.000,61.111,72.222,875.000,316.667,N
1683,-0.595,1.680,-0.535,47.222,58.333,366.667,800.000,75.000,N
1684,-0.115,1.875,-0.085,166.667,61.111,72.222,805.556,5.556,N
1685,-0.010,1.760,-0.095,61.111,63.889,77.778,597.222,208.333,N
1686,-0.490,1.385,-0.610,147.222,61.111,75.000,1019.444,422.222,N
1687,-0.710,1.460,-0.805,66.667,58.333,69.444,880.556,138.889,N
1688,-0.755,1.555,-0.850,55.556,58.333,72.222,897.222,16.667,N
1689,0.190,1.110,-0.725,58.333,116.667,402.778,550.000,347.222,V
1690,-0.180,1.885,-0.090,50.000,66.667,383.333,777.778,227.778,N
1691,0.005,1.905,-0.080,152.778,61.111,75.000,838.889,61.111,N
1692,-0.465,1.670,-0.580,127.778,61.111,75.000,866.667,27.778,N
1693,-0.635,1.655,-0.280,47.222,61.111,380.556,747.222,119.444,N
1694,0.115,1.935,0.225,44.444,58.333,377.778,636.111,111.111,N
1695,0.095,1.755,-0.150,119.444,63.889,100.000,880.556,244.444,N
1696,-0.695,-1.140,-0.695,1334952.778,25.000,-1334944.444,1608.333,727.778,""""
1697,-0.960,1.460,-0.695,194.444,63.889,-1336386.111,1469.444,138.889,N
1698,-0.905,1.585,-0.695,197.222,63.889,-1337291.667,905.556,563.889,N
1699,-0.820,1.660,-0.895,197.222,58.333,377.778,777.778,127.778,N
1700,-0.540,1.790,-0.690,197.222,63.889,77.778,813.889,36.111,N
1701,1.825,-0.720,-0.730,136.111,105.556,380.556,138.889,675.000,x
1702,-0.640,1.805,-0.865,188.889,61.111,72.222,1361.111,1222.222,N
1703,-0.710,1.830,-0.865,197.222,63.889,75.000,797.222,563.889,N
1704,1.830,-0.915,-0.930,127.778,91.667,375.000,127.778,669.444,x
1705,-0.570,1.960,-0.710,186.111,63.889,75.000,1352.778,1225.000,N
1706,-0.040,2.140,-0.025,188.889,61.111,163.889,813.889,538.889,N
1707,2.155,-0.030,-0.020,133.333,91.667,286.111,136.111,677.778,x
1708,-0.285,1.710,-0.685,194.444,66.667,75.000,1383.333,1247.222,N
1709,-0.795,1.410,-0.695,194.444,63.889,-1345808.333,813.889,569.444,N
1710,1.410,-1.105,-0.695,133.333,91.667,-1345944.444,133.333,680.556,x
1711,-0.940,1.530,-0.695,197.222,61.111,-1347169.444,1225.000,1091.667,N
1712,1.585,-1.140,-0.975,141.667,94.444,380.556,144.444,1080.556,x
1713,-0.655,1.880,-0.800,191.667,63.889,77.778,997.222,852.778,N
1714,1.880,-0.815,-0.710,158.333,113.889,380.556,158.333,838.889,x
1715,-0.155,2.115,-0.300,183.333,63.889,75.000,1436.111,1277.778,N
1716,0.015,2.170,-0.235,197.222,58.333,72.222,830.556,605.556,N
1717,2.195,-0.250,-0.290,133.333,88.889,319.444,136.111,694.444,x
1718,0.675,2.380,0.515,172.222,61.111,72.222,1361.111,1225.000,N
1719,0.490,2.010,0.060,197.222,61.111,75.000,811.111,550.000,N
1720,2.010,-0.060,-0.270,152.778,105.556,277.778,152.778,658.333,x
1721,-0.780,1.430,-0.695,186.111,63.889,-1354572.222,1377.778,1225.000,N
1722,-0.695,1.400,-0.695,1355411.111,58.333,-1355380.556,802.778,575.000,N
1723,1.400,-1.290,-0.695,133.333,94.444,-1355511.111,136.111,666.667,x
1724,-0.755,1.735,-0.935,191.667,66.667,77.778,1380.556,1244.444,N
1725,-0.615,1.970,-0.745,197.222,63.889,75.000,825.000,555.556,N
1726,1.995,-0.750,-0.685,133.333,105.556,388.889,136.111,688.889,x
1727,-0.340,2.315,-0.455,180.556,63.889,75.000,1350.000,1213.889,N
1728,-0.060,2.220,-0.270,197.222,63.889,183.333,813.889,536.111,N
1729,2.240,-0.295,-0.330,147.222,108.333,350.000,150.000,663.889,x
1730,-0.125,2.315,0.000,175.000,61.111,380.556,1375.000,1225.000,N
1731,0.795,2.315,0.495,197.222,61.111,72.222,802.778,572.222,N
1732,2.330,0.420,0.225,138.889,97.222,288.889,136.111,666.667,x
1733,-0.345,1.555,-0.780,188.889,63.889,75.000,1338.889,1202.778,N
1734,-0.785,1.525,-0.695,197.222,63.889,-1364652.778,833.333,505.556,N
1735,1.525,-1.095,-0.695,152.778,113.889,-1364786.111,152.778,680.556,x
1736,-0.780,1.845,-0.945,188.889,63.889,75.000,1333.333,1180.556,N
1737,-0.595,2.020,-0.700,197.222,63.889,175.000,813.889,519.444,N
1738,2.020,-0.740,-0.625,130.556,88.889,377.778,130.556,683.333,x
1739,-0.125,2.390,-0.280,183.333,63.889,75.000,1375.000,1244.444,N
1740,2.410,-0.400,-0.195,175.000,108.333,380.556,177.778,1197.222,x
1741,-0.005,2.290,-0.285,191.667,63.889,75.000,1375.000,1197.222,N
1742,-0.210,2.200,-0.450,197.222,61.111,72.222,841.667,533.333,N
1743,2.200,-0.515,-0.520,127.778,83.333,308.333,127.778,713.889,x
1744,-0.290,2.180,-0.530,183.333,61.111,72.222,1300.000,1172.222,N
1745,-0.350,2.090,-0.570,197.222,58.333,72.222,836.111,463.889,N
1746,2.090,-0.655,-0.650,138.889,91.667,377.778,138.889,697.222,x
1747,-0.535,1.860,-0.750,183.333,66.667,80.556,1358.333,1219.444,N
1748,-0.475,1.940,-0.600,197.222,63.889,383.333,805.556,552.778,N
1749,1.940,-0.665,-0.220,158.333,113.889,402.778,158.333,647.222,x
1750,0.655,2.185,0.370,183.333,63.889,75.000,1322.222,1163.889,N
1751,0.215,1.890,-0.155,197.222,61.111,72.222,841.667,480.556,N
1752,1.890,-0.270,-0.470,141.667,80.556,86.111,141.667,700.000,x
1753,-0.620,1.620,-0.760,175.000,58.333,69.444,1291.667,1150.000,N
1754,1.605,-0.825,-0.335,197.222,113.889,388.889,200.000,1091.667,x
1755,-0.350,1.485,-0.680,177.778,61.111,72.222,1333.333,1133.333,N
1756,-0.895,1.195,-0.870,52.778,58.333,347.222,583.333,750.000,V
1757,-0.695,1.250,-0.695,1382308.333,63.889,-1382272.222,980.556,397.222,N
1758,-0.695,0.460,-0.695,1382852.778,116.667,-1382794.444,544.444,436.111,V
1759,-0.695,1.500,-0.695,1383852.778,66.667,-1383813.889,1000.000,455.556,N
1760,1.505,-1.175,-0.875,183.333,105.556,388.889,186.111,813.889,x
1761,-0.180,2.100,-0.180,180.556,61.111,216.667,1391.667,1205.556,N
1762,2.100,-0.240,0.120,191.667,113.889,400.000,191.667,1200.000,x
1763,-0.060,2.045,-0.425,180.556,61.111,72.222,1341.667,1150.000,N
1764,2.045,-0.650,-0.550,191.667,83.333,372.222,191.667,1150.000,x
1765,-0.155,1.990,-0.410,175.000,58.333,69.444,1369.444,1177.778,N
1766,1.990,-0.540,-0.480,186.111,111.111,386.111,186.111,1183.333,x
1767,-0.580,1.730,-0.800,183.333,61.111,72.222,1336.111,1150.000,N
1768,1.740,-0.975,-0.380,180.556,91.667,380.556,183.333,1152.778,x
1769,-0.810,0.390,-0.220,58.333,88.889,113.889,369.444,186.111,V
1770,-0.550,1.690,-0.770,197.222,63.889,77.778,1000.000,630.556,N
1771,1.690,-0.920,0.150,166.667,91.667,380.556,169.444,830.556,x
1772,-0.800,0.135,-0.365,66.667,77.778,105.556,344.444,175.000,V
1773,-0.685,1.685,-0.865,197.222,63.889,75.000,1011.111,666.667,N
1774,-0.665,1.765,-0.830,116.667,116.667,116.667,536.111,475.000,V
1775,-0.520,1.860,-0.520,186.111,63.889,77.778,838.889,302.778,N
1776,-0.320,2.010,-0.160,50.000,58.333,377.778,636.111,202.778,N
1777,0.240,2.250,0.445,47.222,58.333,377.778,652.778,16.667,N
1778,0.710,2.260,0.610,163.889,63.889,77.778,819.444,166.667,N
1779,0.390,1.995,0.155,166.667,91.667,91.667,577.778,241.667,N
1780,-0.340,1.670,-0.495,138.889,61.111,72.222,863.889,286.111,N
1781,-0.675,1.570,-0.725,191.667,58.333,72.222,791.667,72.222,N
1782,0.160,1.275,-0.895,58.333,116.667,405.556,658.333,133.333,V
1783,-0.625,1.685,-0.600,152.778,86.111,97.222,802.778,144.444,N
1784,-0.445,1.790,-0.420,61.111,61.111,75.000,880.556,77.778,N
1785,-0.275,1.805,-0.340,72.222,58.333,69.444,941.667,61.111,N
1786,-0.545,1.655,-0.650,61.111,61.111,72.222,819.444,122.222,N
1787,-0.720,1.580,-0.760,50.000,61.111,75.000,794.444,25.000,N
1788,-0.570,1.835,-0.570,44.444,61.111,72.222,1147.222,352.778,N
1789,-0.375,1.880,-0.455,108.333,58.333,69.444,772.222,375.000,N
1790,-0.520,1.690,-0.645,122.222,58.333,75.000,683.333,88.889,N
1791,-0.750,1.550,-0.815,141.667,63.889,75.000,650.000,33.333,N
1792,0.210,1.280,-0.695,58.333,116.667,-1407558.333,625.000,25.000,V
1793,-0.630,1.740,-0.630,44.444,66.667,383.333,777.778,152.778,N
1794,-0.365,1.855,-0.460,61.111,63.889,80.556,819.444,41.667,N
1795,-0.065,2.035,0.005,47.222,63.889,77.778,952.778,133.333,N
1796,0.345,2.005,0.215,108.333,63.889,75.000,733.333,219.444,N
1797,0.105,1.860,-0.075,183.333,58.333,72.222,711.111,22.222,N
1798,-0.335,1.715,-0.430,166.667,58.333,72.222,850.000,138.889,N
1799,-0.460,1.630,-0.555,83.333,61.111,75.000,880.556,30.556,N
1800,-0.540,1.650,-0.570,102.778,58.333,72.222,750.000,130.556,N
1801,-0.555,1.645,-0.595,191.667,61.111,75.000,655.556,94.444,N
1802,-0.645,1.625,-0.755,66.667,63.889,72.222,841.667,186.111,N
1803,-0.675,1.595,-0.775,97.222,61.111,102.778,763.889,77.778,N
1804,-0.650,1.685,-0.670,163.889,63.889,72.222,636.111,127.778,N
1805,-0.555,1.755,-0.585,91.667,66.667,75.000,663.889,27.778,N
1806,-0.520,1.745,-0.670,66.667,61.111,72.222,708.333,44.444,N
1807,-0.520,1.790,-0.520,116.667,61.111,75.000,786.111,77.778,N
1808,-0.105,1.935,-0.060,47.222,66.667,77.778,1255.556,469.444,N
1809,-0.095,1.835,-0.235,194.444,61.111,72.222,819.444,436.111,N
1810,-0.405,1.650,-0.475,186.111,61.111,75.000,858.333,38.889,N
1811,-0.505,1.685,-0.530,47.222,61.111,72.222,583.333,275.000,N
1812,-0.360,1.795,-0.180,44.444,58.333,377.778,797.222,213.889,N
1813,0.030,1.870,-0.015,144.444,61.111,75.000,808.333,11.111,N
1814,-0.085,1.695,-0.220,177.778,61.111,72.222,700.000,108.333,N
1815,-0.470,1.470,-0.635,197.222,63.889,75.000,700.000,0.000,N
1816,-0.855,1.290,-0.930,147.222,55.556,69.444,763.889,63.889,N
1817,-0.965,1.270,-0.695,52.778,61.111,-1427211.111,811.111,47.222,N
1818,-0.880,1.435,-0.910,44.444,61.111,72.222,916.667,105.556,N
1819,-0.270,1.700,-0.235,55.556,63.889,75.000,919.444,2.778,N
1820,-0.165,1.700,-0.260,180.556,61.111,72.222,661.111,258.333,N
1821,-0.505,1.595,-0.670,197.222,61.111,72.222,786.111,125.000,N
1822,-0.835,1.455,-0.880,130.556,63.889,75.000,933.333,147.222,N
1823,-0.850,1.555,-0.825,44.444,63.889,77.778,902.778,30.556,N
1824,-0.720,1.695,-0.705,44.444,61.111,377.778,716.667,186.111,N
1825,-0.610,1.815,-0.620,61.111,94.444,383.333,547.222,169.444,N
1826,-0.445,1.850,-0.510,47.222,58.333,72.222,988.889,441.667,N
1827,-0.425,1.805,-0.430,125.000,61.111,75.000,769.444,219.444,N
1828,-0.285,1.965,-0.025,58.333,86.111,402.778,544.444,225.000,N
1829,0.130,1.940,0.025,44.444,58.333,72.222,908.333,363.889,N
1830,-0.300,1.650,-0.450,188.889,61.111,75.000,950.000,41.667,N
1831,-0.510,1.615,-0.555,55.556,66.667,77.778,866.667,83.333,N
1832,-0.475,1.580,-0.595,180.556,61.111,75.000,994.444,127.778,N
1833,-0.920,1.300,-0.695,50.000,61.111,-1440522.222,905.556,88.889,N
1834,-0.695,1.325,-0.695,1441447.222,58.333,-1441413.889,891.667,13.889,N
1835,-0.965,1.360,-0.955,138.889,58.333,72.222,725.000,166.667,N
1836,-0.890,1.435,-0.990,102.778,63.889,75.000,666.667,58.333,N
1837,-0.875,1.590,-0.735,111.111,63.889,383.333,844.444,177.778,N
1838,-0.270,1.845,-0.295,58.333,63.889,80.556,977.778,133.333,N
1839,-0.400,1.795,-0.500,166.667,63.889,75.000,941.667,36.111,N
1840,-0.590,1.765,-0.600,155.556,61.111,75.000,827.778,113.889,N
1841,-0.590,1.740,-0.665,47.222,63.889,75.000,788.889,38.889,N
1842,-0.590,1.795,-0.600,152.778,61.111,75.000,672.222,116.667,N
1843,-0.495,1.860,-0.580,44.444,61.111,380.556,555.556,116.667,N
1844,-0.490,1.835,-0.520,105.556,63.889,75.000,961.111,405.556,N
1845,-0.235,1.915,-0.255,86.111,58.333,72.222,888.889,72.222,N
1846,-0.340,1.805,-0.455,188.889,58.333,72.222,725.000,163.889,N
1847,-0.430,1.765,-0.265,41.667,61.111,380.556,558.333,166.667,N
1848,-0.050,1.860,-0.105,102.778,63.889,77.778,894.444,336.111,N
1849,-0.305,1.650,-0.510,194.444,63.889,77.778,791.667,102.778,N
1850,-0.840,1.500,-0.695,180.556,63.889,-1454016.667,786.111,5.556,N
1851,-0.940,1.455,-0.840,52.778,63.889,383.333,808.333,22.222,N
1852,-0.710,1.570,-0.625,61.111,63.889,75.000,572.222,236.111,N
1853,0.560,1.355,-0.695,58.333,116.667,-1456041.667,666.667,94.444,V
1854,-0.485,1.830,-0.500,58.333,63.889,77.778,872.222,205.556,N
1855,-0.455,1.770,-0.605,175.000,55.556,69.444,680.556,191.667,N
