id,Pamp,Ramp,Tamp,PR,QRS,QT,RRI,dRRI,label
1,0.150,0.670,0.100,44.444,69.444,291.667,897.222,22.222,L
2,0.025,0.705,0.130,58.333,100.000,316.667,841.667,55.556,L
3,-0.080,0.885,0.190,58.333,97.222,305.556,858.333,16.667,L
4,-0.125,0.835,0.175,58.333,94.444,302.778,836.111,22.222,L
5,-0.230,0.700,0.110,58.333,94.444,291.667,844.444,8.333,L
6,0.015,0.690,0.210,58.333,94.444,319.444,825.000,19.444,L
7,-0.030,0.835,0.185,58.333,102.778,327.778,888.889,63.889,L
8,-0.115,0.690,0.090,58.333,102.778,330.556,880.556,8.333,L
9,-0.170,0.580,0.160,58.333,100.000,311.111,836.111,44.444,L
10,-0.100,0.700,0.165,58.333,94.444,319.444,855.556,19.444,L
11,-0.140,0.630,0.100,58.333,94.444,300.000,855.556,0.000,L
12,-0.005,0.385,-0.030,41.667,66.667,269.444,830.556,25.000,L
13,-0.220,0.655,0.070,58.333,100.000,325.000,811.111,19.444,L
14,-0.160,0.690,0.100,58.333,97.222,319.444,875.000,63.889,L
15,-0.120,0.590,0.115,58.333,94.444,319.444,883.333,8.333,L
16,-0.190,0.630,0.120,58.333,97.222,316.667,850.000,33.333,L
17,-0.160,0.605,0.100,58.333,94.444,313.889,886.111,36.111,L
18,0.210,0.590,0.130,41.667,63.889,272.222,830.556,55.556,L
19,-0.100,0.695,0.145,58.333,94.444,294.444,819.444,11.111,L
20,-0.150,0.645,0.115,58.333,100.000,325.000,822.222,2.778,L
21,-0.185,0.610,0.100,58.333,97.222,322.222,908.333,86.111,L
22,-0.220,0.575,0.090,58.333,100.000,338.889,880.556,27.778,L
23,-0.295,0.550,0.055,186.111,97.222,325.000,850.000,30.556,L
24,-0.235,0.580,0.095,58.333,97.222,308.333,863.889,13.889,L
25,-0.155,0.790,0.065,58.333,94.444,300.000,844.444,19.444,L
26,-0.195,0.685,0.060,58.333,97.222,288.889,841.667,2.778,L
27,-0.100,0.645,0.115,58.333,97.222,316.667,838.889,2.778,L
28,-0.050,0.705,0.135,58.333,94.444,313.889,886.111,47.222,L
29,-0.060,0.670,0.150,58.333,97.222,322.222,861.111,25.000,L
30,-0.075,0.865,0.225,58.333,100.000,327.778,858.333,2.778,L
31,-0.010,0.845,0.265,58.333,97.222,305.556,888.889,30.556,L
32,-0.100,0.785,0.190,58.333,97.222,305.556,852.778,36.111,L
33,-0.010,0.815,0.210,58.333,94.444,300.000,836.111,16.667,L
34,-0.005,0.775,0.195,58.333,97.222,322.222,847.222,11.111,L
35,-0.070,0.765,0.215,58.333,100.000,327.778,911.111,63.889,L
36,0.210,0.675,0.175,41.667,66.667,305.556,922.222,11.111,L
37,-0.080,0.760,0.225,58.333,100.000,322.222,883.333,38.889,L
38,-0.095,0.810,0.185,58.333,97.222,302.778,888.889,5.556,L
39,-0.160,0.750,0.185,58.333,97.222,308.333,875.000,13.889,L
40,-0.090,0.700,0.180,58.333,94.444,302.778,855.556,19.444,L
41,-0.075,0.825,0.185,58.333,97.222,325.000,877.778,22.222,L
42,0.280,0.675,0.180,41.667,63.889,288.889,925.000,47.222,L
43,-0.015,0.730,0.240,58.333,97.222,322.222,894.444,30.556,L
44,-0.130,0.625,0.180,58.333,94.444,319.444,869.444,25.000,L
45,0.125,0.515,0.075,41.667,61.111,275.000,886.111,16.667,L
46,-0.115,0.565,0.225,58.333,100.000,308.333,841.667,44.444,L
47,-0.140,0.810,0.120,197.222,91.667,308.333,833.333,8.333,L
48,-0.235,0.690,0.015,58.333,97.222,319.444,875.000,41.667,L
49,-0.010,0.940,0.190,58.333,100.000,338.889,877.778,2.778,L
50,0.010,0.830,0.155,58.333,100.000,313.889,908.333,30.556,L
51,-0.075,0.730,0.125,58.333,97.222,322.222,841.667,66.667,L
52,-0.180,0.780,0.040,58.333,100.000,316.667,861.111,19.444,L
53,-0.215,0.595,-0.005,58.333,100.000,313.889,833.333,27.778,L
54,-0.255,0.750,0.115,188.889,86.111,308.333,811.111,22.222,L
55,-0.015,0.330,0.130,47.222,55.556,277.778,891.667,80.556,L
56,0.050,0.105,0.190,47.222,55.556,261.111,897.222,5.556,L
57,0.100,0.560,0.220,47.222,69.444,280.556,852.778,44.444,L
58,0.125,0.565,0.165,41.667,58.333,280.556,847.222,5.556,L
59,0.095,0.365,0.160,41.667,63.889,283.333,894.444,47.222,L
60,0.045,0.825,0.355,58.333,97.222,316.667,852.778,41.667,L
61,0.170,1.165,0.540,58.333,97.222,316.667,830.556,22.222,L
62,0.165,0.950,0.405,58.333,100.000,327.778,891.667,61.111,L
63,0.200,0.670,0.075,44.444,69.444,291.667,902.778,11.111,L
64,-0.140,0.125,-0.025,41.667,63.889,277.778,902.778,0.000,L
65,-0.345,0.380,-0.235,58.333,97.222,319.444,869.444,33.333,L
66,-0.480,0.110,-0.165,58.333,94.444,311.111,872.222,2.778,L
67,-0.345,0.525,-0.080,58.333,102.778,311.111,850.000,22.222,L
68,-0.135,0.740,0.015,58.333,102.778,327.778,836.111,13.889,L
69,-0.075,0.790,0.100,58.333,102.778,341.667,919.444,83.333,L
70,-0.075,0.845,0.200,58.333,100.000,327.778,916.667,2.778,L
71,-0.025,0.795,0.240,58.333,94.444,288.889,908.333,8.333,L
72,0.135,0.490,0.235,38.889,63.889,286.111,863.889,44.444,L
73,-0.010,0.770,0.290,58.333,94.444,297.222,872.222,8.333,L
74,0.020,0.795,0.300,58.333,97.222,305.556,858.333,13.889,L
75,0.295,0.740,0.395,47.222,69.444,294.444,850.000,8.333,L
76,0.040,0.830,0.290,58.333,97.222,333.333,888.889,38.889,L
77,0.120,0.395,0.055,44.444,58.333,291.667,908.333,19.444,L
78,-0.125,0.615,0.225,58.333,88.889,308.333,855.556,52.778,L
79,-0.035,0.865,0.245,58.333,100.000,311.111,880.556,25.000,L
80,0.155,0.520,0.095,41.667,63.889,275.000,866.667,13.889,L
81,-0.135,0.615,0.120,58.333,94.444,308.333,833.333,33.333,L
82,-0.040,0.570,0.185,58.333,94.444,330.556,844.444,11.111,L
83,-0.110,0.715,0.170,58.333,100.000,327.778,902.778,58.333,L
84,0.175,0.720,0.210,41.667,63.889,297.222,933.333,30.556,L
85,0.150,0.470,0.290,44.444,66.667,280.556,900.000,33.333,L
86,0.015,0.825,0.390,58.333,97.222,311.111,886.111,13.889,L
87,0.110,0.955,0.435,58.333,94.444,300.000,858.333,27.778,L
88,-0.005,0.870,0.410,58.333,97.222,294.444,877.778,19.444,L
89,0.345,0.820,0.415,44.444,58.333,286.111,894.444,16.667,L
90,0.290,0.780,0.340,41.667,63.889,286.111,925.000,30.556,L
91,0.240,0.595,0.230,47.222,69.444,277.778,913.889,11.111,L
92,0.325,0.650,0.325,44.444,66.667,277.778,850.000,63.889,L
93,0.150,0.935,0.380,58.333,94.444,319.444,872.222,22.222,L
94,0.020,0.905,0.330,58.333,97.222,311.111,861.111,11.111,L
95,-0.015,0.405,-0.030,38.889,50.000,258.333,861.111,0.000,L
96,-0.150,0.500,0.075,58.333,94.444,316.667,866.667,5.556,L
97,-0.140,0.665,0.115,58.333,102.778,330.556,900.000,33.333,L
98,0.105,0.565,0.105,44.444,69.444,283.333,936.111,36.111,L
99,0.010,0.375,0.165,44.444,61.111,266.667,880.556,55.556,L
100,-0.040,0.290,0.010,41.667,58.333,252.778,877.778,2.778,L
101,0.065,0.480,0.275,38.889,61.111,272.222,861.111,16.667,L
102,0.505,0.690,0.710,41.667,58.333,277.778,844.444,16.667,L
103,0.480,0.880,0.395,44.444,69.444,291.667,911.111,66.667,L
104,0.140,0.545,0.095,44.444,69.444,300.000,922.222,11.111,L
105,-0.240,0.155,-0.435,41.667,63.889,255.556,897.222,25.000,L
106,-0.370,0.490,-0.195,58.333,100.000,308.333,844.444,52.778,L
107,-0.480,0.745,-0.230,58.333,100.000,319.444,850.000,5.556,L
108,-0.495,0.660,-0.190,58.333,100.000,311.111,866.667,16.667,L
109,-0.335,0.775,-0.070,58.333,102.778,327.778,844.444,22.222,L
110,-0.320,0.575,-0.080,58.333,100.000,325.000,902.778,58.333,L
111,-0.425,0.355,-0.050,58.333,97.222,333.333,908.333,5.556,L
112,-0.280,0.505,0.075,58.333,94.444,297.222,891.667,16.667,L
113,-0.080,0.710,0.240,58.333,94.444,313.889,880.556,11.111,L
114,-0.090,0.690,0.290,58.333,100.000,297.222,883.333,2.778,L
115,0.190,0.445,0.270,44.444,63.889,275.000,855.556,27.778,L
116,0.255,0.910,0.705,58.333,97.222,319.444,838.889,16.667,L
117,0.710,1.395,0.835,58.333,100.000,327.778,908.333,69.444,L
118,0.550,0.880,0.485,44.444,66.667,291.667,913.889,5.556,L
119,0.040,0.285,-0.040,38.889,63.889,275.000,858.333,55.556,L
120,-0.240,0.305,-0.090,58.333,97.222,308.333,833.333,25.000,L
121,-0.445,0.435,-0.275,58.333,100.000,308.333,830.556,2.778,L
122,-0.685,0.025,-0.420,58.333,97.222,302.778,838.889,8.333,L
123,-0.495,0.295,-0.295,58.333,100.000,333.333,836.111,2.778,L
124,-0.315,0.505,-0.060,58.333,100.000,316.667,916.667,80.556,L
125,-0.110,0.705,0.120,58.333,102.778,327.778,888.889,27.778,L
126,-0.130,0.535,0.025,58.333,100.000,313.889,863.889,25.000,L
127,-0.125,0.290,0.155,58.333,100.000,313.889,886.111,22.222,L
128,-0.155,0.715,0.150,58.333,100.000,311.111,869.444,16.667,L
129,-0.075,0.880,0.240,58.333,97.222,291.667,866.667,2.778,L
130,0.220,0.485,0.290,41.667,66.667,288.889,858.333,8.333,L
131,0.080,0.890,0.275,58.333,97.222,333.333,900.000,41.667,L
132,0.045,0.895,0.285,66.667,97.222,336.111,913.889,13.889,L
133,0.095,0.805,0.315,58.333,97.222,322.222,886.111,27.778,L
134,-0.105,0.580,0.250,58.333,88.889,300.000,886.111,0.000,L
135,-0.030,0.515,0.310,58.333,91.667,300.000,836.111,50.000,L
136,-0.045,0.630,0.180,58.333,97.222,294.444,833.333,2.778,L
137,-0.150,0.610,0.100,58.333,94.444,333.333,877.778,44.444,L
138,-0.160,0.560,0.110,58.333,97.222,322.222,913.889,36.111,L
139,0.220,0.540,0.315,44.444,66.667,275.000,897.222,16.667,L
140,0.155,0.890,0.390,58.333,100.000,311.111,847.222,50.000,L
141,0.175,1.090,0.440,58.333,100.000,300.000,877.778,30.556,L
142,0.155,0.920,0.335,58.333,94.444,302.778,863.889,13.889,L
143,0.070,0.795,0.285,58.333,91.667,313.889,852.778,11.111,L
144,-0.080,0.840,0.150,58.333,97.222,333.333,883.333,30.556,L
145,-0.015,0.850,0.380,58.333,97.222,325.000,925.000,41.667,L
146,0.010,0.785,0.320,197.222,97.222,325.000,916.667,8.333,L
147,0.330,0.620,0.275,41.667,63.889,286.111,875.000,41.667,L
148,0.000,0.290,-0.065,41.667,63.889,266.667,866.667,8.333,L
149,-0.185,0.365,0.040,58.333,97.222,322.222,844.444,22.222,L
150,-0.265,0.460,-0.010,58.333,102.778,316.667,830.556,13.889,L
151,-0.385,0.510,-0.055,58.333,97.222,319.444,905.556,75.000,L
152,0.005,0.455,0.100,44.444,66.667,288.889,916.667,11.111,L
153,-0.375,0.415,0.085,58.333,94.444,283.333,916.667,0.000,L
154,0.045,0.770,0.280,58.333,97.222,313.889,841.667,75.000,L
155,0.025,0.925,0.400,58.333,97.222,313.889,847.222,5.556,L
156,0.325,0.835,0.545,38.889,66.667,277.778,855.556,8.333,L
157,0.350,0.725,0.480,41.667,58.333,280.556,844.444,11.111,L
158,0.270,0.425,0.235,41.667,66.667,286.111,897.222,52.778,L
159,0.200,0.750,0.275,58.333,97.222,325.000,855.556,41.667,L
160,-0.030,0.935,0.260,58.333,100.000,300.000,883.333,27.778,L
161,-0.095,0.845,0.175,58.333,94.444,316.667,847.222,36.111,L
162,-0.095,0.815,0.210,58.333,94.444,316.667,863.889,16.667,L
163,-0.405,0.395,-0.015,58.333,94.444,311.111,855.556,8.333,L
164,-0.170,0.705,0.080,58.333,97.222,319.444,825.000,30.556,L
165,-0.065,0.685,0.145,58.333,94.444,333.333,886.111,61.111,L
166,0.035,0.450,0.185,44.444,72.222,300.000,922.222,36.111,L
167,-0.010,0.335,0.205,41.667,52.778,272.222,891.667,30.556,L
168,-0.060,0.085,0.095,41.667,55.556,272.222,866.667,25.000,L
169,0.170,0.480,0.200,38.889,63.889,272.222,830.556,36.111,L
170,-0.140,0.755,0.110,58.333,100.000,300.000,788.889,41.667,L
171,-0.095,0.845,0.190,58.333,102.778,325.000,905.556,116.667,L
172,-0.025,0.745,0.175,58.333,100.000,327.778,916.667,11.111,L
173,-0.180,0.595,0.230,58.333,97.222,325.000,888.889,27.778,L
174,-0.135,0.815,0.250,197.222,88.889,308.333,863.889,25.000,L
175,-0.040,0.860,0.270,58.333,100.000,311.111,866.667,2.778,L
176,-0.145,0.655,0.190,58.333,91.667,297.222,863.889,2.778,L
177,-0.360,0.395,0.000,58.333,97.222,308.333,838.889,25.000,L
178,-0.145,0.620,0.105,58.333,102.778,327.778,800.000,38.889,L
179,-0.035,0.715,0.055,58.333,100.000,322.222,883.333,83.333,L
180,-0.130,0.445,0.115,58.333,94.444,330.556,877.778,5.556,L
181,-0.205,0.835,0.140,191.667,88.889,311.111,866.667,11.111,L
182,0.005,0.895,0.255,58.333,97.222,313.889,883.333,16.667,L
183,0.000,0.950,0.320,58.333,97.222,305.556,841.667,41.667,L
184,-0.070,0.860,0.315,58.333,97.222,291.667,830.556,11.111,L
185,-0.070,0.740,0.135,58.333,97.222,322.222,838.889,8.333,L
186,0.210,0.570,0.285,44.444,66.667,288.889,902.778,63.889,L
187,0.210,0.645,0.285,41.667,61.111,283.333,886.111,16.667,L
188,-0.350,0.460,0.210,197.222,100.000,313.889,852.778,33.333,L
189,0.010,0.685,0.280,58.333,97.222,313.889,869.444,16.667,L
190,0.180,0.610,0.290,38.889,61.111,277.778,836.111,33.333,L
191,0.135,0.545,0.080,41.667,58.333,263.889,844.444,8.333,L
192,0.100,0.315,0.235,41.667,63.889,286.111,827.778,16.667,L
193,-0.050,0.740,0.260,58.333,94.444,319.444,869.444,41.667,L
194,-0.070,0.755,0.300,58.333,97.222,294.444,875.000,5.556,L
195,-0.245,0.495,0.215,186.111,97.222,325.000,852.778,22.222,L
196,-0.100,0.665,0.260,58.333,91.667,311.111,875.000,22.222,L
197,0.150,0.440,0.160,41.667,55.556,247.222,833.333,41.667,L
198,-0.020,0.670,0.265,58.333,94.444,302.778,811.111,22.222,L
199,-0.060,0.860,0.205,58.333,100.000,325.000,811.111,0.000,L
200,0.255,0.635,0.195,41.667,77.778,288.889,875.000,63.889,L
201,0.085,0.310,0.350,44.444,63.889,269.444,886.111,11.111,L
202,0.020,0.125,0.260,38.889,47.222,266.667,875.000,11.111,L
203,0.135,0.400,0.460,44.444,63.889,244.444,830.556,44.444,L
204,0.225,0.390,0.385,44.444,61.111,247.222,827.778,2.778,L
205,0.170,0.385,0.235,50.000,66.667,272.222,833.333,5.556,L
206,0.020,0.240,0.170,44.444,61.111,286.111,827.778,5.556,L
207,0.135,0.440,0.195,47.222,66.667,277.778,880.556,52.778,L
208,0.045,0.310,0.160,44.444,61.111,280.556,861.111,19.444,L
209,-0.015,0.070,0.215,44.444,61.111,255.556,858.333,2.778,L
210,0.115,0.580,0.170,44.444,66.667,280.556,830.556,27.778,L
211,0.070,0.420,0.250,44.444,69.444,288.889,836.111,5.556,L
212,-0.010,0.140,0.195,47.222,55.556,275.000,813.889,22.222,L
213,-0.115,-0.030,0.170,52.778,55.556,275.000,786.111,27.778,L
214,-0.115,-0.775,0.200,25.000,0.000,275.000,808.333,22.222,L
215,-0.110,-0.090,0.110,52.778,61.111,286.111,880.556,72.222,L
216,-0.065,0.715,0.195,58.333,105.556,313.889,836.111,44.444,L
217,-0.045,0.780,0.265,58.333,94.444,316.667,797.222,38.889,L
218,-0.040,0.740,0.195,58.333,97.222,305.556,794.444,2.778,L
219,-0.375,0.195,-0.020,58.333,97.222,305.556,783.333,11.111,L
220,0.065,0.170,0.285,41.667,58.333,252.778,772.222,11.111,L
221,0.145,0.835,0.315,58.333,108.333,316.667,819.444,47.222,L
222,0.060,0.905,0.265,58.333,105.556,319.444,866.667,47.222,L
223,0.000,0.915,0.315,58.333,100.000,313.889,850.000,16.667,L
224,0.050,0.945,0.320,58.333,97.222,313.889,816.667,33.333,L
225,-0.155,0.705,0.115,197.222,97.222,308.333,838.889,22.222,L
226,0.025,0.150,0.005,41.667,61.111,261.111,833.333,5.556,L
227,-0.105,0.390,0.105,58.333,97.222,297.222,794.444,38.889,L
228,-0.150,0.660,0.075,58.333,100.000,313.889,800.000,5.556,L
229,-0.215,0.645,0.045,58.333,97.222,319.444,861.111,61.111,L
230,-0.380,0.570,-0.025,58.333,100.000,311.111,861.111,0.000,L
231,-0.405,0.530,0.020,188.889,94.444,305.556,838.889,22.222,L
232,-0.295,0.495,0.075,58.333,97.222,316.667,850.000,11.111,L
233,0.135,0.555,0.135,38.889,58.333,269.444,833.333,16.667,L
234,0.045,0.230,0.080,41.667,58.333,266.667,822.222,11.111,L
235,0.100,0.955,0.500,58.333,100.000,322.222,794.444,27.778,L
236,0.330,0.980,0.545,58.333,100.000,327.778,877.778,83.333,L
237,0.195,0.940,0.325,58.333,97.222,319.444,858.333,19.444,L
238,-0.190,0.640,0.085,197.222,97.222,275.000,844.444,13.889,L
239,-0.390,0.495,-0.105,58.333,97.222,311.111,802.778,41.667,L
240,-0.510,0.350,-0.285,58.333,97.222,291.667,833.333,30.556,L
241,-0.570,-0.050,-0.140,58.333,97.222,308.333,802.778,30.556,L
242,-0.400,0.575,-0.030,58.333,102.778,325.000,794.444,8.333,L
243,-0.275,0.760,0.045,58.333,100.000,308.333,869.444,75.000,L
244,-0.070,0.710,0.210,58.333,94.444,316.667,875.000,5.556,L
245,-0.170,0.590,0.135,58.333,100.000,300.000,850.000,25.000,L
246,0.030,0.325,0.020,41.667,55.556,280.556,836.111,13.889,L
247,-0.030,0.180,-0.125,41.667,66.667,272.222,827.778,8.333,L
248,0.075,0.255,0.270,41.667,61.111,272.222,797.222,30.556,L
249,-0.010,1.140,0.325,191.667,94.444,316.667,786.111,11.111,L
250,0.130,1.140,0.370,58.333,102.778,327.778,855.556,69.444,L
251,0.050,0.950,0.195,58.333,105.556,319.444,863.889,8.333,L
252,0.310,0.490,0.290,44.444,66.667,286.111,863.889,0.000,L
253,0.045,0.915,0.250,58.333,100.000,311.111,841.667,22.222,L
254,-0.065,0.855,0.255,58.333,97.222,297.222,850.000,8.333,L
255,-0.145,0.790,0.255,58.333,97.222,322.222,822.222,27.778,L
256,-0.055,0.855,0.320,58.333,94.444,302.778,838.889,16.667,L
257,0.120,0.445,0.035,41.667,63.889,286.111,880.556,41.667,L
258,0.125,0.510,0.140,44.444,69.444,277.778,877.778,2.778,L
259,-0.150,0.655,0.170,58.333,97.222,319.444,869.444,8.333,L
260,-0.145,0.715,0.165,58.333,97.222,311.111,847.222,22.222,L
261,-0.140,0.635,0.310,58.333,94.444,316.667,858.333,11.111,L
262,0.185,0.610,0.195,36.111,58.333,272.222,841.667,16.667,L
263,0.125,0.290,0.190,41.667,52.778,261.111,841.667,0.000,L
264,-0.195,0.480,0.050,58.333,94.444,313.889,852.778,11.111,L
265,0.165,0.695,0.205,41.667,66.667,288.889,894.444,41.667,L
266,0.180,0.660,0.190,44.444,66.667,288.889,905.556,11.111,L
267,0.065,0.460,0.185,38.889,58.333,269.444,880.556,25.000,L
268,0.060,0.465,0.240,38.889,52.778,258.333,877.778,2.778,L
269,0.075,0.480,0.260,38.889,61.111,269.444,852.778,25.000,L
270,-0.015,0.350,0.145,41.667,58.333,277.778,841.667,11.111,L
271,-0.145,0.235,0.050,47.222,63.889,288.889,905.556,63.889,L
272,-0.145,0.055,-0.030,44.444,66.667,286.111,925.000,19.444,L
273,-0.145,0.525,0.140,58.333,97.222,294.444,888.889,36.111,L
274,-0.165,0.680,0.065,58.333,97.222,305.556,852.778,36.111,L
275,-0.260,0.405,0.410,58.333,94.444,305.556,863.889,11.111,L
276,0.225,1.085,0.290,180.556,94.444,319.444,858.333,5.556,L
277,-0.090,0.695,0.305,58.333,91.667,305.556,838.889,19.444,L
278,0.180,0.560,0.615,38.889,55.556,272.222,894.444,55.556,L
279,0.010,0.260,0.305,50.000,63.889,272.222,894.444,0.000,L
280,0.145,0.255,0.270,38.889,61.111,241.667,902.778,8.333,L
281,0.300,0.525,0.385,44.444,55.556,277.778,841.667,61.111,L
282,0.285,0.505,0.365,41.667,58.333,272.222,863.889,22.222,L
283,0.365,-0.525,0.325,36.111,2.778,205.556,869.444,5.556,L
284,0.265,-0.615,0.235,36.111,0.000,208.333,827.778,41.667,L
285,0.035,0.105,0.260,44.444,63.889,286.111,850.000,22.222,L
286,0.125,0.435,0.150,41.667,63.889,269.444,900.000,50.000,L
287,0.135,0.385,0.160,44.444,61.111,252.778,880.556,19.444,L
288,0.020,0.270,0.150,38.889,55.556,263.889,838.889,41.667,L
289,0.275,-0.690,0.190,33.333,0.000,213.889,877.778,38.889,L
290,0.225,-0.720,0.145,33.333,2.778,205.556,827.778,50.000,L
291,-0.065,0.125,0.065,44.444,55.556,263.889,797.222,30.556,L
292,0.005,0.020,0.205,50.000,66.667,277.778,888.889,91.667,L
293,0.130,0.420,0.155,44.444,61.111,275.000,880.556,8.333,L
294,0.030,0.225,0.290,47.222,50.000,258.333,869.444,11.111,L
295,0.130,0.540,0.130,44.444,63.889,277.778,833.333,36.111,L
296,0.040,0.390,0.140,44.444,58.333,266.667,877.778,44.444,L
297,-0.200,0.540,0.040,58.333,94.444,302.778,830.556,47.222,L
298,-0.220,0.500,0.260,58.333,94.444,325.000,811.111,19.444,L
299,0.340,0.740,0.350,41.667,66.667,288.889,886.111,75.000,L
300,0.120,0.315,0.055,38.889,61.111,283.333,886.111,0.000,L
301,0.045,0.145,0.170,41.667,58.333,255.556,866.667,19.444,L
302,-0.170,0.640,0.085,58.333,100.000,313.889,852.778,13.889,L
303,-0.260,0.660,0.065,58.333,97.222,305.556,841.667,11.111,L
304,-0.405,0.180,-0.070,58.333,94.444,305.556,813.889,27.778,L
305,-0.215,0.540,0.035,58.333,100.000,319.444,805.556,8.333,L
306,-0.225,0.510,0.075,58.333,100.000,319.444,886.111,80.556,L
307,-0.175,0.575,0.085,58.333,97.222,316.667,886.111,0.000,L
308,-0.245,0.570,0.080,58.333,94.444,286.111,863.889,22.222,L
309,0.015,0.315,0.010,41.667,63.889,286.111,850.000,13.889,L
310,-0.085,0.695,0.180,58.333,97.222,313.889,822.222,27.778,L
311,-0.110,0.805,0.225,58.333,97.222,308.333,838.889,16.667,L
312,-0.055,0.730,0.315,58.333,91.667,311.111,827.778,11.111,L
313,0.220,0.665,0.230,44.444,66.667,277.778,886.111,58.333,L
314,0.085,0.485,0.115,41.667,66.667,277.778,883.333,2.778,L
315,0.035,0.180,0.105,44.444,63.889,258.333,891.667,8.333,L
316,-0.150,0.555,0.170,58.333,94.444,313.889,852.778,38.889,L
317,0.095,0.475,0.105,36.111,55.556,261.111,852.778,0.000,L
318,0.135,0.290,0.080,41.667,66.667,261.111,822.222,30.556,L
319,-0.060,0.595,0.250,58.333,97.222,319.444,802.778,19.444,L
320,0.010,0.820,0.170,58.333,100.000,336.111,869.444,66.667,L
321,-0.085,0.750,0.150,58.333,97.222,319.444,916.667,47.222,L
322,-0.320,0.415,-0.040,58.333,91.667,280.556,888.889,27.778,L
323,0.120,0.360,0.135,41.667,61.111,272.222,844.444,44.444,L
324,-0.190,0.610,0.055,58.333,94.444,294.444,841.667,2.778,L
325,0.055,0.315,0.135,41.667,63.889,286.111,858.333,16.667,L
326,-0.075,0.615,0.205,58.333,94.444,319.444,836.111,22.222,L
327,-0.175,0.710,0.110,58.333,100.000,325.000,891.667,55.556,L
328,0.070,0.410,0.070,41.667,63.889,269.444,891.667,0.000,L
329,-0.215,0.020,-0.255,38.889,52.778,241.667,891.667,0.000,L
330,-0.035,0.155,-0.020,47.222,69.444,280.556,833.333,58.333,L
331,-0.165,0.815,0.035,58.333,102.778,313.889,863.889,30.556,L
332,-0.110,0.880,0.110,58.333,100.000,316.667,830.556,33.333,L
333,-0.175,0.770,0.175,58.333,97.222,319.444,813.889,16.667,L
334,0.150,0.455,0.205,44.444,69.444,297.222,888.889,75.000,L
335,0.050,0.300,0.110,44.444,55.556,280.556,900.000,11.111,L
336,-0.185,0.460,0.220,58.333,94.444,291.667,855.556,44.444,L
337,-0.070,0.905,0.200,58.333,100.000,313.889,827.778,27.778,L
338,-0.250,0.530,-0.065,58.333,97.222,305.556,841.667,13.889,L
339,-0.285,0.590,0.160,58.333,94.444,305.556,833.333,8.333,L
340,-0.035,0.940,0.300,58.333,97.222,319.444,819.444,13.889,L
341,0.165,0.530,0.325,44.444,66.667,294.444,894.444,75.000,L
342,0.335,0.740,0.315,44.444,66.667,291.667,886.111,8.333,L
343,-0.265,0.705,0.350,58.333,97.222,291.667,877.778,8.333,L
344,0.130,1.065,0.365,58.333,97.222,316.667,863.889,13.889,L
345,-0.110,0.730,0.245,58.333,97.222,308.333,888.889,25.000,L
346,-0.270,0.515,-0.040,58.333,97.222,305.556,852.778,36.111,L
347,-0.195,0.000,-0.065,44.444,61.111,286.111,825.000,27.778,L
348,0.125,0.520,0.055,44.444,72.222,286.111,883.333,58.333,L
349,-0.285,0.635,0.040,58.333,100.000,325.000,891.667,8.333,L
350,-0.030,1.045,0.350,58.333,97.222,294.444,880.556,11.111,L
351,-0.010,0.890,0.300,58.333,94.444,294.444,852.778,27.778,L
352,-0.195,0.570,0.090,188.889,94.444,302.778,838.889,13.889,L
353,-0.145,0.160,-0.035,41.667,58.333,263.889,819.444,19.444,L
354,-0.250,-0.135,-0.080,44.444,61.111,286.111,819.444,0.000,L
355,-0.370,0.405,-0.020,58.333,94.444,316.667,897.222,77.778,L
356,-0.105,0.370,0.045,38.889,63.889,277.778,894.444,2.778,L
357,-0.090,0.175,-0.045,41.667,58.333,250.000,872.222,22.222,L
358,-0.070,0.140,0.030,44.444,66.667,275.000,847.222,25.000,L
359,-0.105,0.760,0.255,58.333,97.222,308.333,847.222,0.000,L
360,-0.095,0.745,0.290,58.333,97.222,311.111,847.222,0.000,L
361,0.090,0.475,0.065,44.444,61.111,277.778,863.889,16.667,L
362,0.275,0.500,0.295,44.444,66.667,286.111,880.556,16.667,L
363,0.015,0.885,0.240,58.333,100.000,322.222,875.000,5.556,L
364,-0.005,1.025,0.530,58.333,91.667,305.556,905.556,30.556,L
365,0.395,1.355,0.755,58.333,100.000,308.333,877.778,27.778,L
366,0.520,0.850,0.280,36.111,55.556,255.556,866.667,11.111,L
367,-0.070,0.585,0.055,58.333,94.444,300.000,825.000,41.667,L
368,-0.335,0.565,-0.080,58.333,105.556,327.778,838.889,13.889,L
369,-0.335,0.370,-0.155,58.333,94.444,316.667,911.111,72.222,L
370,-0.060,0.300,-0.015,44.444,61.111,300.000,902.778,8.333,L
371,-0.410,0.295,0.095,55.556,86.111,311.111,850.000,52.778,L
372,-0.275,0.720,0.125,58.333,100.000,311.111,869.444,19.444,L
373,-0.080,0.685,0.285,58.333,91.667,294.444,847.222,22.222,L
374,0.200,0.535,0.110,44.444,58.333,263.889,852.778,5.556,L
375,0.255,0.405,0.400,41.667,61.111,286.111,811.111,41.667,L
376,0.060,0.880,0.295,58.333,97.222,313.889,886.111,75.000,L
377,0.015,0.710,0.310,58.333,97.222,316.667,883.333,2.778,L
378,-0.130,0.955,0.240,194.444,100.000,316.667,850.000,33.333,L
379,-0.205,0.830,0.165,58.333,100.000,313.889,869.444,19.444,L
380,-0.185,0.635,0.055,58.333,94.444,297.222,852.778,16.667,L
381,0.110,0.315,0.515,41.667,58.333,263.889,830.556,22.222,L
382,0.245,1.120,0.500,58.333,97.222,311.111,833.333,2.778,L
383,0.205,1.050,0.495,58.333,97.222,316.667,883.333,50.000,L
384,0.330,0.700,0.245,44.444,63.889,294.444,900.000,16.667,L
385,-0.230,0.455,0.200,197.222,94.444,325.000,855.556,44.444,L
386,-0.165,0.650,0.240,61.111,91.667,297.222,863.889,8.333,L
387,-0.180,0.590,0.170,58.333,94.444,300.000,844.444,19.444,L
388,0.135,0.770,0.455,58.333,94.444,297.222,819.444,25.000,L
389,0.220,1.045,0.390,58.333,100.000,333.333,813.889,5.556,L
390,0.115,0.910,0.365,58.333,100.000,319.444,902.778,88.889,L
391,0.215,0.465,0.220,38.889,58.333,280.556,883.333,19.444,L
392,-0.050,0.735,0.365,197.222,100.000,308.333,841.667,41.667,L
393,0.100,0.845,0.380,58.333,94.444,311.111,861.111,19.444,L
394,-0.080,0.680,0.265,58.333,97.222,302.778,858.333,2.778,L
395,0.115,0.470,0.100,38.889,61.111,255.556,850.000,8.333,L
396,0.240,0.375,0.230,44.444,61.111,275.000,811.111,38.889,L
397,0.060,0.815,0.350,58.333,100.000,319.444,869.444,58.333,L
398,0.080,0.920,0.380,58.333,97.222,319.444,891.667,22.222,L
399,0.000,0.995,0.310,186.111,97.222,322.222,844.444,47.222,L
400,-0.140,0.730,0.225,58.333,100.000,322.222,866.667,22.222,L
401,-0.240,0.475,0.035,194.444,91.667,297.222,841.667,25.000,L
402,-0.035,0.760,0.335,58.333,97.222,291.667,808.333,33.333,L
403,0.080,0.930,0.365,58.333,94.444,316.667,805.556,2.778,L
404,0.085,0.985,0.495,58.333,100.000,327.778,908.333,102.778,L
405,0.180,1.020,0.450,58.333,94.444,308.333,900.000,8.333,L
406,-0.075,0.745,0.380,194.444,91.667,300.000,861.111,38.889,L
407,0.165,0.805,0.465,58.333,94.444,311.111,836.111,25.000,L
408,0.175,1.045,0.445,58.333,94.444,291.667,858.333,22.222,L
409,0.110,1.035,0.425,58.333,94.444,308.333,841.667,16.667,L
410,0.115,0.915,0.385,58.333,97.222,325.000,836.111,5.556,L
411,0.000,0.730,0.225,58.333,97.222,311.111,900.000,63.889,L
412,0.130,0.395,0.180,38.889,63.889,272.222,888.889,11.111,L
413,-0.105,0.785,0.360,58.333,94.444,316.667,855.556,33.333,L
414,0.100,0.805,0.400,58.333,94.444,305.556,894.444,38.889,L
415,0.080,0.870,0.410,58.333,97.222,291.667,850.000,44.444,L
416,0.215,1.090,0.485,58.333,91.667,294.444,827.778,22.222,L
417,-0.005,0.760,0.205,58.333,97.222,319.444,825.000,2.778,L
418,0.085,0.400,0.200,41.667,61.111,275.000,908.333,83.333,L
419,0.235,0.645,0.260,38.889,63.889,288.889,894.444,13.889,L
420,0.015,0.725,0.310,58.333,100.000,311.111,872.222,22.222,L
421,-0.110,0.720,0.480,58.333,97.222,308.333,872.222,0.000,L
422,0.070,1.060,0.375,58.333,94.444,302.778,852.778,19.444,L
423,0.015,0.950,0.345,58.333,94.444,297.222,855.556,2.778,L
424,0.235,0.690,0.220,44.444,66.667,283.333,872.222,16.667,L
425,0.170,0.475,0.270,44.444,63.889,288.889,905.556,33.333,L
426,0.045,0.820,0.290,58.333,97.222,316.667,888.889,16.667,L
427,-0.130,0.675,0.160,58.333,100.000,325.000,858.333,30.556,L
428,-0.115,0.675,0.250,55.556,88.889,294.444,861.111,2.778,L
429,-0.070,0.830,0.330,58.333,94.444,302.778,847.222,13.889,L
430,-0.085,0.700,0.320,58.333,91.667,283.333,852.778,5.556,L
431,0.135,0.610,0.240,38.889,63.889,288.889,841.667,11.111,L
432,0.130,0.575,0.205,38.889,63.889,275.000,886.111,44.444,L
433,0.090,0.435,0.020,41.667,63.889,283.333,902.778,16.667,L
434,0.280,0.610,0.280,44.444,61.111,280.556,855.556,47.222,L
435,0.055,0.440,-0.005,38.889,63.889,255.556,858.333,2.778,L
436,-0.210,0.435,0.200,58.333,94.444,300.000,822.222,36.111,L
437,0.010,1.025,0.335,58.333,100.000,297.222,836.111,13.889,L
438,-0.015,0.815,0.235,58.333,100.000,327.778,852.778,16.667,L
439,-0.095,0.675,0.225,58.333,94.444,330.556,913.889,61.111,L
440,0.170,0.630,0.290,41.667,55.556,280.556,919.444,5.556,L
441,0.135,0.565,0.250,41.667,61.111,266.667,861.111,58.333,L
442,0.100,0.530,0.220,38.889,55.556,275.000,869.444,8.333,L
443,-0.225,0.495,0.105,58.333,97.222,311.111,858.333,11.111,L
444,0.095,1.035,0.370,58.333,94.444,297.222,825.000,33.333,L
445,0.000,0.980,0.330,58.333,97.222,322.222,841.667,16.667,L
446,-0.070,0.865,0.275,58.333,100.000,313.889,880.556,38.889,L
447,-0.050,0.825,0.275,58.333,97.222,311.111,900.000,19.444,L
448,-0.105,0.715,0.185,58.333,97.222,319.444,841.667,58.333,L
449,-0.200,0.665,0.180,58.333,97.222,305.556,863.889,22.222,L
450,-0.195,0.640,0.230,197.222,88.889,311.111,827.778,36.111,L
451,-0.225,0.640,0.175,197.222,94.444,288.889,822.222,5.556,L
452,0.105,0.565,0.225,38.889,63.889,288.889,850.000,27.778,L
453,0.140,0.580,0.170,41.667,63.889,288.889,900.000,50.000,L
454,0.285,0.600,0.210,44.444,69.444,291.667,863.889,36.111,L
455,-0.105,0.835,0.175,58.333,97.222,305.556,836.111,27.778,L
456,-0.185,0.685,0.120,58.333,94.444,302.778,855.556,19.444,L
457,-0.270,0.655,0.115,58.333,91.667,297.222,838.889,16.667,L
458,-0.365,0.445,0.020,58.333,94.444,286.111,844.444,5.556,L
459,0.195,0.490,0.200,38.889,66.667,288.889,847.222,2.778,L
460,0.095,0.950,0.290,58.333,94.444,319.444,902.778,55.556,L
461,-0.035,0.940,0.260,58.333,100.000,313.889,891.667,11.111,L
462,-0.140,0.715,0.165,58.333,94.444,316.667,863.889,27.778,L
463,-0.130,0.690,0.375,58.333,102.778,311.111,886.111,22.222,L
464,0.040,1.085,0.310,58.333,100.000,311.111,847.222,38.889,L
465,-0.065,1.020,0.310,183.333,94.444,297.222,838.889,8.333,L
466,0.030,0.845,0.290,58.333,94.444,319.444,875.000,36.111,L
467,-0.100,0.715,0.175,58.333,100.000,316.667,902.778,27.778,L
468,0.100,0.465,0.235,44.444,61.111,280.556,922.222,19.444,L
469,-0.145,0.520,0.280,58.333,97.222,302.778,872.222,50.000,L
470,0.295,0.955,0.545,58.333,97.222,300.000,841.667,30.556,L
471,0.010,0.920,0.235,197.222,100.000,311.111,822.222,19.444,L
472,-0.245,0.515,-0.020,197.222,94.444,322.222,836.111,13.889,L
473,-0.100,0.110,-0.020,44.444,66.667,294.444,894.444,58.333,L
474,0.065,0.290,0.245,41.667,66.667,283.333,908.333,13.889,L
475,0.230,0.700,0.210,41.667,66.667,275.000,880.556,27.778,L
476,0.035,0.835,0.600,58.333,97.222,302.778,852.778,27.778,L
477,0.565,0.865,0.435,41.667,66.667,275.000,861.111,8.333,L
478,0.035,0.580,0.170,58.333,94.444,305.556,838.889,22.222,L
479,-0.210,1.070,-0.035,197.222,102.778,325.000,811.111,27.778,L
480,-0.275,0.910,-0.130,58.333,105.556,322.222,894.444,83.333,L
481,-0.420,0.750,-0.165,58.333,100.000,322.222,891.667,2.778,L
482,-0.370,0.530,-0.120,58.333,100.000,316.667,925.000,33.333,L
483,-0.485,0.280,-0.115,58.333,94.444,308.333,863.889,61.111,L
484,0.025,0.360,0.195,41.667,63.889,272.222,847.222,16.667,L
485,-0.020,0.980,0.235,58.333,94.444,316.667,855.556,8.333,L
486,0.000,0.995,0.290,58.333,94.444,319.444,844.444,11.111,L
487,0.355,0.715,0.275,41.667,66.667,291.667,902.778,58.333,L
488,0.170,1.075,0.375,58.333,94.444,319.444,919.444,16.667,L
489,0.195,1.230,0.420,58.333,100.000,294.444,888.889,30.556,L
490,0.105,1.215,0.395,58.333,100.000,319.444,855.556,33.333,L
491,0.065,1.150,0.355,58.333,97.222,319.444,869.444,13.889,L
492,-0.075,1.045,0.320,58.333,100.000,308.333,863.889,5.556,L
493,-0.080,0.805,0.140,58.333,100.000,316.667,844.444,19.444,L
494,0.060,0.925,0.245,58.333,105.556,330.556,880.556,36.111,L
495,-0.060,0.945,0.215,58.333,97.222,333.333,897.222,16.667,L
496,-0.120,1.075,0.270,58.333,91.667,294.444,891.667,5.556,L
497,-0.125,0.715,0.160,58.333,97.222,313.889,877.778,13.889,L
498,-0.010,0.835,0.235,58.333,94.444,297.222,850.000,27.778,L
499,-0.215,0.775,0.090,58.333,97.222,305.556,841.667,8.333,L
500,-0.200,0.695,0.050,58.333,97.222,325.000,833.333,8.333,L
501,-0.100,0.655,0.090,58.333,100.000,325.000,900.000,66.667,L
502,-0.040,0.880,0.225,58.333,100.000,325.000,897.222,2.778,L
503,-0.125,1.065,0.240,180.556,86.111,308.333,869.444,27.778,L
504,-0.035,0.820,0.230,58.333,97.222,311.111,850.000,19.444,L
505,-0.130,1.000,0.240,58.333,97.222,305.556,838.889,11.111,L
506,-0.160,0.860,0.295,58.333,94.444,305.556,850.000,11.111,L
507,0.010,0.790,0.305,58.333,100.000,327.778,855.556,5.556,L
508,-0.025,0.945,0.375,58.333,97.222,313.889,916.667,61.111,L
509,0.330,1.355,0.470,58.333,102.778,316.667,900.000,16.667,L
510,-0.025,0.845,0.155,58.333,100.000,316.667,866.667,33.333,L
511,-0.240,0.665,0.025,58.333,97.222,308.333,908.333,41.667,L
512,-0.310,0.675,0.030,58.333,94.444,300.000,872.222,36.111,L
513,-0.260,0.850,0.000,197.222,94.444,280.556,841.667,30.556,L
514,-0.265,0.765,-0.015,58.333,97.222,322.222,852.778,11.111,L
515,-0.220,0.710,0.085,58.333,97.222,319.444,916.667,63.889,L
516,-0.110,0.795,0.210,58.333,100.000,327.778,897.222,19.444,L
517,0.000,0.910,0.320,58.333,102.778,330.556,863.889,33.333,L
518,0.000,0.865,0.230,58.333,94.444,311.111,866.667,2.778,L
519,-0.075,0.710,0.255,58.333,91.667,297.222,819.444,47.222,L
520,-0.170,0.815,0.120,191.667,94.444,300.000,827.778,8.333,L
521,0.140,1.140,0.325,58.333,102.778,336.111,844.444,16.667,L
522,0.080,0.995,0.270,58.333,94.444,327.778,891.667,47.222,L
523,-0.100,0.815,0.155,58.333,94.444,313.889,900.000,8.333,L
524,-0.225,0.715,0.115,58.333,100.000,311.111,852.778,47.222,L
525,-0.220,0.770,0.070,58.333,94.444,300.000,877.778,25.000,L
526,-0.255,0.560,0.150,58.333,94.444,305.556,850.000,27.778,L
527,-0.005,0.985,0.365,58.333,94.444,300.000,850.000,0.000,L
528,-0.045,0.855,0.250,58.333,94.444,316.667,855.556,5.556,L
529,0.175,0.580,0.225,41.667,66.667,288.889,908.333,52.778,L
530,0.260,0.680,0.130,41.667,66.667,291.667,883.333,25.000,L
531,0.155,0.900,0.360,58.333,97.222,319.444,855.556,27.778,L
532,0.025,1.210,0.310,58.333,100.000,308.333,861.111,5.556,L
533,-0.090,1.090,0.270,197.222,97.222,308.333,844.444,16.667,L
534,-0.035,0.995,0.305,58.333,91.667,300.000,844.444,0.000,L
535,-0.120,0.680,0.170,58.333,97.222,313.889,869.444,25.000,L
536,0.290,0.530,0.325,41.667,61.111,283.333,897.222,27.778,L
537,0.010,0.880,0.200,58.333,97.222,322.222,916.667,19.444,L
538,-0.220,0.840,0.015,58.333,100.000,311.111,858.333,58.333,L
539,-0.225,0.570,0.015,58.333,94.444,316.667,858.333,0.000,L
540,-0.295,0.760,0.025,58.333,97.222,316.667,838.889,19.444,L
541,-0.365,0.805,0.045,58.333,94.444,305.556,858.333,19.444,L
542,-0.285,0.570,-0.090,58.333,100.000,330.556,877.778,19.444,L
543,-0.220,0.425,0.135,58.333,100.000,330.556,863.889,13.889,L
544,-0.165,1.020,0.025,58.333,100.000,313.889,888.889,25.000,L
545,-0.205,0.980,0.075,58.333,102.778,313.889,861.111,27.778,L
546,-0.245,0.970,0.060,58.333,97.222,302.778,861.111,0.000,L
547,-0.275,0.875,0.085,58.333,97.222,319.444,850.000,11.111,L
548,-0.310,0.715,0.040,194.444,88.889,311.111,822.222,27.778,L
549,-0.295,0.475,0.010,58.333,100.000,325.000,872.222,50.000,L
550,-0.040,0.715,-0.010,58.333,100.000,325.000,883.333,11.111,L
551,-0.195,0.815,0.005,58.333,97.222,316.667,908.333,25.000,L
552,-0.205,0.715,0.175,58.333,100.000,313.889,838.889,69.444,L
553,-0.010,1.190,0.325,58.333,100.000,311.111,836.111,2.778,L
554,-0.060,1.015,0.190,58.333,94.444,316.667,825.000,11.111,L
555,-0.375,0.735,0.095,186.111,97.222,305.556,811.111,13.889,L
556,-0.185,0.860,0.025,58.333,94.444,319.444,872.222,61.111,L
557,-0.170,0.705,0.035,58.333,94.444,316.667,902.778,30.556,L
558,-0.165,0.865,0.135,58.333,100.000,313.889,880.556,22.222,L
559,-0.165,0.825,0.120,58.333,94.444,294.444,836.111,44.444,L
560,-0.240,0.560,0.195,58.333,94.444,319.444,861.111,25.000,L
561,-0.100,1.005,0.245,58.333,97.222,308.333,847.222,13.889,L
562,-0.230,0.725,0.095,197.222,91.667,311.111,827.778,19.444,L
563,0.020,1.090,0.270,58.333,102.778,327.778,852.778,25.000,L
564,0.050,1.055,0.245,58.333,100.000,325.000,888.889,36.111,L
565,-0.090,0.960,0.195,58.333,97.222,313.889,891.667,2.778,L
566,-0.185,0.990,0.115,58.333,100.000,325.000,855.556,36.111,L
567,-0.360,0.710,-0.145,58.333,94.444,302.778,877.778,22.222,L
568,-0.335,0.610,-0.040,58.333,94.444,305.556,825.000,52.778,L
569,-0.420,0.760,-0.030,194.444,94.444,319.444,788.889,36.111,L
570,-0.245,0.760,0.085,58.333,100.000,327.778,888.889,100.000,L
571,-0.195,0.630,0.080,58.333,100.000,316.667,897.222,8.333,L
572,-0.040,0.660,0.230,58.333,100.000,302.778,861.111,36.111,L
573,0.130,0.855,0.345,58.333,97.222,316.667,816.667,44.444,L
574,0.090,1.025,0.315,58.333,100.000,311.111,841.667,25.000,L
575,0.010,1.015,0.275,58.333,100.000,311.111,819.444,22.222,L
576,-0.140,0.870,0.190,58.333,91.667,316.667,825.000,5.556,L
577,0.185,1.070,0.405,58.333,97.222,319.444,847.222,22.222,L
578,0.145,1.330,0.340,58.333,100.000,316.667,869.444,22.222,L
579,0.045,1.145,0.305,58.333,97.222,322.222,880.556,11.111,L
580,-0.070,0.905,0.225,58.333,97.222,322.222,863.889,16.667,L
581,-0.225,0.755,0.110,197.222,97.222,305.556,866.667,2.778,L
582,-0.230,0.710,0.175,58.333,94.444,297.222,827.778,38.889,L
583,-0.070,1.070,0.300,58.333,88.889,294.444,819.444,8.333,L
584,0.035,1.150,0.240,58.333,100.000,313.889,866.667,47.222,L
585,-0.070,0.940,0.250,58.333,100.000,327.778,900.000,33.333,L
586,-0.060,0.865,0.270,58.333,97.222,319.444,908.333,8.333,L
587,0.180,0.700,0.130,41.667,66.667,275.000,866.667,41.667,L
588,-0.620,0.135,-0.520,197.222,100.000,308.333,844.444,22.222,L
589,-0.120,0.955,0.175,58.333,97.222,319.444,838.889,5.556,L
590,-0.210,0.755,0.210,58.333,88.889,308.333,861.111,22.222,L
591,0.075,0.465,0.100,41.667,66.667,294.444,883.333,22.222,L
592,-0.030,0.480,0.150,41.667,63.889,288.889,886.111,2.778,L
593,0.275,0.785,0.460,41.667,63.889,283.333,891.667,5.556,L
594,0.470,0.875,0.620,41.667,58.333,263.889,850.000,41.667,L
595,0.360,0.790,0.190,41.667,61.111,272.222,858.333,8.333,L
596,-0.355,0.620,-0.385,197.222,100.000,305.556,850.000,8.333,L
597,-0.460,0.450,0.065,58.333,88.889,311.111,811.111,38.889,L
598,0.345,-1.525,0.245,33.333,0.000,241.667,711.111,100.000,V
599,-0.205,0.620,0.040,58.333,97.222,341.667,1025.000,313.889,L
600,-0.205,0.595,0.070,58.333,100.000,311.111,900.000,125.000,L
601,0.285,0.620,0.460,41.667,55.556,280.556,827.778,72.222,L
602,0.565,0.715,0.660,44.444,63.889,275.000,811.111,16.667,L
603,0.520,1.360,0.765,58.333,97.222,311.111,794.444,16.667,L
604,0.295,1.180,0.480,197.222,94.444,294.444,800.000,5.556,L
605,0.190,1.100,0.445,58.333,97.222,322.222,822.222,22.222,L
606,0.165,1.000,0.370,58.333,100.000,313.889,877.778,55.556,L
607,0.110,0.910,0.265,58.333,100.000,327.778,850.000,27.778,L
608,-0.035,0.825,0.200,58.333,97.222,313.889,813.889,36.111,L
609,0.280,0.415,0.250,44.444,61.111,283.333,850.000,36.111,L
610,0.065,0.940,0.365,58.333,94.444,300.000,830.556,19.444,L
611,0.365,0.650,0.230,41.667,61.111,258.333,833.333,2.778,L
612,0.480,0.590,0.325,44.444,63.889,286.111,800.000,33.333,L
613,0.365,0.910,0.315,44.444,63.889,291.667,930.556,130.556,L
614,0.275,0.815,0.265,47.222,66.667,291.667,894.444,36.111,L
615,0.240,0.640,0.125,41.667,66.667,286.111,858.333,36.111,L
616,-0.050,0.410,0.255,58.333,100.000,300.000,872.222,13.889,L
617,-0.040,0.770,0.270,58.333,94.444,308.333,875.000,2.778,L
618,0.155,0.595,0.110,38.889,55.556,258.333,847.222,27.778,L
619,0.240,0.310,0.135,47.222,63.889,294.444,863.889,16.667,L
620,0.010,0.785,0.215,58.333,94.444,316.667,927.778,63.889,L
621,0.130,0.705,0.145,44.444,63.889,286.111,913.889,13.889,L
622,0.085,0.530,0.125,44.444,61.111,277.778,844.444,69.444,L
623,0.190,0.190,0.100,44.444,63.889,275.000,855.556,11.111,L
624,-0.050,0.655,0.225,58.333,97.222,319.444,833.333,22.222,L
625,0.060,0.530,0.165,41.667,52.778,275.000,861.111,27.778,L
626,0.035,0.270,0.000,47.222,66.667,291.667,886.111,25.000,L
627,0.185,0.280,0.085,41.667,66.667,286.111,886.111,0.000,L
628,-0.025,0.455,0.005,50.000,61.111,277.778,927.778,41.667,L
629,-0.100,0.285,-0.015,44.444,61.111,283.333,880.556,47.222,L
630,-0.345,0.470,-0.060,58.333,97.222,319.444,875.000,5.556,L
631,-0.225,0.685,0.205,58.333,94.444,305.556,852.778,22.222,L
632,-0.135,0.845,0.155,58.333,100.000,316.667,822.222,30.556,L
633,-0.150,0.420,0.210,58.333,94.444,316.667,897.222,75.000,L
634,-0.035,0.175,0.350,47.222,55.556,269.444,902.778,5.556,L
635,-0.020,-0.840,0.400,25.000,2.778,244.444,863.889,38.889,L
636,0.010,-0.820,0.330,25.000,0.000,255.556,836.111,27.778,L
637,-0.015,0.205,-0.145,41.667,55.556,263.889,863.889,27.778,L
638,-0.265,-0.180,-0.105,41.667,58.333,266.667,816.667,47.222,L
639,-0.060,0.195,0.150,44.444,66.667,291.667,808.333,8.333,L
640,-0.055,0.690,0.185,58.333,100.000,327.778,866.667,58.333,L
641,-0.145,0.595,0.015,58.333,97.222,313.889,861.111,5.556,L
642,0.105,0.205,0.325,44.444,63.889,283.333,850.000,11.111,L
643,-0.005,0.985,0.195,58.333,97.222,308.333,825.000,25.000,L
644,-0.115,0.565,0.125,58.333,94.444,305.556,838.889,13.889,L
645,-0.410,0.310,-0.075,58.333,97.222,319.444,813.889,25.000,L
646,-0.480,0.265,-0.140,194.444,91.667,297.222,808.333,5.556,L
647,-0.030,0.240,0.065,41.667,61.111,272.222,844.444,36.111,L
648,-0.220,0.445,0.030,58.333,97.222,325.000,858.333,13.889,L
649,-0.140,0.375,-0.095,58.333,102.778,316.667,861.111,2.778,L
650,-0.375,-0.110,-0.365,44.444,66.667,277.778,822.222,38.889,L
651,-0.495,0.385,0.030,58.333,97.222,297.222,830.556,8.333,L
652,-0.030,0.940,0.470,58.333,94.444,300.000,797.222,33.333,L
653,0.220,1.115,0.670,58.333,94.444,286.111,819.444,22.222,L
654,0.225,0.915,0.415,58.333,94.444,322.222,811.111,8.333,L
655,0.430,0.530,0.440,44.444,63.889,297.222,875.000,63.889,L
656,0.125,0.805,0.440,58.333,102.778,297.222,866.667,8.333,L
657,0.130,0.865,0.430,58.333,100.000,308.333,819.444,47.222,L
658,0.115,0.865,0.445,58.333,94.444,302.778,841.667,22.222,L
659,0.015,0.650,0.365,58.333,97.222,305.556,830.556,11.111,L
660,0.080,0.820,0.350,58.333,94.444,283.333,822.222,8.333,L
661,0.210,0.755,0.470,58.333,97.222,316.667,797.222,25.000,L
662,0.105,0.735,0.475,58.333,105.556,316.667,850.000,52.778,L
663,0.325,1.155,0.515,58.333,102.778,316.667,869.444,19.444,L
664,0.140,1.120,0.425,180.556,91.667,300.000,838.889,30.556,L
665,0.010,0.840,0.415,58.333,100.000,311.111,852.778,13.889,L
666,0.005,0.730,0.400,58.333,91.667,291.667,852.778,0.000,L
667,0.015,0.740,0.335,58.333,91.667,300.000,825.000,27.778,L
668,0.250,0.580,0.280,41.667,61.111,291.667,802.778,22.222,L
669,0.300,0.450,0.225,47.222,66.667,280.556,866.667,63.889,L
670,0.295,0.910,0.490,58.333,97.222,319.444,872.222,5.556,L
671,0.080,0.925,0.335,58.333,97.222,291.667,852.778,19.444,L
672,-0.030,0.850,0.275,58.333,97.222,311.111,825.000,27.778,L
673,-0.060,0.815,0.280,58.333,94.444,302.778,827.778,2.778,L
674,-0.175,0.575,0.045,197.222,91.667,294.444,825.000,2.778,L
675,-0.385,-0.300,-0.455,41.667,61.111,275.000,819.444,5.556,L
676,-0.190,0.095,-0.090,44.444,66.667,291.667,869.444,50.000,L
677,-0.215,0.565,0.160,58.333,100.000,316.667,855.556,13.889,L
678,-0.260,0.440,0.230,58.333,94.444,288.889,863.889,8.333,L
679,0.185,1.105,0.405,58.333,100.000,325.000,827.778,36.111,L
680,0.060,1.005,0.335,58.333,97.222,302.778,838.889,11.111,L
681,-0.020,0.935,0.250,58.333,97.222,302.778,816.667,22.222,L
682,-0.085,0.635,0.290,197.222,97.222,313.889,794.444,22.222,L
683,-0.120,0.575,0.220,58.333,97.222,325.000,869.444,75.000,L
684,0.085,0.270,0.075,41.667,63.889,275.000,883.333,13.889,L
685,0.325,0.345,0.405,44.444,61.111,275.000,866.667,16.667,L
686,0.095,0.985,0.295,58.333,105.556,319.444,825.000,41.667,L
687,-0.130,0.795,0.050,58.333,100.000,300.000,836.111,11.111,L
688,-0.480,0.000,-0.160,58.333,94.444,300.000,811.111,25.000,L
689,-0.460,0.440,-0.120,183.333,94.444,308.333,794.444,16.667,L
690,-0.300,0.590,-0.105,58.333,102.778,327.778,863.889,69.444,L
691,-0.295,0.455,-0.050,58.333,100.000,333.333,877.778,13.889,L
692,-0.505,0.145,-0.090,58.333,100.000,311.111,872.222,5.556,L
693,-0.230,0.680,0.040,58.333,100.000,311.111,819.444,52.778,L
694,-0.310,0.725,0.045,58.333,97.222,308.333,836.111,16.667,L
695,-0.420,0.490,-0.105,197.222,100.000,308.333,830.556,5.556,L
696,-0.150,-0.190,-0.095,44.444,55.556,261.111,830.556,0.000,L
697,0.235,0.400,0.135,44.444,69.444,286.111,813.889,16.667,L
698,-0.200,0.765,0.000,58.333,100.000,322.222,858.333,44.444,L
699,-0.235,0.615,-0.005,58.333,100.000,325.000,863.889,5.556,L
700,-0.155,0.640,0.015,58.333,100.000,313.889,844.444,19.444,L
701,-0.235,0.550,0.035,58.333,94.444,313.889,833.333,11.111,L
702,-0.365,0.300,-0.005,197.222,91.667,297.222,805.556,27.778,L
703,0.105,-0.635,0.195,33.333,2.778,200.000,836.111,30.556,L
704,-0.140,0.585,0.105,58.333,97.222,308.333,772.222,63.889,L
705,0.065,0.405,0.100,41.667,63.889,277.778,861.111,88.889,L
706,-0.185,0.405,0.135,58.333,94.444,330.556,861.111,0.000,L
707,-0.260,0.420,0.125,197.222,86.111,308.333,819.444,41.667,L
708,-0.245,0.415,0.110,58.333,94.444,305.556,838.889,19.444,L
709,0.085,0.160,0.085,41.667,58.333,263.889,808.333,30.556,L
710,0.200,0.450,0.225,38.889,63.889,275.000,791.667,16.667,L
711,-0.100,0.685,0.345,58.333,97.222,319.444,786.111,5.556,L
712,-0.060,0.880,0.240,58.333,97.222,302.778,850.000,63.889,L
713,0.170,0.330,0.135,41.667,61.111,277.778,858.333,8.333,L
714,-0.125,0.805,0.095,58.333,94.444,288.889,838.889,19.444,L
715,-0.285,0.550,-0.035,58.333,97.222,316.667,808.333,30.556,L
716,-0.395,0.345,-0.010,58.333,97.222,311.111,838.889,30.556,L
717,-0.365,0.330,0.030,58.333,97.222,308.333,819.444,19.444,L
718,-0.330,0.450,0.075,197.222,94.444,308.333,800.000,19.444,L
719,-0.200,0.535,0.065,58.333,100.000,325.000,850.000,50.000,L
720,0.015,0.250,-0.005,38.889,69.444,294.444,880.556,30.556,L
721,0.120,0.345,0.155,41.667,66.667,272.222,858.333,22.222,L
722,-0.005,0.820,0.305,58.333,97.222,305.556,813.889,44.444,L
723,-0.125,0.765,0.200,58.333,94.444,305.556,816.667,2.778,L
724,-0.160,0.615,0.215,58.333,88.889,294.444,827.778,11.111,L
725,-0.195,0.575,0.235,197.222,91.667,297.222,800.000,27.778,L
726,0.065,0.460,0.175,41.667,66.667,294.444,852.778,52.778,L
727,0.025,0.450,0.180,38.889,61.111,275.000,886.111,33.333,L
728,0.015,0.365,0.045,36.111,61.111,261.111,877.778,8.333,L
729,-0.050,0.120,0.150,41.667,58.333,280.556,833.333,44.444,L
730,-0.145,0.605,0.225,58.333,94.444,313.889,863.889,30.556,L
731,-0.130,0.635,0.280,58.333,97.222,308.333,841.667,22.222,L
732,-0.125,0.655,0.290,58.333,91.667,288.889,838.889,2.778,L
733,0.090,0.410,0.105,41.667,63.889,283.333,875.000,36.111,L
734,-0.050,0.570,0.110,58.333,94.444,302.778,891.667,16.667,L
735,0.070,0.305,0.425,44.444,61.111,283.333,888.889,2.778,L
736,0.170,0.965,0.355,58.333,100.000,313.889,850.000,38.889,L
737,0.075,0.855,0.375,58.333,94.444,311.111,883.333,33.333,L
738,0.190,0.450,0.205,36.111,52.778,255.556,838.889,44.444,L
739,0.430,-0.445,0.405,30.556,0.000,225.000,858.333,19.444,L
740,0.285,0.680,0.350,41.667,63.889,294.444,875.000,16.667,L
741,0.200,0.455,0.255,41.667,63.889,288.889,922.222,47.222,L
742,0.160,0.975,0.355,58.333,102.778,313.889,872.222,50.000,L
743,0.030,0.855,0.340,58.333,97.222,322.222,844.444,27.778,L
744,-0.055,0.880,0.275,58.333,97.222,305.556,866.667,22.222,L
745,-0.115,0.625,0.205,58.333,94.444,313.889,855.556,11.111,L
746,0.120,-0.610,0.360,36.111,2.778,211.111,863.889,8.333,L
747,0.020,0.815,0.290,58.333,97.222,319.444,852.778,11.111,L
748,-0.120,0.640,0.275,58.333,94.444,316.667,886.111,33.333,L
749,0.095,0.030,0.080,44.444,61.111,280.556,900.000,13.889,L
750,0.055,0.605,0.335,58.333,94.444,313.889,830.556,69.444,L
751,-0.090,0.610,0.125,58.333,97.222,297.222,858.333,27.778,L
752,0.290,0.540,0.495,41.667,63.889,275.000,816.667,41.667,L
753,-0.015,0.940,0.265,188.889,100.000,322.222,819.444,2.778,L
754,0.165,0.585,0.360,41.667,63.889,294.444,894.444,75.000,L
755,0.245,0.695,0.390,41.667,61.111,280.556,916.667,22.222,L
756,0.070,0.285,0.310,41.667,55.556,258.333,900.000,16.667,L
757,0.070,-0.705,0.200,36.111,0.000,213.889,891.667,8.333,L
758,-0.005,-0.595,0.265,66.667,19.444,225.000,611.111,280.556,L
759,-0.045,0.365,0.205,41.667,55.556,275.000,980.556,369.444,L
760,-0.035,0.280,0.205,44.444,55.556,277.778,850.000,130.556,L
761,0.035,0.340,0.310,38.889,61.111,286.111,911.111,61.111,L
762,0.100,0.380,0.280,38.889,61.111,272.222,897.222,13.889,L
763,0.060,-0.625,0.195,36.111,2.778,183.333,916.667,19.444,L
764,0.145,0.420,0.265,47.222,63.889,275.000,813.889,102.778,L
765,0.190,0.570,0.305,38.889,58.333,272.222,866.667,52.778,L
766,0.185,0.535,0.300,38.889,58.333,272.222,836.111,30.556,L
767,0.135,0.480,0.280,41.667,55.556,275.000,827.778,8.333,L
768,0.170,0.295,0.360,44.444,66.667,277.778,900.000,72.222,L
769,0.315,0.725,0.315,41.667,66.667,288.889,908.333,8.333,L
770,-0.110,0.675,0.305,58.333,97.222,305.556,897.222,11.111,L
771,0.170,0.545,0.255,38.889,58.333,272.222,866.667,30.556,L
772,0.265,0.420,0.335,41.667,58.333,261.111,861.111,5.556,L
773,0.010,0.770,0.335,58.333,94.444,302.778,827.778,33.333,L
774,-0.105,0.625,0.210,58.333,91.667,313.889,838.889,11.111,L
775,0.100,0.485,0.205,41.667,63.889,286.111,925.000,86.111,L
776,0.115,0.460,0.175,41.667,58.333,280.556,891.667,33.333,L
777,0.025,0.365,0.145,36.111,47.222,263.889,877.778,13.889,L
778,0.035,0.295,0.160,41.667,52.778,277.778,872.222,5.556,L
779,0.085,0.175,0.165,41.667,61.111,261.111,869.444,2.778,L
780,-0.135,0.535,0.170,58.333,94.444,300.000,827.778,41.667,L
781,0.075,0.265,0.075,44.444,61.111,283.333,816.667,11.111,L
782,0.035,0.645,0.170,58.333,97.222,322.222,880.556,63.889,L
783,-0.100,0.840,0.165,58.333,102.778,330.556,872.222,8.333,L
784,-0.230,0.825,-0.015,183.333,88.889,308.333,888.889,16.667,L
785,-0.015,0.075,0.020,41.667,58.333,263.889,877.778,11.111,L
786,-0.160,0.740,0.115,58.333,100.000,311.111,836.111,41.667,L
787,-0.190,0.755,0.085,58.333,97.222,302.778,841.667,5.556,L
788,-0.200,0.555,0.055,58.333,97.222,330.556,841.667,0.000,L
789,-0.140,0.015,-0.095,44.444,55.556,277.778,916.667,75.000,L
790,-0.050,-0.045,0.115,47.222,61.111,294.444,888.889,27.778,L
791,-0.320,0.410,0.080,186.111,97.222,322.222,852.778,36.111,L
792,-0.130,0.410,0.125,58.333,94.444,313.889,886.111,33.333,L
793,-0.195,0.355,0.135,58.333,88.889,300.000,852.778,33.333,L
794,-0.175,0.445,0.130,58.333,97.222,302.778,844.444,8.333,L
795,-0.215,0.560,0.145,58.333,94.444,311.111,847.222,2.778,L
796,-0.205,0.435,0.045,58.333,91.667,308.333,897.222,50.000,L
797,0.025,0.635,0.310,58.333,94.444,316.667,877.778,19.444,L
798,0.025,0.830,0.240,58.333,102.778,330.556,852.778,25.000,L
799,-0.080,0.830,0.235,58.333,94.444,311.111,902.778,50.000,L
800,-0.230,0.575,0.060,197.222,94.444,294.444,852.778,50.000,L
801,0.200,0.380,0.305,44.444,58.333,255.556,819.444,33.333,L
802,0.015,0.830,0.270,58.333,100.000,325.000,836.111,16.667,L
803,-0.045,0.725,0.190,58.333,100.000,322.222,900.000,63.889,L
804,0.175,0.485,0.250,41.667,63.889,294.444,916.667,16.667,L
805,0.165,0.480,0.240,41.667,58.333,277.778,877.778,38.889,L
806,-0.190,0.470,0.245,58.333,88.889,308.333,869.444,8.333,L
807,0.280,-0.570,0.175,33.333,5.556,213.889,869.444,0.000,L
808,0.345,0.595,0.445,41.667,58.333,269.444,797.222,72.222,L
809,0.050,0.960,0.315,58.333,102.778,333.333,844.444,47.222,L
810,-0.050,0.720,0.255,58.333,94.444,311.111,905.556,61.111,L
811,0.200,0.580,0.305,38.889,66.667,288.889,869.444,36.111,L
812,0.205,0.510,0.325,41.667,58.333,283.333,858.333,11.111,L
813,-0.045,0.640,0.315,58.333,94.444,319.444,863.889,5.556,L
814,-0.075,0.645,0.280,58.333,91.667,297.222,838.889,25.000,L
815,-0.225,0.410,0.190,197.222,91.667,277.778,836.111,2.778,L
816,0.260,0.265,0.325,44.444,63.889,269.444,827.778,8.333,L
817,0.205,0.880,0.415,58.333,102.778,325.000,858.333,30.556,L
818,0.120,0.965,0.300,58.333,102.778,338.889,886.111,27.778,L
819,-0.085,0.835,0.240,58.333,100.000,319.444,869.444,16.667,L
820,0.105,0.145,0.335,41.667,63.889,258.333,880.556,11.111,L
821,-0.105,0.750,0.280,58.333,100.000,305.556,833.333,47.222,L
822,-0.180,0.720,0.060,197.222,97.222,291.667,850.000,16.667,L
823,-0.285,0.585,0.085,58.333,100.000,325.000,850.000,0.000,L
824,0.155,0.195,0.255,44.444,63.889,294.444,930.556,80.556,L
825,0.235,0.720,0.445,58.333,102.778,327.778,866.667,63.889,L
826,0.110,1.095,0.390,58.333,97.222,319.444,841.667,25.000,L
827,0.230,0.255,0.320,41.667,61.111,272.222,866.667,25.000,L
828,0.095,0.955,0.345,58.333,97.222,313.889,855.556,11.111,L
829,-0.120,0.985,0.250,58.333,100.000,294.444,836.111,19.444,L
830,-0.060,0.950,0.265,58.333,97.222,316.667,847.222,11.111,L
831,-0.050,0.925,0.275,58.333,100.000,325.000,888.889,41.667,L
832,-0.190,0.650,0.130,58.333,97.222,319.444,891.667,2.778,L
833,0.075,-0.760,0.230,36.111,2.778,213.889,900.000,8.333,L
834,0.200,-0.685,0.260,33.333,0.000,222.222,866.667,33.333,L
835,0.325,-0.675,0.230,33.333,0.000,219.444,827.778,38.889,L
836,0.035,-0.660,0.135,72.222,2.778,186.111,813.889,13.889,L
837,0.165,0.290,0.215,44.444,63.889,280.556,783.333,30.556,L
838,-0.045,0.680,0.270,58.333,100.000,325.000,902.778,119.444,L
839,-0.045,0.765,0.245,58.333,100.000,316.667,880.556,22.222,L
840,-0.110,0.695,0.280,58.333,94.444,311.111,838.889,41.667,L
841,-0.135,0.610,0.265,58.333,94.444,305.556,852.778,13.889,L
842,-0.200,0.505,0.065,197.222,88.889,294.444,844.444,8.333,L
843,-0.065,0.050,0.050,38.889,58.333,250.000,841.667,2.778,L
844,0.025,0.735,0.195,58.333,100.000,311.111,875.000,33.333,L
845,0.230,0.535,0.425,41.667,58.333,294.444,897.222,22.222,L
846,0.020,0.880,0.220,58.333,100.000,322.222,894.444,2.778,L
847,-0.135,0.545,0.175,58.333,97.222,308.333,894.444,0.000,L
848,-0.135,0.725,0.185,58.333,100.000,308.333,886.111,8.333,L
849,-0.140,0.720,0.190,58.333,97.222,300.000,858.333,27.778,L
850,-0.215,0.690,0.170,58.333,91.667,302.778,847.222,11.111,L
851,0.110,0.450,0.050,41.667,58.333,297.222,891.667,44.444,L
852,0.035,-0.685,0.220,80.556,0.000,236.111,933.333,41.667,L
853,-0.100,0.570,0.180,58.333,97.222,322.222,888.889,44.444,L
854,-0.200,0.560,0.220,58.333,97.222,308.333,863.889,25.000,L
855,-0.205,0.485,0.210,58.333,94.444,302.778,855.556,8.333,L
856,0.135,0.420,0.175,38.889,52.778,269.444,830.556,25.000,L
857,0.280,-0.755,0.075,36.111,0.000,219.444,861.111,30.556,L
858,0.185,0.415,0.160,41.667,61.111,286.111,827.778,33.333,L
859,-0.240,0.485,0.055,58.333,94.444,311.111,877.778,50.000,L
860,-0.350,0.410,0.005,58.333,94.444,305.556,872.222,5.556,L
861,-0.010,0.300,0.045,38.889,55.556,275.000,841.667,30.556,L
862,0.040,0.315,0.020,38.889,61.111,272.222,844.444,2.778,L
863,-0.075,0.015,-0.050,38.889,58.333,269.444,830.556,13.889,L
864,-0.275,0.510,0.090,58.333,91.667,288.889,816.667,13.889,L
865,-0.130,0.660,0.085,58.333,97.222,322.222,850.000,33.333,L
866,-0.175,0.515,0.130,58.333,94.444,319.444,886.111,36.111,L
867,-0.140,0.610,0.185,58.333,97.222,308.333,911.111,25.000,L
868,-0.155,0.560,0.210,58.333,88.889,311.111,863.889,47.222,L
869,0.085,0.340,0.080,38.889,52.778,261.111,863.889,0.000,L
870,0.025,0.200,0.225,44.444,52.778,275.000,838.889,25.000,L
871,-0.145,0.790,0.210,180.556,97.222,308.333,836.111,2.778,L
872,-0.110,0.615,0.175,58.333,94.444,327.778,913.889,77.778,L
873,-0.125,0.515,0.165,58.333,94.444,316.667,927.778,13.889,L
874,-0.180,0.450,0.170,58.333,91.667,297.222,902.778,25.000,L
875,-0.235,0.425,0.115,61.111,91.667,308.333,850.000,52.778,L
876,0.080,0.210,0.120,38.889,63.889,275.000,861.111,11.111,L
877,0.020,0.890,0.350,58.333,94.444,308.333,833.333,27.778,L
878,-0.040,0.805,0.225,58.333,97.222,305.556,813.889,19.444,L
879,-0.135,0.530,0.035,58.333,94.444,316.667,875.000,61.111,L
880,0.020,0.625,0.290,58.333,100.000,319.444,863.889,11.111,L
881,-0.080,0.940,0.190,58.333,100.000,311.111,861.111,2.778,L
882,-0.110,0.895,0.125,58.333,102.778,316.667,858.333,2.778,L
883,-0.235,0.705,-0.055,58.333,94.444,297.222,869.444,11.111,L
884,0.010,0.105,0.305,41.667,61.111,269.444,827.778,41.667,L
885,-0.075,0.830,0.165,58.333,102.778,322.222,816.667,11.111,L
886,-0.005,0.915,0.170,58.333,102.778,333.333,908.333,91.667,L
887,-0.265,0.535,0.120,58.333,100.000,322.222,908.333,0.000,L
888,0.150,-0.750,0.005,33.333,8.333,200.000,930.556,22.222,L
889,-0.015,0.435,0.175,58.333,94.444,313.889,777.778,152.778,L
890,-0.145,0.915,0.110,58.333,100.000,319.444,841.667,63.889,L
891,-0.200,0.785,0.085,58.333,97.222,322.222,833.333,8.333,L
892,0.220,0.310,0.305,44.444,63.889,286.111,808.333,25.000,L
893,-0.050,0.825,0.225,58.333,100.000,322.222,875.000,66.667,L
894,-0.050,0.790,0.215,58.333,97.222,311.111,897.222,22.222,L
895,-0.200,0.745,0.150,58.333,100.000,311.111,866.667,30.556,L
896,0.000,0.100,-0.025,41.667,63.889,288.889,861.111,5.556,L
897,0.055,0.550,0.345,58.333,91.667,316.667,833.333,27.778,L
898,-0.005,0.955,0.270,58.333,97.222,305.556,827.778,5.556,L
899,-0.125,0.625,0.320,197.222,88.889,313.889,811.111,16.667,L
900,0.070,0.695,0.310,58.333,91.667,311.111,883.333,72.222,L
901,0.025,0.665,0.295,58.333,94.444,316.667,880.556,2.778,L
902,-0.070,0.615,0.295,58.333,94.444,316.667,883.333,2.778,L
903,-0.190,0.540,0.130,197.222,94.444,308.333,841.667,41.667,L
904,-0.260,0.295,0.155,58.333,100.000,297.222,847.222,5.556,L
905,0.100,0.725,0.410,58.333,97.222,313.889,797.222,50.000,L
906,-0.075,0.940,0.230,186.111,97.222,333.333,813.889,16.667,L
907,0.010,0.810,0.220,58.333,97.222,319.444,900.000,86.111,L
908,-0.200,0.270,0.120,58.333,97.222,308.333,894.444,5.556,L
909,0.025,0.755,0.240,58.333,94.444,305.556,872.222,22.222,L
910,-0.065,0.900,0.265,58.333,100.000,305.556,847.222,25.000,L
911,-0.095,0.725,0.265,58.333,100.000,322.222,866.667,19.444,L
912,-0.075,0.620,0.270,58.333,94.444,319.444,869.444,2.778,L
913,-0.255,0.275,0.075,197.222,100.000,322.222,830.556,38.889,L
914,0.035,0.820,0.340,58.333,100.000,325.000,869.444,38.889,L
915,0.070,0.985,0.290,58.333,102.778,330.556,891.667,22.222,L
916,-0.045,0.935,0.240,58.333,100.000,313.889,916.667,25.000,L
917,0.060,0.125,0.060,44.444,66.667,288.889,861.111,55.556,L
918,0.005,0.630,0.325,58.333,97.222,297.222,827.778,33.333,L
919,-0.025,0.915,0.210,58.333,100.000,313.889,833.333,5.556,L
920,-0.175,0.815,0.115,58.333,102.778,313.889,830.556,2.778,L
921,-0.015,0.720,0.225,58.333,105.556,316.667,897.222,66.667,L
922,-0.035,0.775,0.235,58.333,102.778,316.667,900.000,2.778,L
923,0.115,-0.765,0.130,33.333,0.000,208.333,916.667,16.667,L
924,0.230,-0.585,0.285,36.111,2.778,216.667,827.778,88.889,L
925,-0.115,0.465,0.290,58.333,94.444,311.111,816.667,11.111,L
926,-0.165,0.590,0.200,58.333,97.222,308.333,850.000,33.333,L
927,0.155,0.460,0.120,41.667,58.333,277.778,813.889,36.111,L
928,0.030,0.080,0.040,41.667,61.111,283.333,861.111,47.222,L
929,-0.140,0.390,0.195,58.333,100.000,327.778,858.333,2.778,L
930,-0.040,0.805,0.360,58.333,97.222,305.556,888.889,30.556,L
931,-0.015,0.795,0.165,58.333,97.222,288.889,850.000,38.889,L
932,0.085,0.255,0.180,44.444,63.889,269.444,850.000,0.000,L
933,-0.260,0.620,0.005,58.333,97.222,305.556,833.333,16.667,L
934,-0.300,0.510,0.110,58.333,97.222,308.333,847.222,13.889,L
935,-0.180,0.560,0.140,58.333,97.222,319.444,905.556,58.333,L
936,-0.115,0.575,0.200,58.333,88.889,313.889,938.889,33.333,L
937,-0.170,0.605,0.225,58.333,91.667,288.889,911.111,27.778,L
938,-0.085,0.585,0.240,58.333,94.444,319.444,866.667,44.444,L
939,-0.140,0.565,0.180,58.333,94.444,308.333,883.333,16.667,L
940,-0.285,0.465,0.130,58.333,88.889,311.111,861.111,22.222,L
941,-0.285,0.440,0.090,58.333,94.444,327.778,866.667,5.556,L
942,-0.235,0.440,0.150,58.333,94.444,313.889,930.556,63.889,L
943,-0.180,0.500,0.185,58.333,94.444,319.444,911.111,19.444,L
944,-0.265,0.435,0.135,188.889,94.444,319.444,866.667,44.444,L
945,-0.070,0.035,0.015,41.667,63.889,286.111,900.000,33.333,L
946,-0.205,0.465,0.150,58.333,91.667,300.000,869.444,30.556,L
947,0.005,0.905,0.340,58.333,97.222,288.889,866.667,2.778,L
948,-0.045,0.745,0.205,58.333,94.444,311.111,838.889,27.778,L
949,-0.015,0.285,0.060,38.889,61.111,286.111,911.111,72.222,L
950,-0.185,-0.095,-0.050,47.222,63.889,291.667,911.111,0.000,L
951,-0.030,0.560,0.235,58.333,94.444,330.556,858.333,52.778,L
952,-0.190,0.585,0.190,191.667,97.222,313.889,869.444,11.111,L
953,-0.195,0.660,0.180,58.333,91.667,294.444,852.778,16.667,L
954,-0.315,0.515,0.075,197.222,91.667,280.556,833.333,19.444,L
955,-0.065,0.155,0.085,47.222,63.889,294.444,869.444,36.111,L
956,0.200,-0.800,0.110,36.111,2.778,230.556,938.889,69.444,L
957,0.035,0.285,0.160,38.889,52.778,277.778,861.111,77.778,L
958,0.090,0.315,0.100,41.667,58.333,280.556,844.444,16.667,L
959,-0.065,0.060,0.010,44.444,61.111,258.333,858.333,13.889,L
960,-0.270,0.355,0.115,58.333,94.444,313.889,811.111,47.222,L
961,-0.205,0.620,0.190,58.333,91.667,297.222,833.333,22.222,L
962,-0.145,0.575,0.160,58.333,94.444,316.667,830.556,2.778,L
963,0.020,0.230,-0.020,38.889,61.111,280.556,880.556,50.000,L
964,-0.075,0.505,0.210,58.333,100.000,327.778,847.222,33.333,L
965,-0.075,0.785,0.155,58.333,100.000,327.778,847.222,0.000,L
966,-0.240,0.595,0.140,58.333,94.444,313.889,863.889,16.667,L
967,-0.300,0.495,0.120,58.333,91.667,297.222,833.333,30.556,L
968,0.060,-0.765,0.015,36.111,2.778,197.222,858.333,25.000,L
969,0.005,0.190,0.125,41.667,61.111,286.111,788.889,69.444,L
970,0.105,0.345,0.130,38.889,63.889,288.889,880.556,91.667,L
971,0.100,0.320,0.105,41.667,61.111,283.333,888.889,8.333,L
972,-0.260,0.270,0.095,58.333,94.444,322.222,844.444,44.444,L
973,-0.285,0.225,0.030,58.333,94.444,302.778,852.778,8.333,L
974,-0.305,0.335,0.035,58.333,91.667,291.667,830.556,22.222,L
975,0.060,0.260,0.135,38.889,63.889,269.444,838.889,8.333,L
976,-0.145,0.560,0.275,58.333,94.444,322.222,813.889,25.000,L
977,0.315,-0.670,0.075,36.111,0.000,219.444,908.333,94.444,L
978,-0.220,0.400,0.095,58.333,94.444,316.667,830.556,77.778,L
979,-0.280,0.385,0.060,197.222,97.222,311.111,841.667,11.111,L
980,0.070,0.260,0.035,41.667,61.111,261.111,844.444,2.778,L
981,-0.280,0.350,0.065,58.333,100.000,311.111,822.222,22.222,L
982,-0.275,0.440,0.045,197.222,91.667,308.333,816.667,5.556,L
983,-0.290,0.360,-0.030,58.333,97.222,308.333,802.778,13.889,L
984,-0.005,0.120,0.110,41.667,58.333,280.556,861.111,58.333,L
985,-0.155,0.540,0.100,58.333,100.000,325.000,886.111,25.000,L
986,-0.275,0.565,0.080,58.333,94.444,297.222,863.889,22.222,L
987,-0.325,0.350,0.065,58.333,97.222,294.444,838.889,25.000,L
988,-0.265,0.530,0.120,58.333,88.889,294.444,830.556,8.333,L
989,-0.255,0.480,0.115,58.333,91.667,294.444,833.333,2.778,L
990,-0.125,0.480,0.155,58.333,94.444,313.889,813.889,19.444,L
991,0.150,0.365,0.110,44.444,66.667,291.667,891.667,77.778,L
992,-0.100,0.475,0.200,58.333,100.000,330.556,861.111,30.556,L
993,-0.135,0.735,0.185,58.333,94.444,291.667,872.222,11.111,L
994,-0.235,0.535,0.050,58.333,97.222,313.889,847.222,25.000,L
995,0.210,0.380,0.395,44.444,63.889,275.000,858.333,11.111,L
996,0.005,1.050,0.215,58.333,100.000,322.222,830.556,27.778,L
997,-0.230,0.515,-0.070,191.667,100.000,319.444,822.222,8.333,L
998,-0.015,0.615,0.045,58.333,102.778,327.778,875.000,52.778,L
999,-0.230,0.715,0.015,58.333,100.000,327.778,886.111,11.111,L
1000,-0.325,0.690,0.040,58.333,97.222,305.556,900.000,13.889,L
1001,-0.255,0.550,-0.095,58.333,97.222,316.667,875.000,25.000,L
1002,-0.210,0.385,0.100,58.333,97.222,313.889,838.889,36.111,L
1003,-0.250,0.735,0.045,58.333,100.000,311.111,819.444,19.444,L
1004,0.140,0.205,0.330,44.444,61.111,288.889,825.000,5.556,L
1005,0.065,0.785,0.225,58.333,100.000,327.778,891.667,66.667,L
1006,0.025,0.785,0.215,58.333,100.000,316.667,880.556,11.111,L
1007,-0.125,0.765,0.175,58.333,97.222,300.000,847.222,33.333,L
1008,0.195,-0.495,0.310,36.111,5.556,230.556,861.111,13.889,L
1009,-0.020,0.800,0.230,58.333,97.222,316.667,802.778,58.333,L
1010,-0.250,0.355,0.235,58.333,94.444,313.889,822.222,19.444,L
1011,-0.045,0.845,0.195,58.333,102.778,316.667,816.667,5.556,L
1012,-0.010,0.905,0.235,58.333,97.222,327.778,858.333,41.667,L
1013,-0.220,0.380,0.055,58.333,94.444,319.444,855.556,2.778,L
1014,0.145,0.665,0.360,58.333,97.222,316.667,850.000,5.556,L
1015,0.100,1.135,0.325,58.333,102.778,319.444,833.333,16.667,L
1016,-0.045,1.050,0.260,58.333,102.778,311.111,841.667,8.333,L
1017,0.010,0.925,0.215,58.333,94.444,313.889,811.111,30.556,L
1018,-0.190,0.840,0.210,197.222,97.222,327.778,800.000,11.111,L
1019,-0.040,0.830,0.210,58.333,102.778,330.556,869.444,69.444,L
1020,0.040,0.120,0.210,44.444,63.889,291.667,888.889,19.444,L
1021,-0.040,0.725,0.195,58.333,94.444,302.778,891.667,2.778,L
1022,-0.325,0.240,0.380,58.333,100.000,313.889,825.000,66.667,L
1023,0.140,0.960,0.415,197.222,100.000,308.333,836.111,11.111,L
1024,0.050,0.920,0.240,58.333,100.000,316.667,825.000,11.111,L
1025,0.105,-0.685,0.215,33.333,2.778,208.333,852.778,27.778,L
1026,-0.105,0.660,0.070,58.333,100.000,313.889,816.667,36.111,L
1027,-0.185,0.740,0.060,58.333,97.222,316.667,847.222,30.556,L
1028,-0.140,0.745,0.140,58.333,100.000,322.222,861.111,13.889,L
1029,-0.110,0.735,0.250,58.333,97.222,325.000,813.889,47.222,L
1030,0.130,-0.690,0.015,38.889,2.778,213.889,875.000,61.111,L
1031,-0.075,0.565,0.215,58.333,94.444,297.222,755.556,119.444,L
1032,-0.120,0.955,0.215,58.333,97.222,291.667,791.667,36.111,L
1033,-0.035,1.100,0.195,58.333,100.000,322.222,800.000,8.333,L
1034,-0.030,0.910,0.265,58.333,97.222,336.111,869.444,69.444,L
1035,0.065,0.970,0.325,58.333,100.000,322.222,880.556,11.111,L
1036,0.045,0.890,0.225,58.333,100.000,305.556,833.333,47.222,L
1037,0.220,0.250,0.415,41.667,58.333,275.000,819.444,13.889,L
1038,0.170,1.135,0.585,58.333,100.000,311.111,827.778,8.333,L
1039,0.350,1.390,0.615,58.333,100.000,294.444,819.444,8.333,L
1040,0.190,1.085,0.275,58.333,97.222,319.444,808.333,11.111,L
1041,-0.155,0.650,0.030,58.333,100.000,319.444,880.556,72.222,L
1042,0.045,0.075,0.195,41.667,66.667,291.667,861.111,19.444,L
1043,-0.115,0.680,0.080,194.444,91.667,302.778,825.000,36.111,L
1044,-0.380,0.610,-0.155,58.333,100.000,325.000,825.000,0.000,L
1045,-0.565,0.295,-0.280,186.111,97.222,302.778,838.889,13.889,L
1046,-0.365,0.530,-0.055,58.333,100.000,311.111,780.556,58.333,L
1047,-0.350,0.710,-0.055,58.333,97.222,319.444,772.222,8.333,L
1048,-0.305,0.470,0.010,58.333,97.222,322.222,850.000,77.778,L
1049,-0.245,0.625,0.000,58.333,100.000,313.889,855.556,5.556,L
1050,0.135,0.305,0.255,44.444,63.889,272.222,844.444,11.111,L
1051,-0.110,0.670,0.245,58.333,97.222,319.444,816.667,27.778,L
1052,-0.175,0.380,0.195,197.222,100.000,308.333,827.778,11.111,L
1053,0.220,0.195,0.490,47.222,61.111,266.667,788.889,38.889,L
1054,0.135,1.250,0.405,197.222,97.222,319.444,800.000,11.111,L
1055,0.205,1.155,0.410,58.333,105.556,327.778,875.000,75.000,L
1056,0.180,1.170,0.430,58.333,100.000,322.222,875.000,0.000,L
1057,0.045,0.840,0.405,58.333,94.444,302.778,872.222,2.778,L
1058,0.230,0.300,0.155,41.667,61.111,272.222,830.556,41.667,L
1059,0.045,0.760,0.335,58.333,97.222,302.778,819.444,11.111,L
1060,-0.005,0.935,0.340,58.333,97.222,305.556,813.889,5.556,L
1061,0.000,1.045,0.335,197.222,97.222,305.556,830.556,16.667,L
1062,-0.020,0.810,0.145,58.333,97.222,319.444,855.556,25.000,L
1063,-0.070,0.610,0.270,58.333,97.222,319.444,866.667,11.111,L
1064,0.000,0.145,0.260,41.667,63.889,288.889,866.667,0.000,L
1065,-0.195,0.630,0.110,58.333,102.778,327.778,875.000,8.333,L
1066,-0.215,0.800,0.085,58.333,100.000,313.889,855.556,19.444,L
1067,-0.045,0.785,0.480,58.333,97.222,305.556,819.444,36.111,L
1068,0.210,1.240,0.710,197.222,91.667,288.889,813.889,5.556,L
1069,0.275,0.855,0.585,58.333,88.889,311.111,847.222,33.333,L
1070,0.460,-0.530,0.275,38.889,2.778,225.000,911.111,63.889,L
1071,0.150,-0.475,0.325,36.111,5.556,233.333,861.111,50.000,L
1072,0.035,0.605,0.330,58.333,91.667,313.889,791.667,69.444,L
1073,-0.025,0.945,0.275,197.222,100.000,297.222,836.111,44.444,L
1074,-0.100,0.600,0.280,180.556,97.222,294.444,802.778,33.333,L
1075,-0.065,0.600,0.260,58.333,97.222,297.222,827.778,25.000,L
1076,-0.080,0.610,0.375,58.333,97.222,316.667,816.667,11.111,L
1077,0.015,0.870,0.310,58.333,97.222,319.444,880.556,63.889,L
1078,0.005,0.755,0.305,58.333,94.444,316.667,869.444,11.111,L
1079,0.005,0.685,0.295,58.333,97.222,313.889,855.556,13.889,L
1080,-0.050,0.715,0.305,58.333,97.222,308.333,858.333,2.778,L
1081,0.020,0.805,0.235,58.333,91.667,311.111,861.111,2.778,L
1082,-0.155,0.620,0.220,58.333,97.222,286.111,858.333,2.778,L
1083,-0.025,0.675,0.320,58.333,94.444,316.667,836.111,22.222,L
1084,0.060,0.890,0.365,58.333,100.000,311.111,891.667,55.556,L
1085,-0.075,0.620,0.175,58.333,97.222,333.333,908.333,16.667,L
1086,-0.325,0.245,0.125,58.333,100.000,313.889,872.222,36.111,L
1087,-0.130,0.705,0.260,58.333,94.444,300.000,877.778,5.556,L
1088,-0.080,0.810,0.330,58.333,91.667,300.000,852.778,25.000,L
1089,-0.080,0.725,0.275,188.889,91.667,283.333,863.889,11.111,L
1090,0.215,0.445,0.330,41.667,58.333,294.444,855.556,8.333,L
1091,0.050,0.865,0.325,58.333,97.222,333.333,913.889,58.333,L
1092,0.065,1.025,0.315,58.333,102.778,316.667,905.556,8.333,L
1093,-0.185,0.565,0.140,58.333,97.222,305.556,858.333,47.222,L
1094,-0.105,0.735,0.235,58.333,91.667,313.889,855.556,2.778,L
1095,-0.215,0.600,0.140,58.333,94.444,311.111,855.556,0.000,L
1096,-0.770,-0.070,0.300,197.222,88.889,305.556,836.111,19.444,L
1097,0.045,1.090,0.415,58.333,102.778,327.778,847.222,11.111,L
1098,0.385,1.440,0.790,58.333,94.444,316.667,894.444,47.222,L
1099,0.175,1.105,0.380,58.333,102.778,319.444,886.111,8.333,L
1100,-0.035,1.900,1.650,946427.778,946461.111,946666.667,850.000,36.111,L
1101,0.725,1.295,1.085,197.222,97.222,308.333,858.333,8.333,L
1102,0.650,-0.130,0.310,36.111,2.778,208.333,855.556,2.778,L
1103,-0.430,0.095,-0.535,191.667,91.667,280.556,783.333,72.222,L
1104,-0.900,-0.680,-0.460,44.444,66.667,291.667,827.778,44.444,L
1105,-0.535,0.235,-0.315,58.333,105.556,333.333,908.333,80.556,L
1106,-0.415,0.395,-0.200,58.333,97.222,319.444,880.556,27.778,L
1107,-0.355,0.585,-0.035,58.333,97.222,319.444,836.111,44.444,L
1108,-0.345,0.580,-0.065,58.333,97.222,316.667,850.000,13.889,L
1109,-0.645,-0.060,-0.335,197.222,91.667,308.333,841.667,8.333,L
1110,-0.300,0.375,0.040,58.333,97.222,286.111,808.333,33.333,L
1111,-0.165,0.675,0.100,58.333,100.000,325.000,858.333,50.000,L
1112,-0.060,0.870,0.165,58.333,100.000,336.111,888.889,30.556,L
1113,0.020,0.935,0.300,58.333,100.000,316.667,888.889,0.000,L
1114,0.105,1.005,0.305,58.333,100.000,313.889,852.778,36.111,L
1115,-0.075,0.970,0.230,58.333,97.222,308.333,875.000,22.222,L
1116,0.375,-0.370,0.350,36.111,2.778,225.000,869.444,5.556,L
1117,-0.055,1.120,0.205,197.222,100.000,308.333,794.444,75.000,L
1118,-0.060,0.960,0.205,58.333,97.222,336.111,838.889,44.444,L
1119,-0.230,0.185,0.155,58.333,102.778,327.778,872.222,33.333,L
1120,0.055,0.800,0.275,58.333,102.778,330.556,855.556,16.667,L
1121,0.195,1.090,0.340,58.333,105.556,313.889,847.222,8.333,L
1122,0.275,1.235,0.715,58.333,100.000,311.111,836.111,11.111,L
1123,0.400,1.460,0.465,188.889,97.222,302.778,808.333,27.778,L
1124,-0.560,-0.010,-0.535,191.667,94.444,300.000,819.444,11.111,L
1125,-0.690,0.015,-0.240,58.333,94.444,313.889,836.111,16.667,L
1126,-0.090,0.650,0.340,58.333,102.778,311.111,866.667,30.556,L
1127,0.195,0.800,0.240,58.333,108.333,333.333,833.333,33.333,L
1128,-0.245,0.675,0.055,169.444,100.000,325.000,825.000,8.333,L
1129,-0.035,0.275,0.105,41.667,61.111,269.444,838.889,13.889,L
1130,0.025,0.395,0.095,38.889,63.889,272.222,813.889,25.000,L
1131,0.080,0.460,0.115,47.222,69.444,269.444,816.667,2.778,L
1132,-0.020,0.285,0.175,44.444,63.889,291.667,786.111,30.556,L
1133,0.020,0.445,0.085,41.667,63.889,283.333,852.778,66.667,L
1134,0.060,0.415,0.130,44.444,66.667,294.444,858.333,5.556,L
1135,-0.080,0.335,-0.055,44.444,61.111,252.778,872.222,13.889,L
1136,-0.225,0.185,-0.080,44.444,66.667,280.556,827.778,44.444,L
1137,-0.125,0.275,0.020,41.667,61.111,280.556,825.000,2.778,L
1138,0.120,0.375,0.245,41.667,58.333,283.333,819.444,5.556,L
1139,0.365,0.550,0.540,41.667,61.111,288.889,797.222,22.222,L
1140,0.495,0.910,0.490,47.222,66.667,297.222,894.444,97.222,L
1141,0.420,0.890,0.500,44.444,66.667,275.000,900.000,5.556,L
1142,0.315,0.705,0.445,41.667,61.111,252.778,872.222,27.778,L
1143,0.285,0.550,0.425,47.222,63.889,275.000,836.111,36.111,L
1144,0.440,0.835,0.470,41.667,63.889,272.222,850.000,13.889,L
1145,0.355,0.715,0.425,44.444,63.889,261.111,844.444,5.556,L
1146,0.280,0.590,0.370,44.444,61.111,286.111,825.000,19.444,L
1147,0.205,0.715,0.325,41.667,66.667,291.667,880.556,55.556,L
1148,0.115,0.450,0.210,47.222,63.889,300.000,891.667,11.111,L
1149,0.130,0.435,0.190,41.667,58.333,263.889,863.889,27.778,L
1150,0.150,0.595,0.205,44.444,66.667,283.333,852.778,11.111,L
1151,0.065,0.465,0.200,47.222,63.889,261.111,855.556,2.778,L
1152,0.050,0.475,0.200,41.667,58.333,275.000,836.111,19.444,L
1153,0.045,0.430,0.205,50.000,63.889,291.667,816.667,19.444,L
1154,0.065,0.365,0.255,50.000,63.889,305.556,900.000,83.333,L
1155,0.180,0.375,0.135,47.222,63.889,288.889,902.778,2.778,L
1156,-0.315,0.540,0.010,58.333,97.222,277.778,891.667,11.111,L
1157,0.070,0.445,-0.010,41.667,61.111,266.667,850.000,41.667,L
1158,0.005,0.380,0.170,41.667,63.889,261.111,855.556,5.556,L
1159,0.160,0.575,0.200,41.667,66.667,286.111,825.000,30.556,L
1160,0.155,0.485,0.215,47.222,69.444,297.222,825.000,0.000,L
1161,0.075,0.395,0.225,50.000,63.889,288.889,872.222,47.222,L
1162,0.060,0.520,0.155,41.667,66.667,286.111,866.667,5.556,L
1163,0.095,0.280,0.260,47.222,61.111,252.778,855.556,11.111,L
1164,0.165,0.635,0.255,47.222,69.444,277.778,838.889,16.667,L
1165,0.095,0.415,0.300,47.222,66.667,277.778,836.111,2.778,L
1166,0.095,0.460,0.300,41.667,58.333,252.778,805.556,30.556,L
1167,0.085,0.435,0.285,47.222,63.889,255.556,783.333,22.222,L
1168,0.035,0.375,0.265,50.000,66.667,275.000,863.889,80.556,L
1169,0.065,0.415,0.210,47.222,69.444,277.778,863.889,0.000,L
1170,0.120,0.485,0.230,47.222,66.667,275.000,875.000,11.111,L
1171,0.035,0.435,0.250,44.444,63.889,286.111,833.333,41.667,L
1172,-0.120,0.175,0.175,44.444,63.889,258.333,847.222,13.889,L
1173,-0.285,0.600,0.045,58.333,97.222,305.556,830.556,16.667,L
1174,-0.340,0.365,-0.005,58.333,94.444,313.889,827.778,2.778,L
1175,-0.080,0.755,0.300,58.333,100.000,338.889,858.333,30.556,L
1176,0.260,0.535,0.555,47.222,58.333,277.778,880.556,22.222,L
1177,0.080,0.380,0.320,50.000,58.333,269.444,877.778,2.778,L
1178,-0.055,0.370,0.095,44.444,61.111,275.000,838.889,38.889,L
1179,-0.080,0.360,0.100,44.444,66.667,277.778,850.000,11.111,L
1180,-0.290,0.550,0.045,58.333,97.222,311.111,830.556,19.444,L
1181,-0.450,0.575,-0.065,58.333,94.444,308.333,822.222,8.333,L
1182,0.230,0.320,0.170,44.444,66.667,286.111,850.000,27.778,L
1183,0.075,0.975,0.255,58.333,102.778,333.333,891.667,41.667,L
1184,0.040,1.090,0.260,58.333,97.222,319.444,911.111,19.444,L
1185,-0.010,1.020,0.280,58.333,100.000,325.000,844.444,66.667,L
1186,-0.055,0.985,0.255,58.333,97.222,308.333,852.778,8.333,L
1187,-0.125,0.915,0.200,58.333,97.222,308.333,836.111,16.667,L
1188,-0.210,0.845,0.150,186.111,97.222,305.556,833.333,2.778,L
1189,-0.090,0.785,0.155,58.333,100.000,325.000,897.222,63.889,L
1190,-0.130,0.790,0.175,58.333,100.000,327.778,916.667,19.444,L
1191,-0.160,0.805,0.195,58.333,97.222,308.333,902.778,13.889,L
1192,-0.175,0.810,0.170,58.333,97.222,311.111,850.000,52.778,L
1193,-0.175,0.785,0.175,58.333,97.222,319.444,872.222,22.222,L
1194,-0.155,0.765,0.180,58.333,94.444,316.667,869.444,2.778,L
1195,-0.110,0.750,0.180,58.333,100.000,313.889,836.111,33.333,L
1196,-0.065,0.735,0.195,58.333,100.000,325.000,888.889,52.778,L
1197,0.160,0.725,0.130,41.667,69.444,305.556,908.333,19.444,L
1198,-0.300,0.690,0.085,58.333,97.222,302.778,880.556,27.778,L
1199,-0.170,0.865,0.075,58.333,97.222,319.444,869.444,11.111,L
1200,-0.035,1.240,0.160,58.333,100.000,311.111,858.333,11.111,L
1201,-0.130,0.925,0.165,61.111,97.222,311.111,833.333,25.000,L
1202,-0.180,0.795,0.145,58.333,97.222,322.222,822.222,11.111,L
1203,-0.105,0.685,0.050,58.333,94.444,330.556,908.333,86.111,L
1204,-0.055,0.750,0.185,58.333,97.222,319.444,894.444,13.889,L
1205,-0.160,0.825,0.160,58.333,97.222,300.000,886.111,8.333,L
1206,-0.115,0.820,0.180,58.333,100.000,308.333,861.111,25.000,L
1207,0.100,1.100,0.260,58.333,97.222,311.111,863.889,2.778,L
1208,-0.035,0.970,0.075,58.333,97.222,316.667,844.444,19.444,L
1209,0.105,0.830,0.235,58.333,97.222,325.000,827.778,16.667,L
1210,-0.045,1.010,0.150,58.333,97.222,319.444,902.778,75.000,L
1211,-0.175,0.890,0.105,58.333,102.778,330.556,905.556,2.778,L
1212,-0.225,0.965,0.175,58.333,88.889,308.333,872.222,33.333,L
1213,-0.115,0.880,0.170,58.333,97.222,325.000,883.333,11.111,L
1214,-0.180,0.720,0.185,58.333,94.444,308.333,866.667,16.667,L
1215,-0.180,0.625,0.105,58.333,94.444,300.000,844.444,22.222,L
1216,0.275,0.775,0.270,44.444,66.667,291.667,808.333,36.111,L
1217,0.005,0.950,0.165,58.333,102.778,313.889,894.444,86.111,L
1218,-0.030,0.815,0.135,58.333,100.000,330.556,883.333,11.111,L
1219,-0.275,0.540,0.160,194.444,86.111,311.111,866.667,16.667,L
1220,0.070,0.565,0.150,41.667,58.333,277.778,869.444,2.778,L
1221,-0.230,0.610,0.165,58.333,94.444,305.556,838.889,30.556,L
1222,0.055,0.600,0.225,38.889,66.667,261.111,827.778,11.111,L
1223,0.090,0.610,0.210,41.667,63.889,302.778,844.444,16.667,L
1224,0.070,0.580,0.175,41.667,66.667,291.667,900.000,55.556,L
1225,-0.140,0.680,0.190,58.333,100.000,325.000,891.667,8.333,L
1226,-0.190,0.690,0.230,186.111,94.444,322.222,855.556,36.111,L
1227,0.130,0.670,0.245,41.667,63.889,269.444,888.889,33.333,L
1228,0.120,0.645,0.160,41.667,63.889,266.667,850.000,38.889,L
1229,0.205,0.615,0.275,44.444,63.889,272.222,838.889,11.111,L
1230,-0.115,0.785,0.160,58.333,97.222,322.222,841.667,2.778,L
1231,-0.205,0.725,0.155,58.333,97.222,319.444,900.000,58.333,L
1232,-0.135,0.720,0.195,58.333,97.222,338.889,897.222,2.778,L
1233,0.125,0.635,0.130,44.444,69.444,300.000,891.667,5.556,L
1234,-0.075,0.635,0.230,58.333,97.222,313.889,869.444,22.222,L
1235,-0.145,0.880,0.230,58.333,94.444,302.778,844.444,25.000,L
1236,-0.130,0.920,0.155,58.333,94.444,300.000,850.000,5.556,L
1237,-0.090,0.890,0.230,58.333,97.222,316.667,852.778,2.778,L
1238,0.030,0.970,0.230,58.333,97.222,327.778,905.556,52.778,L
1239,-0.005,0.855,0.170,58.333,97.222,325.000,905.556,0.000,L
1240,-0.140,0.880,0.160,58.333,100.000,319.444,852.778,52.778,L
1241,-0.170,0.755,0.170,58.333,97.222,302.778,866.667,13.889,L
1242,0.105,0.640,0.200,44.444,61.111,269.444,855.556,11.111,L
1243,-0.215,0.700,0.210,58.333,97.222,288.889,861.111,5.556,L
1244,0.210,0.780,0.220,41.667,66.667,291.667,869.444,8.333,L
1245,-0.070,0.725,0.185,58.333,97.222,333.333,902.778,33.333,L
1246,-0.060,0.695,0.180,58.333,100.000,330.556,919.444,16.667,L
1247,0.025,0.910,0.300,58.333,97.222,333.333,847.222,72.222,L
1248,-0.005,0.935,0.300,58.333,97.222,319.444,886.111,38.889,L
1249,-0.120,0.795,0.360,58.333,97.222,308.333,872.222,13.889,L
1250,-0.070,0.745,0.350,58.333,91.667,300.000,858.333,13.889,L
1251,0.180,0.630,0.200,41.667,63.889,305.556,883.333,25.000,L
1252,0.185,0.885,0.350,58.333,102.778,336.111,900.000,16.667,L
1253,0.040,0.980,0.275,58.333,94.444,316.667,902.778,2.778,L
1254,-0.155,0.675,0.100,58.333,94.444,311.111,872.222,30.556,L
1255,-0.020,0.885,0.225,58.333,97.222,305.556,841.667,30.556,L
1256,-0.025,1.005,0.240,58.333,97.222,308.333,844.444,2.778,L
1257,-0.105,0.900,0.300,58.333,97.222,325.000,833.333,11.111,L
1258,0.000,0.775,0.180,58.333,102.778,330.556,897.222,63.889,L
1259,0.320,0.700,0.350,41.667,66.667,294.444,891.667,5.556,L
1260,-0.035,0.795,0.240,58.333,97.222,308.333,880.556,11.111,L
1261,0.315,0.525,0.330,44.444,63.889,288.889,841.667,38.889,L
1262,0.000,0.915,0.300,58.333,97.222,325.000,861.111,19.444,L
1263,0.045,1.095,0.340,58.333,97.222,316.667,838.889,22.222,L
1264,-0.125,0.745,0.285,197.222,97.222,322.222,811.111,27.778,L
1265,0.080,0.950,0.390,58.333,97.222,322.222,883.333,72.222,L
1266,0.230,0.720,0.365,41.667,66.667,277.778,897.222,13.889,L
1267,0.180,0.685,0.335,38.889,66.667,261.111,900.000,2.778,L
1268,0.165,0.640,0.320,47.222,66.667,280.556,869.444,30.556,L
1269,0.115,0.595,0.280,41.667,61.111,266.667,858.333,11.111,L
1270,0.095,0.580,0.255,41.667,58.333,266.667,833.333,25.000,L
1271,0.065,0.600,0.275,47.222,63.889,291.667,844.444,11.111,L
1272,0.065,0.560,0.265,50.000,66.667,291.667,916.667,72.222,L
1273,0.030,0.480,0.225,44.444,66.667,288.889,905.556,11.111,L
1274,0.060,0.535,0.265,44.444,55.556,261.111,888.889,16.667,L
1275,0.055,0.505,0.260,47.222,58.333,283.333,883.333,5.556,L
1276,0.000,0.505,0.235,41.667,61.111,269.444,875.000,8.333,L
1277,0.010,0.470,0.225,47.222,58.333,280.556,875.000,0.000,L
1278,-0.060,0.330,0.080,44.444,61.111,286.111,861.111,13.889,L
1279,0.065,0.530,0.230,41.667,63.889,288.889,900.000,38.889,L
1280,0.055,0.570,0.115,38.889,63.889,294.444,894.444,5.556,L
1281,-0.330,0.620,0.160,58.333,100.000,325.000,913.889,19.444,L
1282,-0.105,0.750,0.145,58.333,100.000,311.111,900.000,13.889,L
1283,-0.185,0.870,0.150,58.333,94.444,300.000,861.111,38.889,L
1284,-0.195,0.650,0.135,58.333,97.222,288.889,861.111,0.000,L
1285,-0.285,0.400,0.045,58.333,94.444,316.667,855.556,5.556,L
1286,-0.130,0.205,-0.080,44.444,61.111,286.111,916.667,61.111,L
1287,-0.030,0.395,0.185,47.222,69.444,297.222,891.667,25.000,L
1288,0.200,0.740,0.250,38.889,66.667,288.889,855.556,36.111,L
1289,-0.095,0.615,0.185,58.333,88.889,313.889,858.333,2.778,L
1290,-0.140,0.670,0.230,58.333,100.000,311.111,836.111,22.222,L
1291,0.025,1.040,0.290,58.333,94.444,294.444,855.556,19.444,L
1292,-0.055,0.770,0.180,58.333,97.222,322.222,866.667,11.111,L
1293,-0.005,0.455,0.155,44.444,61.111,283.333,908.333,41.667,L
1294,0.005,0.445,0.055,44.444,69.444,294.444,902.778,5.556,L
1295,-0.040,0.620,0.190,58.333,102.778,327.778,850.000,52.778,L
1296,-0.225,0.800,0.060,58.333,100.000,325.000,886.111,36.111,L
1297,-0.305,0.620,0.135,58.333,94.444,313.889,880.556,5.556,L
1298,-0.285,0.560,0.130,58.333,94.444,302.778,861.111,19.444,L
1299,-0.075,0.505,0.075,41.667,66.667,294.444,880.556,19.444,L
1300,-0.150,0.355,0.120,47.222,66.667,294.444,944.444,63.889,L
1301,-0.140,0.340,0.135,47.222,63.889,286.111,925.000,19.444,L
1302,-0.090,0.340,0.165,44.444,58.333,280.556,872.222,52.778,L
1303,-0.110,0.360,0.135,47.222,61.111,272.222,875.000,2.778,L
1304,-0.325,0.635,0.310,58.333,97.222,308.333,847.222,27.778,L
1305,-0.135,0.865,0.140,58.333,100.000,325.000,850.000,2.778,L
1306,-0.160,0.750,0.150,58.333,97.222,333.333,925.000,75.000,L
1307,0.055,0.590,0.185,44.444,66.667,283.333,908.333,16.667,L
1308,-0.050,0.470,0.180,41.667,58.333,255.556,900.000,8.333,L
1309,-0.020,0.490,0.255,44.444,63.889,288.889,872.222,27.778,L
1310,0.020,0.460,0.185,41.667,58.333,266.667,888.889,16.667,L
1311,0.165,0.595,0.300,38.889,63.889,275.000,841.667,47.222,L
1312,-0.065,0.705,0.255,58.333,97.222,322.222,819.444,22.222,L
1313,0.100,0.615,0.235,41.667,66.667,288.889,902.778,83.333,L
1314,0.065,0.610,0.270,44.444,66.667,297.222,894.444,8.333,L
1315,0.060,0.550,0.145,38.889,61.111,269.444,891.667,2.778,L
1316,0.060,0.485,0.195,44.444,58.333,266.667,869.444,22.222,L
1317,0.025,0.535,0.175,38.889,61.111,266.667,863.889,5.556,L
1318,0.000,0.520,0.160,38.889,58.333,263.889,833.333,30.556,L
1319,0.065,0.610,0.110,41.667,69.444,305.556,863.889,30.556,L
1320,-0.080,0.805,0.225,58.333,100.000,325.000,913.889,50.000,L
1321,-0.085,0.905,0.230,58.333,100.000,327.778,911.111,2.778,L
1322,-0.225,0.640,0.185,197.222,97.222,311.111,872.222,38.889,L
1323,-0.035,0.450,0.175,44.444,58.333,261.111,897.222,25.000,L
1324,-0.150,0.280,0.075,44.444,55.556,263.889,863.889,33.333,L
1325,-0.105,0.180,0.100,44.444,61.111,266.667,866.667,2.778,L
1326,-0.105,0.310,0.175,44.444,63.889,288.889,858.333,8.333,L
1327,-0.005,0.515,0.170,44.444,66.667,277.778,911.111,52.778,L
1328,0.080,0.500,0.280,44.444,66.667,294.444,888.889,22.222,L
1329,0.050,0.595,0.265,50.000,69.444,294.444,883.333,5.556,L
1330,0.050,0.520,0.275,47.222,61.111,280.556,880.556,2.778,L
1331,0.065,0.495,0.230,41.667,58.333,266.667,844.444,36.111,L
1332,-0.170,0.610,0.295,58.333,97.222,288.889,827.778,16.667,L
1333,0.050,0.855,0.450,58.333,100.000,327.778,861.111,33.333,L
1334,0.145,1.160,0.340,58.333,100.000,325.000,916.667,55.556,L
1335,0.060,1.050,0.310,58.333,102.778,327.778,916.667,0.000,L
1336,-0.025,0.760,0.245,58.333,97.222,319.444,858.333,58.333,L
1337,-0.040,0.300,0.245,44.444,52.778,275.000,877.778,19.444,L
1338,-0.050,0.235,0.145,44.444,61.111,283.333,861.111,16.667,L
1339,-0.010,0.260,-0.005,36.111,52.778,258.333,855.556,5.556,L
1340,0.050,0.700,0.330,58.333,100.000,322.222,855.556,0.000,L
1341,-0.035,1.070,0.210,58.333,102.778,344.444,875.000,19.444,L
1342,-0.005,1.050,0.215,58.333,105.556,330.556,897.222,22.222,L
1343,-0.165,0.980,0.195,58.333,100.000,325.000,841.667,55.556,L
1344,-0.140,0.785,0.205,58.333,94.444,313.889,877.778,36.111,L
1345,-0.175,0.800,0.160,58.333,97.222,305.556,858.333,19.444,L
1346,-0.320,0.465,0.245,58.333,91.667,305.556,830.556,27.778,L
1347,-0.100,0.790,0.200,58.333,100.000,327.778,861.111,30.556,L
1348,-0.210,0.550,0.180,58.333,94.444,330.556,900.000,38.889,L
1349,0.000,0.225,0.215,44.444,63.889,275.000,905.556,5.556,L
1350,0.110,0.630,0.315,44.444,66.667,291.667,852.778,52.778,L
1351,-0.190,0.695,0.145,197.222,97.222,311.111,847.222,5.556,L
1352,0.290,0.575,0.415,44.444,66.667,280.556,850.000,2.778,L
1353,0.145,1.290,0.465,197.222,97.222,325.000,819.444,30.556,L
1354,-0.025,1.010,0.250,58.333,100.000,336.111,902.778,83.333,L
1355,-0.260,0.715,0.110,58.333,94.444,319.444,933.333,30.556,L
1356,-0.140,0.335,-0.010,41.667,58.333,266.667,922.222,11.111,L
1357,-0.300,-0.060,-0.280,41.667,63.889,286.111,875.000,47.222,L
1358,0.060,0.230,0.175,47.222,61.111,283.333,897.222,22.222,L
1359,-0.325,0.710,0.080,58.333,97.222,325.000,902.778,5.556,L
1360,-0.305,0.500,0.180,55.556,91.667,313.889,875.000,27.778,L
1361,-0.035,0.370,0.245,38.889,61.111,288.889,927.778,52.778,L
1362,-0.050,0.365,0.195,41.667,61.111,275.000,933.333,5.556,L
1363,-0.405,0.325,0.275,197.222,94.444,311.111,877.778,55.556,L
1364,-0.125,0.810,0.120,58.333,91.667,313.889,897.222,19.444,L
1365,-0.255,0.655,0.190,58.333,94.444,305.556,858.333,38.889,L
1366,-0.180,0.735,0.235,58.333,94.444,297.222,841.667,16.667,L
1367,-0.055,0.190,-0.075,41.667,61.111,283.333,847.222,5.556,L
1368,-0.105,0.130,0.000,44.444,63.889,288.889,916.667,69.444,L
1369,-0.140,0.580,0.160,58.333,100.000,330.556,902.778,13.889,L
1370,-0.020,0.980,0.340,58.333,97.222,322.222,858.333,44.444,L
1371,-0.085,0.875,0.190,58.333,97.222,313.889,877.778,19.444,L
1372,-0.215,0.635,0.140,58.333,97.222,302.778,861.111,16.667,L
1373,-0.110,0.800,0.260,58.333,91.667,297.222,852.778,8.333,L
1374,-0.040,0.845,0.240,58.333,97.222,316.667,866.667,13.889,L
1375,-0.120,0.765,0.210,58.333,97.222,316.667,913.889,47.222,L
1376,-0.120,0.810,0.200,58.333,100.000,322.222,927.778,13.889,L
1377,-0.065,0.800,0.160,58.333,97.222,327.778,880.556,47.222,L
1378,-0.200,0.715,0.105,58.333,97.222,311.111,902.778,22.222,L
1379,-0.360,0.685,0.245,58.333,97.222,308.333,866.667,36.111,L
1380,-0.155,1.070,0.125,58.333,91.667,311.111,847.222,19.444,L
1381,-0.215,0.795,0.115,58.333,100.000,325.000,922.222,75.000,L
1382,0.215,0.670,0.235,44.444,72.222,300.000,941.667,19.444,L
1383,-0.020,0.910,0.110,58.333,100.000,313.889,933.333,8.333,L
1384,-0.180,0.725,0.165,58.333,97.222,325.000,905.556,27.778,L
1385,-0.250,0.660,0.055,58.333,91.667,297.222,894.444,11.111,L
1386,-0.035,-1.890,-0.035,1194588.889,61.111,-1194563.889,894.444,0.000,L
1387,-0.035,-1.765,-0.035,1195452.778,66.667,-1195394.444,863.889,30.556,L
1388,-0.880,-0.060,-0.355,58.333,97.222,333.333,922.222,58.333,L
1389,-0.105,0.805,0.560,58.333,97.222,327.778,925.000,2.778,L
1390,0.630,1.750,1.870,58.333,100.000,327.778,900.000,25.000,L
1391,-0.035,2.365,1.485,1199116.667,1199155.556,1199372.222,916.667,16.667,L
1392,0.795,1.700,1.145,169.444,97.222,319.444,888.889,27.778,L
1393,0.520,1.410,0.655,186.111,94.444,272.222,883.333,5.556,L
1394,0.325,0.810,0.315,41.667,63.889,288.889,886.111,2.778,L
1395,-0.070,0.635,0.195,58.333,102.778,330.556,922.222,36.111,L
1396,-0.010,0.880,0.155,58.333,102.778,338.889,941.667,19.444,L
1397,-0.195,0.750,0.120,58.333,100.000,327.778,877.778,63.889,L
1398,-0.255,0.685,0.075,58.333,94.444,313.889,880.556,2.778,L
1399,-0.375,0.475,-0.010,58.333,97.222,311.111,855.556,25.000,L
1400,-0.585,0.210,-0.205,197.222,91.667,308.333,852.778,2.778,L
1401,-0.285,0.585,0.200,58.333,100.000,325.000,883.333,30.556,L
1402,-0.015,1.025,0.140,58.333,97.222,319.444,919.444,36.111,L
1403,-0.110,0.840,0.075,58.333,97.222,316.667,902.778,16.667,L
1404,-0.190,0.750,0.025,58.333,94.444,313.889,855.556,47.222,L
1405,0.000,0.470,-0.040,44.444,61.111,283.333,883.333,27.778,L
1406,-0.160,0.745,0.195,58.333,97.222,294.444,855.556,27.778,L
1407,-0.190,0.760,0.095,58.333,97.222,316.667,838.889,16.667,L
1408,-0.160,0.675,0.130,58.333,97.222,322.222,897.222,58.333,L
1409,-0.260,0.550,0.080,58.333,97.222,322.222,916.667,19.444,L
1410,-0.125,0.170,0.160,44.444,52.778,261.111,908.333,8.333,L
1411,-0.030,0.340,0.150,44.444,63.889,291.667,872.222,36.111,L
1412,0.190,0.520,0.395,44.444,61.111,280.556,861.111,11.111,L
1413,-0.140,0.625,0.165,58.333,97.222,305.556,844.444,16.667,L
1414,0.145,0.910,0.435,58.333,94.444,322.222,836.111,8.333,L
1415,0.165,0.920,0.450,58.333,100.000,325.000,911.111,75.000,L
1416,0.130,0.455,0.235,44.444,63.889,300.000,911.111,0.000,L
1417,0.000,0.835,0.415,58.333,94.444,302.778,875.000,36.111,L
1418,0.050,1.070,0.295,58.333,100.000,316.667,855.556,19.444,L
1419,0.010,0.925,0.530,58.333,94.444,294.444,875.000,19.444,L
1420,0.620,1.225,0.850,41.667,58.333,277.778,863.889,11.111,L
1421,0.610,1.190,0.690,50.000,66.667,291.667,872.222,8.333,L
1422,0.315,0.795,0.330,44.444,72.222,280.556,911.111,38.889,L
1423,-0.270,0.495,0.005,58.333,100.000,322.222,905.556,5.556,L
1424,-0.490,0.550,-0.280,186.111,100.000,322.222,883.333,22.222,L
1425,-0.555,0.385,-0.260,58.333,97.222,308.333,900.000,16.667,L
1426,-0.715,0.270,-0.450,58.333,97.222,294.444,861.111,38.889,L
1427,-0.570,0.280,-0.105,58.333,94.444,288.889,841.667,19.444,L
1428,-0.305,0.730,-0.115,58.333,100.000,330.556,844.444,2.778,L
1429,-0.315,0.895,-0.065,58.333,100.000,325.000,916.667,72.222,L
1430,-0.270,0.845,0.005,58.333,100.000,325.000,922.222,5.556,L
1431,-0.260,0.610,0.115,58.333,94.444,316.667,888.889,33.333,L
1432,-0.035,0.465,0.250,41.667,58.333,269.444,897.222,8.333,L
1433,0.030,0.485,0.190,41.667,55.556,277.778,855.556,41.667,L
1434,0.135,0.550,0.325,38.889,61.111,258.333,875.000,19.444,L
1435,0.250,0.820,0.290,41.667,66.667,305.556,883.333,8.333,L
1436,-0.065,0.710,0.265,58.333,97.222,327.778,894.444,11.111,L
1437,-0.055,0.660,0.270,58.333,94.444,313.889,897.222,2.778,L
1438,-0.095,0.700,0.290,58.333,100.000,311.111,852.778,44.444,L
1439,-0.055,0.730,0.215,58.333,94.444,316.667,861.111,8.333,L
1440,-0.085,0.615,0.265,58.333,94.444,300.000,833.333,27.778,L
1441,-0.005,1.110,0.320,58.333,94.444,305.556,813.889,19.444,L
1442,0.100,1.055,0.305,58.333,97.222,316.667,855.556,41.667,L
1443,-0.030,0.820,0.260,58.333,102.778,330.556,883.333,27.778,L
1444,-0.020,0.785,0.270,58.333,97.222,302.778,913.889,30.556,L
1445,-0.030,0.750,0.280,58.333,97.222,308.333,847.222,66.667,L
1446,-0.105,0.595,0.335,58.333,94.444,305.556,838.889,8.333,L
1447,0.040,0.370,0.550,47.222,61.111,255.556,833.333,5.556,L
1448,0.285,0.580,0.280,38.889,52.778,258.333,819.444,13.889,L
1449,-0.130,0.285,-0.260,44.444,66.667,291.667,841.667,22.222,L
1450,-0.750,0.035,-0.495,58.333,94.444,316.667,888.889,47.222,L
1451,-0.260,0.200,-0.190,44.444,63.889,283.333,869.444,19.444,L
1452,-0.360,0.455,0.080,58.333,94.444,311.111,822.222,47.222,L
1453,-0.150,0.565,0.210,58.333,97.222,308.333,847.222,25.000,L
1454,-0.030,0.830,0.425,66.667,94.444,297.222,836.111,11.111,L
1455,0.010,1.000,0.410,58.333,94.444,300.000,825.000,11.111,L
1456,0.195,1.160,0.495,58.333,100.000,325.000,841.667,16.667,L
1457,0.350,1.095,0.575,58.333,97.222,322.222,888.889,47.222,L
1458,0.265,1.195,0.525,58.333,100.000,336.111,883.333,5.556,L
1459,0.185,1.155,0.505,58.333,100.000,325.000,877.778,5.556,L
1460,0.065,1.030,0.445,58.333,97.222,305.556,888.889,11.111,L
1461,-0.020,0.655,0.095,58.333,94.444,297.222,855.556,33.333,L
1462,-0.325,0.370,0.205,58.333,91.667,305.556,825.000,30.556,L
1463,0.050,0.765,0.540,58.333,94.444,333.333,888.889,63.889,L
1464,0.195,0.795,0.420,58.333,97.222,311.111,925.000,36.111,L
1465,0.215,0.865,0.460,58.333,100.000,308.333,883.333,41.667,L
1466,0.125,1.030,0.380,58.333,97.222,311.111,850.000,33.333,L
1467,-0.115,0.720,0.105,58.333,100.000,308.333,869.444,19.444,L
1468,-0.100,0.660,0.240,58.333,97.222,322.222,833.333,36.111,L
1469,-0.220,0.530,-0.005,188.889,94.444,319.444,836.111,2.778,L
1470,0.095,0.875,0.295,58.333,97.222,322.222,869.444,33.333,L
1471,0.035,0.950,0.260,58.333,100.000,316.667,886.111,16.667,L
1472,0.040,0.835,0.245,58.333,97.222,313.889,886.111,0.000,L
1473,0.105,0.380,0.155,41.667,61.111,286.111,861.111,25.000,L
1474,0.140,0.475,0.235,41.667,55.556,277.778,855.556,5.556,L
1475,0.120,0.370,0.090,41.667,58.333,263.889,833.333,22.222,L
1476,-0.340,0.285,0.220,58.333,91.667,297.222,800.000,33.333,L
1477,-0.020,0.775,0.190,58.333,100.000,327.778,872.222,72.222,L
1478,0.010,0.840,0.215,58.333,97.222,336.111,872.222,0.000,L
1479,0.115,0.565,0.260,47.222,66.667,291.667,880.556,8.333,L
1480,0.005,0.105,0.090,47.222,61.111,266.667,825.000,55.556,L
1481,0.280,0.675,0.285,41.667,66.667,266.667,816.667,8.333,L
1482,0.205,0.610,0.255,41.667,63.889,286.111,797.222,19.444,L
1483,0.115,0.550,0.215,38.889,63.889,258.333,811.111,13.889,L
1484,0.055,0.370,0.410,47.222,63.889,286.111,836.111,25.000,L
1485,0.150,0.415,0.490,50.000,63.889,286.111,869.444,33.333,L
1486,0.255,0.500,0.445,50.000,69.444,277.778,858.333,11.111,L
1487,0.160,0.235,0.200,52.778,66.667,288.889,825.000,33.333,L
1488,0.260,1.125,0.530,58.333,97.222,311.111,825.000,0.000,L
1489,0.180,1.030,0.415,58.333,94.444,302.778,825.000,0.000,L
1490,-0.010,0.825,0.245,197.222,97.222,291.667,825.000,0.000,L
1491,0.105,0.425,0.120,44.444,63.889,277.778,816.667,8.333,L
1492,-0.180,-0.080,0.015,47.222,55.556,277.778,863.889,47.222,L
1493,-0.130,0.090,-0.040,47.222,63.889,297.222,866.667,2.778,L
1494,-0.175,-0.145,0.020,44.444,63.889,283.333,847.222,19.444,L
1495,-0.040,0.240,0.040,44.444,63.889,263.889,836.111,11.111,L
1496,0.015,0.390,0.015,41.667,63.889,272.222,788.889,47.222,L
1497,0.035,0.220,-0.020,44.444,63.889,275.000,788.889,0.000,L
1498,-0.105,0.555,0.045,58.333,100.000,325.000,777.778,11.111,L
1499,0.095,0.515,0.035,41.667,66.667,288.889,852.778,75.000,L
1500,0.055,0.510,0.030,47.222,66.667,291.667,863.889,11.111,L
1501,-0.195,0.620,0.060,58.333,94.444,300.000,838.889,25.000,L
1502,-0.185,0.725,0.105,58.333,97.222,316.667,816.667,22.222,L
1503,0.045,0.485,0.225,44.444,63.889,283.333,838.889,22.222,L
1504,0.100,1.020,0.420,58.333,97.222,308.333,838.889,0.000,L
1505,0.215,1.025,0.415,58.333,97.222,319.444,805.556,33.333,L
1506,0.100,0.505,0.085,41.667,63.889,288.889,866.667,61.111,L
1507,-0.040,0.290,-0.010,44.444,69.444,297.222,875.000,8.333,L
1508,-0.370,0.470,-0.040,58.333,94.444,297.222,880.556,5.556,L
1509,-0.040,0.495,-0.040,41.667,63.889,272.222,847.222,33.333,L
1510,-0.075,0.405,0.000,47.222,66.667,275.000,844.444,2.778,L
1511,-0.050,0.305,0.035,41.667,63.889,275.000,813.889,30.556,L
1512,-0.170,0.565,0.060,58.333,97.222,313.889,794.444,19.444,L
1513,0.135,0.690,0.080,44.444,72.222,305.556,863.889,69.444,L
1514,0.105,0.700,0.140,44.444,66.667,291.667,894.444,30.556,L
1515,0.175,0.705,0.335,44.444,66.667,275.000,869.444,25.000,L
1516,0.170,0.605,0.330,41.667,63.889,275.000,816.667,52.778,L
1517,0.035,0.380,0.190,44.444,58.333,280.556,841.667,25.000,L
1518,0.095,0.465,0.135,38.889,58.333,263.889,813.889,27.778,L
1519,-0.050,0.775,0.365,58.333,94.444,302.778,797.222,16.667,L
1520,0.150,1.070,0.380,58.333,100.000,325.000,863.889,66.667,L
1521,0.405,0.945,0.385,44.444,66.667,275.000,866.667,2.778,L
1522,0.310,0.715,0.430,44.444,61.111,266.667,858.333,8.333,L
1523,0.285,0.615,0.275,44.444,63.889,286.111,830.556,27.778,L
1524,-0.065,0.830,0.165,58.333,97.222,305.556,850.000,19.444,L
1525,-0.350,0.485,0.035,58.333,100.000,297.222,811.111,38.889,L
1526,0.040,0.280,0.215,38.889,58.333,261.111,808.333,2.778,L
1527,0.525,0.765,0.430,44.444,69.444,286.111,833.333,25.000,L
1528,0.485,0.720,0.450,44.444,63.889,286.111,863.889,30.556,L
1529,0.285,0.660,0.275,41.667,69.444,288.889,863.889,0.000,L
1530,0.195,0.545,0.245,47.222,69.444,280.556,827.778,36.111,L
1531,0.065,0.320,0.000,41.667,63.889,272.222,822.222,5.556,L
1532,0.110,0.210,0.465,44.444,58.333,263.889,788.889,33.333,L
1533,0.115,0.865,0.385,58.333,100.000,300.000,800.000,11.111,L
1534,0.505,0.880,0.295,44.444,69.444,300.000,816.667,16.667,L
1535,0.045,0.685,0.245,58.333,94.444,313.889,852.778,36.111,L
1536,0.215,0.590,0.230,41.667,63.889,286.111,841.667,11.111,L
1537,-0.270,0.450,0.115,194.444,88.889,297.222,825.000,16.667,L
1538,0.110,0.415,0.125,41.667,61.111,266.667,833.333,8.333,L
1539,0.130,0.405,0.140,41.667,61.111,263.889,813.889,19.444,L
1540,0.160,0.540,0.140,41.667,66.667,275.000,816.667,2.778,L
1541,-0.195,0.530,0.060,58.333,100.000,311.111,788.889,27.778,L
1542,0.210,0.600,0.200,44.444,69.444,280.556,852.778,63.889,L
1543,0.205,0.645,0.195,44.444,69.444,277.778,866.667,13.889,L
1544,0.280,0.500,0.430,41.667,61.111,263.889,875.000,8.333,L
1545,0.215,0.945,0.470,58.333,100.000,322.222,827.778,47.222,L
1546,0.075,0.975,0.420,58.333,97.222,297.222,844.444,16.667,L
1547,0.020,0.765,0.310,58.333,97.222,302.778,827.778,16.667,L
1548,-0.155,0.650,0.200,58.333,94.444,311.111,825.000,2.778,L
1549,0.035,0.360,0.065,44.444,66.667,291.667,900.000,75.000,L
1550,0.340,0.580,0.310,47.222,66.667,280.556,900.000,0.000,L
1551,-0.030,0.780,0.280,58.333,100.000,294.444,866.667,33.333,L
1552,-0.100,0.720,0.245,58.333,97.222,313.889,844.444,22.222,L
1553,0.260,0.685,0.300,41.667,66.667,277.778,855.556,11.111,L
1554,0.150,0.455,0.245,41.667,63.889,261.111,850.000,5.556,L
1555,0.030,0.205,0.175,44.444,63.889,272.222,822.222,27.778,L
1556,0.195,0.525,0.250,47.222,72.222,302.778,855.556,33.333,L
1557,0.210,0.575,0.250,47.222,66.667,294.444,875.000,19.444,L
1558,0.200,0.640,0.175,44.444,58.333,247.222,861.111,13.889,L
1559,-0.135,0.640,0.095,58.333,100.000,311.111,836.111,25.000,L
1560,0.170,0.430,0.290,41.667,63.889,272.222,838.889,2.778,L
1561,0.260,0.655,0.275,44.444,66.667,275.000,816.667,22.222,L
1562,0.110,0.570,0.195,41.667,66.667,275.000,802.778,13.889,L
1563,-0.025,0.340,0.155,52.778,69.444,294.444,880.556,77.778,L
1564,0.085,0.525,0.150,47.222,66.667,291.667,900.000,19.444,L
1565,0.035,0.415,0.170,47.222,66.667,269.444,891.667,8.333,L
1566,0.000,0.450,0.215,50.000,69.444,275.000,825.000,66.667,L
1567,-0.065,0.195,0.070,50.000,66.667,275.000,850.000,25.000,L
1568,0.060,0.425,0.180,41.667,63.889,275.000,802.778,47.222,L
1569,0.065,0.390,0.110,47.222,66.667,275.000,813.889,11.111,L
1570,-0.060,0.330,0.095,47.222,63.889,291.667,883.333,69.444,L
1571,-0.005,0.410,0.120,44.444,66.667,286.111,872.222,11.111,L
1572,0.180,0.590,0.195,47.222,69.444,277.778,858.333,13.889,L
1573,0.300,0.610,0.380,47.222,63.889,288.889,836.111,22.222,L
1574,0.230,0.485,0.245,44.444,58.333,269.444,850.000,13.889,L
1575,-0.025,0.600,0.220,58.333,94.444,297.222,825.000,25.000,L
1576,-0.170,0.575,0.340,191.667,94.444,305.556,797.222,27.778,L
1577,0.325,0.480,0.580,47.222,66.667,291.667,863.889,66.667,L
1578,0.360,0.600,0.290,41.667,63.889,272.222,866.667,2.778,L
1579,-0.040,0.145,0.000,47.222,63.889,277.778,877.778,11.111,L
1580,-0.700,-0.580,-0.680,44.444,61.111,255.556,819.444,58.333,L
1581,-0.430,-0.175,-0.190,38.889,61.111,269.444,800.000,19.444,L
1582,-0.480,0.130,-0.110,197.222,94.444,291.667,783.333,16.667,L
1583,-0.175,-0.240,0.135,47.222,58.333,252.778,794.444,11.111,L
1584,0.520,0.735,0.675,41.667,66.667,275.000,791.667,2.778,L
1585,0.540,0.730,0.555,47.222,63.889,275.000,827.778,36.111,L
1586,0.175,0.350,0.180,47.222,66.667,277.778,802.778,25.000,L
1587,0.105,-0.760,0.060,30.556,2.778,205.556,813.889,11.111,L
1588,-0.230,-0.075,-0.045,44.444,58.333,244.444,766.667,47.222,L
1589,-0.360,-0.935,-0.145,77.778,61.111,258.333,816.667,50.000,L
1590,-0.395,-0.375,-0.065,44.444,61.111,266.667,741.667,75.000,L
1591,-0.260,-0.120,-0.045,47.222,63.889,269.444,747.222,5.556,L
1592,-0.240,-0.210,-0.035,50.000,63.889,275.000,816.667,69.444,L
1593,-0.240,-0.170,0.020,44.444,61.111,266.667,805.556,11.111,L
1594,-0.070,0.180,0.115,47.222,66.667,258.333,825.000,19.444,L
1595,0.035,0.290,0.150,47.222,66.667,275.000,786.111,38.889,L
1596,0.010,0.155,0.075,41.667,55.556,250.000,808.333,22.222,L
1597,-0.160,0.695,0.205,58.333,97.222,294.444,775.000,33.333,L
1598,-0.155,0.630,0.205,58.333,94.444,297.222,791.667,16.667,L
1599,-0.055,0.735,0.300,58.333,97.222,333.333,794.444,2.778,L
1600,0.095,0.395,0.305,44.444,61.111,283.333,872.222,77.778,L
1601,0.080,0.425,0.275,41.667,63.889,275.000,875.000,2.778,L
1602,-0.100,-0.760,0.285,75.000,2.778,205.556,861.111,13.889,L
1603,-0.005,0.130,0.125,41.667,61.111,266.667,794.444,66.667,L
1604,0.025,-0.560,0.305,33.333,2.778,211.111,847.222,52.778,L
1605,0.095,0.230,0.145,41.667,58.333,263.889,769.444,77.778,L
1606,-0.035,0.035,0.220,47.222,66.667,275.000,775.000,5.556,L
1607,0.250,0.445,0.360,44.444,63.889,288.889,805.556,30.556,L
1608,0.140,0.430,0.280,47.222,72.222,286.111,825.000,19.444,L
1609,0.150,0.285,0.325,44.444,61.111,247.222,813.889,11.111,L
1610,0.115,0.265,0.185,47.222,66.667,261.111,775.000,38.889,L
1611,-0.040,0.140,0.225,47.222,63.889,250.000,783.333,8.333,L
1612,-0.205,0.010,0.035,47.222,63.889,269.444,752.778,30.556,L
1613,-0.235,0.005,0.125,44.444,58.333,230.556,758.333,5.556,L
1614,-0.180,-0.840,0.200,27.778,2.778,288.889,744.444,13.889,L
1615,-0.310,-0.195,-0.020,47.222,72.222,286.111,855.556,111.111,L
1616,0.085,0.450,0.140,41.667,75.000,286.111,797.222,58.333,L
1617,0.140,0.475,0.065,41.667,61.111,272.222,794.444,2.778,L
1618,0.190,0.515,0.300,44.444,69.444,283.333,775.000,19.444,L
1619,-0.010,0.165,0.370,55.556,66.667,269.444,780.556,5.556,L
1620,0.020,0.175,0.225,52.778,61.111,272.222,763.889,16.667,L
1621,-0.050,0.250,0.065,44.444,66.667,277.778,758.333,5.556,L
1622,0.085,0.460,0.035,44.444,72.222,286.111,827.778,69.444,L
1623,0.000,0.345,-0.045,44.444,69.444,291.667,811.111,16.667,L
1624,0.150,0.375,0.120,44.444,69.444,288.889,800.000,11.111,L
1625,-0.120,0.685,0.165,58.333,100.000,308.333,763.889,36.111,L
1626,0.150,0.455,0.200,44.444,66.667,283.333,808.333,44.444,L
1627,0.180,0.550,0.190,41.667,61.111,263.889,772.222,36.111,L
1628,-0.195,0.505,0.095,58.333,100.000,291.667,766.667,5.556,L
1629,0.210,0.510,0.220,41.667,66.667,286.111,741.667,25.000,L
1630,0.270,0.680,0.225,44.444,66.667,288.889,819.444,77.778,L
1631,0.155,0.830,0.315,58.333,97.222,327.778,805.556,13.889,L
1632,-0.065,0.785,0.170,58.333,100.000,294.444,816.667,11.111,L
1633,0.245,0.630,0.170,44.444,66.667,288.889,794.444,22.222,L
1634,-0.035,0.800,0.195,58.333,97.222,302.778,780.556,13.889,L
1635,0.055,0.410,0.015,44.444,63.889,272.222,766.667,13.889,L
1636,-0.335,0.340,0.040,58.333,94.444,302.778,763.889,2.778,L
1637,-0.215,0.625,0.000,58.333,102.778,325.000,813.889,50.000,L
1638,-0.220,0.490,0.060,58.333,102.778,330.556,827.778,13.889,L
1639,-0.195,0.600,0.080,58.333,97.222,311.111,819.444,8.333,L
1640,-0.020,0.405,0.015,38.889,63.889,286.111,772.222,47.222,L
1641,0.035,0.300,0.045,44.444,63.889,266.667,808.333,36.111,L
1642,-0.155,0.560,0.065,58.333,97.222,311.111,769.444,38.889,L
1643,-0.180,0.575,0.090,58.333,97.222,308.333,772.222,2.778,L
1644,0.050,0.400,0.035,44.444,63.889,280.556,761.111,11.111,L
1645,0.060,0.320,0.065,44.444,69.444,280.556,800.000,38.889,L
1646,0.055,0.510,0.010,44.444,69.444,280.556,802.778,2.778,L
1647,-0.005,0.455,0.005,47.222,66.667,277.778,816.667,13.889,L
1648,-0.035,0.435,0.050,44.444,66.667,277.778,786.111,30.556,L
1649,-0.035,0.330,-0.035,44.444,66.667,275.000,783.333,2.778,L
1650,-0.260,0.335,0.030,58.333,94.444,300.000,755.556,27.778,L
1651,-0.195,0.650,0.140,58.333,97.222,288.889,761.111,5.556,L
1652,-0.080,0.660,0.115,58.333,97.222,305.556,783.333,22.222,L
1653,0.150,0.690,0.140,44.444,66.667,291.667,833.333,50.000,L
1654,0.110,0.620,0.120,44.444,69.444,294.444,830.556,2.778,L
1655,-0.230,0.600,0.105,58.333,86.111,300.000,808.333,22.222,L
1656,0.075,0.445,0.045,41.667,66.667,266.667,805.556,2.778,L
1657,-0.125,0.530,0.160,58.333,97.222,300.000,780.556,25.000,L
1658,0.020,0.775,0.280,58.333,97.222,305.556,794.444,13.889,L
1659,-0.040,0.655,0.210,58.333,94.444,305.556,769.444,25.000,L
1660,0.040,0.435,0.025,44.444,69.444,272.222,830.556,61.111,L
1661,0.100,0.270,0.105,44.444,69.444,275.000,816.667,13.889,L
1662,0.115,0.530,0.100,41.667,66.667,272.222,833.333,16.667,L
1663,0.105,0.505,0.165,41.667,66.667,275.000,786.111,47.222,L
1664,-0.140,0.580,0.175,58.333,97.222,302.778,813.889,27.778,L
1665,-0.060,0.755,0.270,58.333,97.222,300.000,800.000,13.889,L
1666,-0.095,0.840,0.165,58.333,97.222,288.889,783.333,16.667,L
1667,0.110,0.595,0.125,41.667,63.889,275.000,800.000,16.667,L
1668,0.040,0.440,0.005,41.667,66.667,288.889,852.778,52.778,L
1669,0.130,0.340,0.060,44.444,69.444,283.333,855.556,2.778,L
1670,0.070,0.720,0.195,58.333,97.222,313.889,813.889,41.667,L
1671,-0.120,0.755,0.065,58.333,97.222,308.333,808.333,5.556,L
1672,-0.130,0.715,0.105,58.333,94.444,294.444,816.667,8.333,L
1673,-0.220,0.580,0.150,58.333,97.222,294.444,797.222,19.444,L
1674,0.145,0.475,0.165,41.667,63.889,286.111,811.111,13.889,L
1675,0.205,0.640,0.215,44.444,72.222,286.111,886.111,75.000,L
1676,-0.005,0.925,0.145,58.333,100.000,322.222,858.333,27.778,L
1677,-0.090,0.935,0.180,58.333,91.667,297.222,841.667,16.667,L
1678,-0.040,0.945,0.085,58.333,100.000,305.556,841.667,0.000,L
1679,-0.010,0.740,0.140,58.333,97.222,305.556,833.333,8.333,L
1680,0.190,0.520,0.135,44.444,61.111,263.889,808.333,25.000,L
1681,0.100,0.510,0.185,47.222,69.444,280.556,788.889,19.444,L
1682,0.060,0.495,0.025,52.778,69.444,291.667,855.556,66.667,L
1683,-0.105,0.765,0.005,58.333,100.000,311.111,844.444,11.111,L
1684,-0.115,0.945,0.150,58.333,97.222,286.111,861.111,16.667,L
1685,0.050,0.980,0.045,58.333,97.222,305.556,844.444,16.667,L
1686,-0.135,1.000,0.065,58.333,97.222,305.556,816.667,27.778,L
1687,-0.100,0.810,0.060,58.333,97.222,300.000,802.778,13.889,L
1688,-0.200,0.655,0.030,58.333,97.222,316.667,783.333,19.444,L
1689,0.095,0.525,0.065,47.222,69.444,297.222,858.333,75.000,L
1690,0.085,0.495,0.040,47.222,69.444,294.444,836.111,22.222,L
1691,0.170,0.380,0.145,44.444,66.667,283.333,808.333,27.778,L
1692,0.230,0.590,0.150,41.667,72.222,286.111,783.333,25.000,L
1693,-0.085,0.505,0.100,58.333,94.444,294.444,805.556,22.222,L
1694,-0.145,0.575,0.115,58.333,100.000,297.222,780.556,25.000,L
1695,-0.075,0.625,0.140,58.333,97.222,297.222,780.556,0.000,L
1696,0.045,0.440,0.050,47.222,69.444,277.778,772.222,8.333,L
1697,0.270,0.595,0.165,47.222,69.444,280.556,819.444,47.222,L
1698,0.010,0.915,0.165,58.333,100.000,319.444,819.444,0.000,L
1699,0.265,0.625,0.280,41.667,63.889,269.444,836.111,16.667,L
1700,0.000,0.330,0.225,47.222,66.667,272.222,816.667,19.444,L
1701,-0.305,0.515,0.020,197.222,97.222,294.444,808.333,8.333,L
1702,-0.085,0.280,0.015,41.667,63.889,255.556,791.667,16.667,L
1703,0.005,0.190,-0.050,44.444,66.667,272.222,786.111,5.556,L
1704,-0.050,0.510,0.055,58.333,100.000,325.000,822.222,36.111,L
1705,-0.055,0.610,0.050,58.333,102.778,316.667,858.333,36.111,L
1706,-0.240,0.525,-0.010,58.333,100.000,300.000,855.556,2.778,L
1707,-0.205,0.380,0.210,58.333,97.222,302.778,808.333,47.222,L
1708,-0.125,0.660,0.130,58.333,97.222,302.778,800.000,8.333,L
1709,-0.130,0.675,0.035,58.333,97.222,305.556,830.556,30.556,L
1710,-0.265,0.465,0.255,58.333,91.667,288.889,819.444,11.111,L
1711,0.215,0.650,0.190,44.444,69.444,275.000,836.111,16.667,L
1712,0.070,0.505,0.135,41.667,66.667,277.778,880.556,44.444,L
1713,0.100,0.590,0.175,41.667,66.667,286.111,886.111,5.556,L
1714,0.160,0.615,0.160,41.667,63.889,288.889,833.333,52.778,L
1715,0.035,0.510,0.165,41.667,61.111,275.000,863.889,30.556,L
1716,0.000,0.445,0.175,41.667,63.889,275.000,833.333,30.556,L
1717,0.050,0.405,0.135,41.667,61.111,252.778,816.667,16.667,L
1718,0.220,0.360,0.275,44.444,63.889,283.333,822.222,5.556,L
1719,0.085,0.800,0.145,58.333,97.222,333.333,880.556,58.333,L
1720,0.155,0.720,0.175,44.444,66.667,288.889,883.333,2.778,L
1721,0.125,0.535,0.085,41.667,63.889,272.222,833.333,50.000,L
1722,0.020,0.880,0.265,58.333,97.222,300.000,819.444,13.889,L
1723,-0.065,0.775,0.235,58.333,94.444,300.000,813.889,5.556,L
1724,-0.160,0.735,0.210,58.333,94.444,286.111,816.667,2.778,L
1725,0.150,0.590,0.280,44.444,63.889,288.889,847.222,30.556,L
1726,0.185,0.675,0.305,41.667,63.889,275.000,883.333,36.111,L
1727,0.180,0.500,0.170,41.667,61.111,283.333,872.222,11.111,L
1728,0.215,0.435,0.350,44.444,66.667,286.111,830.556,41.667,L
1729,-0.010,0.825,0.200,58.333,100.000,311.111,858.333,27.778,L
1730,-0.160,0.725,0.165,197.222,100.000,305.556,836.111,22.222,L
1731,-0.210,0.670,0.145,58.333,91.667,283.333,822.222,13.889,L
1732,-0.155,0.645,0.140,58.333,100.000,308.333,813.889,8.333,L
1733,-0.185,0.530,0.090,58.333,94.444,311.111,875.000,61.111,L
1734,0.215,0.355,0.300,47.222,63.889,283.333,850.000,25.000,L
1735,-0.060,0.865,0.220,58.333,102.778,327.778,836.111,13.889,L
1736,0.260,0.695,0.325,41.667,63.889,269.444,858.333,22.222,L
1737,-0.055,0.835,0.320,58.333,94.444,297.222,819.444,38.889,L
1738,0.320,0.645,0.340,44.444,58.333,261.111,802.778,16.667,L
1739,0.305,0.690,0.235,44.444,72.222,280.556,800.000,2.778,L
1740,0.290,0.585,0.335,41.667,66.667,275.000,844.444,44.444,L
1741,0.250,0.645,0.300,41.667,63.889,275.000,850.000,5.556,L
1742,0.140,0.650,0.240,38.889,55.556,244.444,838.889,11.111,L
1743,0.030,0.465,0.165,44.444,66.667,258.333,825.000,13.889,L
1744,0.015,0.655,0.315,58.333,97.222,308.333,800.000,25.000,L
1745,0.040,1.010,0.265,58.333,97.222,316.667,819.444,19.444,L
1746,-0.070,0.875,0.185,58.333,97.222,311.111,822.222,2.778,L
1747,-0.070,0.790,0.235,58.333,97.222,319.444,875.000,52.778,L
1748,0.175,0.790,0.245,41.667,66.667,288.889,883.333,8.333,L
1749,-0.080,0.700,0.250,58.333,94.444,300.000,888.889,5.556,L
1750,0.175,0.720,0.260,41.667,63.889,283.333,863.889,25.000,L
1751,-0.130,0.760,0.295,58.333,97.222,294.444,858.333,5.556,L
1752,-0.095,0.730,0.270,58.333,97.222,291.667,833.333,25.000,L
1753,0.155,0.535,0.180,41.667,63.889,280.556,830.556,2.778,L
1754,0.150,0.575,0.225,44.444,66.667,294.444,872.222,41.667,L
1755,0.065,0.725,0.335,58.333,100.000,319.444,902.778,30.556,L
1756,0.005,1.005,0.310,58.333,94.444,297.222,888.889,13.889,L
1757,-0.045,0.875,0.280,58.333,97.222,311.111,852.778,36.111,L
1758,-0.155,0.685,0.190,58.333,97.222,300.000,850.000,2.778,L
1759,0.090,0.610,0.205,41.667,63.889,283.333,863.889,13.889,L
1760,0.095,0.625,0.220,41.667,66.667,288.889,830.556,33.333,L
1761,0.080,0.655,0.215,44.444,66.667,277.778,894.444,63.889,L
1762,-0.215,0.570,0.290,58.333,100.000,308.333,897.222,2.778,L
1763,0.000,0.775,0.290,58.333,91.667,294.444,880.556,16.667,L
1764,0.230,0.635,0.265,44.444,63.889,283.333,850.000,30.556,L
1765,-0.120,0.590,0.125,58.333,94.444,308.333,852.778,2.778,L
1766,0.190,0.485,0.265,41.667,63.889,275.000,819.444,33.333,L
1767,0.080,0.865,0.320,58.333,100.000,313.889,813.889,5.556,L
1768,0.410,0.890,0.330,41.667,69.444,288.889,877.778,63.889,L
1769,0.255,0.735,0.345,44.444,63.889,286.111,902.778,25.000,L
1770,0.205,0.725,0.320,41.667,63.889,258.333,872.222,30.556,L
1771,0.235,0.715,0.340,44.444,58.333,263.889,847.222,25.000,L
1772,0.190,0.620,0.215,38.889,63.889,255.556,838.889,8.333,L
1773,0.245,0.465,0.375,44.444,61.111,266.667,808.333,30.556,L
1774,0.020,0.815,0.275,58.333,100.000,322.222,805.556,2.778,L
1775,0.225,0.745,0.235,44.444,69.444,297.222,894.444,88.889,L
1776,0.160,0.655,0.195,44.444,63.889,283.333,883.333,11.111,L
1777,-0.135,0.880,0.190,58.333,97.222,297.222,866.667,16.667,L
1778,0.070,0.555,0.140,41.667,61.111,280.556,833.333,33.333,L
1779,0.105,0.430,0.100,44.444,69.444,277.778,852.778,19.444,L
1780,-0.165,0.575,0.150,58.333,97.222,319.444,822.222,30.556,L
1781,-0.125,0.655,0.190,58.333,94.444,308.333,808.333,13.889,L
1782,0.135,0.655,0.225,44.444,66.667,294.444,872.222,63.889,L
1783,0.170,0.610,0.135,41.667,66.667,283.333,891.667,19.444,L
1784,0.370,0.665,0.340,41.667,63.889,258.333,847.222,44.444,L
1785,0.390,0.820,0.340,44.444,66.667,288.889,833.333,13.889,L
1786,-0.025,0.795,0.230,58.333,94.444,302.778,850.000,16.667,L
1787,-0.135,0.560,0.300,58.333,94.444,300.000,819.444,30.556,L
1788,-0.035,0.775,0.275,58.333,97.222,322.222,808.333,11.111,L
1789,0.210,0.730,0.260,41.667,75.000,300.000,908.333,100.000,L
1790,0.165,0.705,0.225,41.667,66.667,291.667,894.444,13.889,L
1791,-0.095,0.810,0.240,58.333,97.222,286.111,883.333,11.111,L
1792,-0.185,0.690,0.200,58.333,97.222,308.333,847.222,36.111,L
1793,-0.265,0.515,0.095,58.333,97.222,302.778,872.222,25.000,L
1794,-0.190,0.695,0.105,58.333,102.778,308.333,825.000,47.222,L
1795,0.315,0.630,0.355,44.444,66.667,280.556,797.222,27.778,L
1796,0.265,0.735,0.160,44.444,66.667,283.333,863.889,66.667,L
1797,-0.015,0.810,0.195,58.333,97.222,308.333,875.000,11.111,L
1798,-0.070,0.800,0.120,58.333,100.000,302.778,863.889,11.111,L
1799,-0.085,0.825,0.145,58.333,100.000,325.000,850.000,13.889,L
1800,0.070,0.410,0.005,44.444,63.889,277.778,838.889,11.111,L
1801,0.020,0.220,0.235,44.444,63.889,272.222,786.111,52.778,L
1802,0.080,0.910,0.540,58.333,91.667,311.111,788.889,2.778,L
1803,0.220,0.640,0.175,44.444,66.667,286.111,844.444,55.556,L
1804,-0.215,0.055,-0.155,50.000,72.222,288.889,852.778,8.333,L
1805,-0.250,0.055,-0.070,50.000,69.444,294.444,841.667,11.111,L
1806,-0.205,0.160,-0.125,44.444,63.889,283.333,808.333,33.333,L
1807,-0.265,0.080,-0.050,44.444,63.889,266.667,816.667,8.333,L
1808,-0.205,0.165,0.015,44.444,63.889,272.222,791.667,25.000,L
1809,-0.110,0.175,0.095,47.222,61.111,261.111,813.889,22.222,L
1810,-0.035,0.285,0.035,47.222,66.667,288.889,813.889,0.000,L
1811,0.125,0.275,0.245,47.222,63.889,272.222,844.444,30.556,L
1812,0.310,0.770,0.290,47.222,69.444,288.889,850.000,5.556,L
1813,0.275,0.725,0.260,47.222,72.222,286.111,836.111,13.889,L
1814,0.145,0.600,0.175,41.667,69.444,283.333,850.000,13.889,L
1815,0.180,0.600,0.115,44.444,66.667,280.556,836.111,13.889,L
1816,-0.160,0.470,0.220,58.333,97.222,291.667,819.444,16.667,L
1817,0.335,0.710,0.310,44.444,66.667,275.000,822.222,2.778,L
1818,0.105,0.910,0.205,58.333,100.000,313.889,875.000,52.778,L
1819,0.135,0.485,-0.050,47.222,69.444,294.444,888.889,13.889,L
1820,-0.380,0.405,-0.005,194.444,91.667,313.889,841.667,47.222,L
1821,-0.160,0.180,-0.085,41.667,63.889,272.222,844.444,2.778,L
1822,-0.200,0.165,-0.070,44.444,63.889,266.667,822.222,22.222,L
1823,0.110,0.465,0.075,44.444,66.667,263.889,802.778,19.444,L
1824,-0.025,0.345,0.050,47.222,69.444,291.667,786.111,16.667,L
1825,0.015,0.395,0.105,50.000,69.444,297.222,883.333,97.222,L
1826,0.165,0.530,0.090,47.222,72.222,286.111,863.889,19.444,L
1827,0.080,0.435,0.125,41.667,61.111,252.778,844.444,19.444,L
1828,0.300,0.735,0.265,44.444,69.444,277.778,808.333,36.111,L
1829,0.255,0.710,0.270,44.444,66.667,288.889,838.889,30.556,L
1830,0.100,0.485,0.175,38.889,63.889,272.222,813.889,25.000,L
1831,-0.095,0.715,0.150,58.333,97.222,305.556,802.778,11.111,L
1832,0.130,0.595,0.150,44.444,69.444,288.889,852.778,50.000,L
1833,0.055,0.520,0.190,47.222,66.667,275.000,877.778,25.000,L
1834,0.025,0.395,0.100,47.222,66.667,261.111,866.667,11.111,L
1835,0.010,0.340,0.195,47.222,69.444,280.556,827.778,38.889,L
1836,0.080,0.405,0.120,47.222,66.667,275.000,822.222,5.556,L
1837,-0.045,0.705,0.190,58.333,94.444,302.778,788.889,33.333,L
1838,-0.210,0.800,0.070,186.111,97.222,308.333,777.778,11.111,L
1839,-0.170,0.685,0.025,58.333,108.333,333.333,855.556,77.778,L
1840,0.280,0.760,0.265,44.444,69.444,291.667,858.333,2.778,L
1841,0.010,0.830,0.235,58.333,97.222,313.889,861.111,2.778,L
1842,0.025,0.905,0.325,58.333,94.444,316.667,813.889,47.222,L
1843,0.395,0.865,0.465,41.667,63.889,269.444,833.333,19.444,L
1844,0.400,0.725,0.425,47.222,61.111,280.556,805.556,27.778,L
1845,0.210,0.605,0.175,41.667,66.667,261.111,825.000,19.444,L
1846,0.200,0.650,0.180,47.222,69.444,294.444,811.111,13.889,L
1847,0.065,0.485,0.075,47.222,66.667,277.778,866.667,55.556,L
1848,-0.030,0.385,0.105,47.222,69.444,288.889,861.111,5.556,L
1849,0.000,0.490,0.060,47.222,72.222,294.444,841.667,19.444,L
1850,-0.005,0.355,0.140,44.444,63.889,275.000,847.222,5.556,L
1851,-0.260,0.510,0.125,58.333,94.444,286.111,825.000,22.222,L
1852,-0.185,0.645,0.165,58.333,94.444,291.667,808.333,16.667,L
1853,0.145,0.545,0.170,41.667,66.667,272.222,822.222,13.889,L
1854,0.085,0.450,0.285,50.000,69.444,291.667,863.889,41.667,L
1855,0.160,0.585,0.280,47.222,72.222,308.333,875.000,11.111,L
1856,-0.065,0.780,0.305,58.333,94.444,319.444,833.333,41.667,L
1857,0.120,0.525,0.340,47.222,66.667,275.000,858.333,25.000,L
1858,0.225,0.725,0.420,47.222,63.889,275.000,830.556,27.778,L
1859,0.140,0.610,0.345,47.222,66.667,272.222,838.889,8.333,L
1860,0.200,0.545,0.350,44.444,63.889,288.889,816.667,22.222,L
1861,0.225,0.670,0.330,41.667,66.667,288.889,866.667,50.000,L
1862,0.095,0.520,0.285,41.667,61.111,280.556,855.556,11.111,L
1863,0.035,0.380,0.070,41.667,50.000,250.000,847.222,8.333,L
1864,0.185,0.430,0.265,47.222,69.444,277.778,808.333,38.889,L
1865,-0.040,0.720,0.250,58.333,97.222,302.778,822.222,13.889,L
1866,-0.070,0.695,0.290,58.333,94.444,305.556,813.889,8.333,L
1867,-0.150,0.585,0.170,58.333,94.444,311.111,794.444,19.444,L
1868,0.030,0.445,0.150,44.444,66.667,288.889,863.889,69.444,L
1869,0.040,0.485,0.180,44.444,69.444,294.444,888.889,25.000,L
1870,-0.160,0.570,0.115,58.333,94.444,300.000,861.111,27.778,L
1871,0.080,0.400,0.160,44.444,63.889,277.778,822.222,38.889,L
1872,-0.150,0.685,0.175,58.333,97.222,300.000,830.556,8.333,L
1873,-0.120,0.695,0.210,58.333,97.222,305.556,825.000,5.556,L
1874,0.140,0.650,0.205,41.667,63.889,288.889,800.000,25.000,L
1875,0.170,0.605,0.150,44.444,69.444,300.000,872.222,72.222,L
1876,-0.150,0.695,0.150,58.333,100.000,325.000,872.222,0.000,L
1877,-0.195,0.605,0.090,58.333,97.222,288.889,869.444,2.778,L
1878,-0.185,0.540,0.105,58.333,94.444,311.111,827.778,41.667,L
1879,0.000,0.560,0.090,41.667,69.444,280.556,852.778,25.000,L
1880,0.030,0.465,0.040,41.667,63.889,269.444,825.000,27.778,L
1881,-0.350,0.475,0.145,58.333,97.222,305.556,797.222,27.778,L
1882,-0.180,0.705,0.145,58.333,100.000,327.778,858.333,61.111,L
1883,-0.150,0.660,0.170,58.333,97.222,308.333,886.111,27.778,L
1884,-0.065,0.700,0.230,58.333,97.222,305.556,886.111,0.000,L
1885,0.205,0.660,0.260,44.444,66.667,291.667,841.667,44.444,L
1886,-0.120,0.695,0.235,58.333,97.222,302.778,844.444,2.778,L
1887,-0.190,0.615,0.215,58.333,97.222,297.222,825.000,19.444,L
1888,-0.205,0.625,0.220,58.333,94.444,316.667,811.111,13.889,L
1889,0.140,0.445,0.245,47.222,69.444,297.222,872.222,61.111,L
1890,0.095,0.330,0.320,50.000,66.667,275.000,875.000,2.778,L
1891,0.045,0.395,0.300,44.444,63.889,269.444,858.333,16.667,L
1892,0.050,0.390,0.275,44.444,69.444,277.778,816.667,41.667,L
1893,0.025,0.485,0.210,41.667,63.889,266.667,844.444,27.778,L
1894,-0.270,0.455,-0.010,58.333,97.222,313.889,816.667,27.778,L
1895,-0.105,0.755,0.215,58.333,100.000,297.222,805.556,11.111,L
1896,-0.110,0.600,0.105,58.333,102.778,313.889,830.556,25.000,L
1897,0.095,0.205,0.170,47.222,66.667,286.111,866.667,36.111,L
1898,0.135,0.560,0.250,47.222,66.667,294.444,858.333,8.333,L
1899,0.240,0.635,0.205,44.444,72.222,297.222,844.444,13.889,L
1900,-0.090,0.175,-0.055,50.000,63.889,269.444,841.667,2.778,L
1901,-0.015,0.150,0.180,44.444,66.667,266.667,786.111,55.556,L
1902,-0.035,0.165,0.170,44.444,63.889,241.667,813.889,27.778,L
1903,0.110,0.445,0.135,47.222,69.444,288.889,783.333,30.556,L
1904,0.205,0.525,0.245,44.444,72.222,297.222,825.000,41.667,L
1905,0.115,0.465,0.170,44.444,75.000,302.778,847.222,22.222,L
1906,-0.075,0.330,0.170,38.889,52.778,263.889,830.556,16.667,L
1907,-0.130,0.110,0.025,50.000,61.111,263.889,822.222,8.333,L
1908,0.055,0.390,0.130,44.444,63.889,272.222,775.000,47.222,L
1909,0.055,0.440,0.110,44.444,66.667,283.333,788.889,13.889,L
1910,-0.030,0.255,0.160,44.444,63.889,286.111,783.333,5.556,L
1911,-0.025,0.175,0.240,50.000,66.667,288.889,830.556,47.222,L
1912,-0.050,0.015,0.165,50.000,61.111,280.556,822.222,8.333,L
1913,-0.055,0.100,0.240,44.444,63.889,272.222,827.778,5.556,L
1914,0.035,0.305,0.245,44.444,63.889,272.222,780.556,47.222,L
1915,0.000,0.400,0.165,44.444,66.667,275.000,797.222,16.667,L
1916,-0.015,0.260,0.045,47.222,63.889,275.000,780.556,16.667,L
1917,-0.145,0.560,0.155,58.333,97.222,286.111,758.333,22.222,L
1918,0.115,0.470,0.085,44.444,69.444,280.556,772.222,13.889,L
1919,0.015,0.490,0.065,44.444,69.444,280.556,819.444,47.222,L
1920,-0.075,0.145,0.055,50.000,66.667,297.222,833.333,13.889,L
1921,-0.200,0.060,0.025,38.889,52.778,252.778,819.444,13.889,L
1922,-0.390,-0.255,0.100,44.444,63.889,266.667,808.333,11.111,L
1923,0.220,0.525,0.285,44.444,61.111,258.333,786.111,22.222,L
1924,-0.110,0.690,0.170,58.333,100.000,308.333,786.111,0.000,L
1925,-0.015,0.055,0.090,47.222,61.111,275.000,769.444,16.667,L
1926,-0.045,0.600,0.155,58.333,100.000,325.000,830.556,61.111,L
1927,-0.095,0.675,0.185,58.333,100.000,313.889,847.222,16.667,L
1928,-0.030,0.735,0.305,58.333,97.222,311.111,833.333,13.889,L
1929,0.225,0.395,0.315,41.667,63.889,275.000,791.667,41.667,L
1930,0.135,0.260,0.265,47.222,61.111,275.000,808.333,16.667,L
1931,0.195,0.435,0.270,44.444,63.889,263.889,800.000,8.333,L
