id,Pamp,Ramp,Tamp,PR,QRS,QT,RRI,dRRI,label
1,0.290,1.855,-0.310,58.333,116.667,330.556,594.444,166.667,F
2,-0.285,1.185,0.520,58.333,113.889,113.889,433.333,161.111,V
3,-0.080,1.520,0.220,122.222,80.556,288.889,911.111,477.778,N
4,0.195,1.645,0.560,58.333,116.667,116.667,547.222,363.889,V
5,0.035,1.645,0.920,58.333,116.667,116.667,558.333,11.111,V
6,0.080,1.630,0.345,127.778,86.111,291.667,780.556,222.222,N
7,0.095,1.350,1.945,91.667,-5658.333,-3716.667,550.000,230.556,V
8,-0.060,1.270,1.945,58.333,-6169.444,-4227.778,511.111,38.889,V
9,0.075,1.595,0.265,119.444,47.222,261.111,877.778,366.667,N
10,0.110,1.505,0.620,55.556,113.889,113.889,525.000,352.778,V
11,-0.125,1.560,0.620,58.333,116.667,116.667,508.333,16.667,V
12,0.050,1.600,0.320,136.111,83.333,277.778,752.778,244.444,N
13,0.070,1.420,1.945,58.333,-9416.667,-7475.000,583.333,169.444,V
14,0.085,1.670,0.400,58.333,116.667,116.667,541.667,41.667,V
15,0.090,1.720,0.295,133.333,58.333,269.444,777.778,236.111,N
16,0.405,1.905,-0.195,58.333,116.667,380.556,586.111,191.667,F
17,-0.140,1.180,0.970,58.333,116.667,116.667,458.333,127.778,V
18,0.015,1.530,0.235,125.000,97.222,275.000,841.667,383.333,N
19,0.565,1.800,-0.150,58.333,113.889,372.222,558.333,283.333,F
20,0.135,1.620,0.795,58.333,116.667,116.667,494.444,63.889,V
21,0.180,1.680,0.370,113.889,83.333,258.333,700.000,205.556,N
22,0.590,1.995,-0.140,58.333,116.667,391.667,605.556,94.444,F
23,-0.030,1.490,0.625,58.333,116.667,116.667,427.778,177.778,V
24,0.035,1.675,0.150,130.556,86.111,294.444,919.444,491.667,N
25,0.120,1.350,0.645,58.333,116.667,116.667,572.222,347.222,V
26,-0.120,1.315,0.850,58.333,116.667,116.667,552.778,19.444,V
27,-0.110,1.540,0.210,136.111,97.222,272.222,763.889,211.111,N
28,-0.025,2.250,0.025,116.667,97.222,322.222,547.222,216.667,F
29,0.080,1.765,0.615,58.333,111.111,111.111,458.333,88.889,V
30,0.140,1.765,0.470,133.333,102.778,275.000,633.333,175.000,N
31,0.055,1.660,0.445,86.111,108.333,291.667,500.000,133.333,N
32,0.260,2.050,-0.350,58.333,105.556,327.778,550.000,50.000,F
33,-0.190,1.020,-0.320,127.778,88.889,272.222,563.889,13.889,N
34,-0.395,1.105,0.010,130.556,50.000,277.778,558.333,5.556,N
35,-0.100,1.950,0.320,141.667,113.889,291.667,544.444,13.889,N
36,0.520,2.050,0.855,66.667,116.667,116.667,472.222,72.222,V
37,0.625,1.985,0.880,147.222,80.556,294.444,597.222,125.000,N
38,0.635,1.740,0.440,144.444,50.000,275.000,541.667,55.556,N
39,0.325,1.705,0.065,138.889,83.333,258.333,541.667,0.000,N
40,0.140,1.645,0.030,58.333,116.667,116.667,458.333,83.333,V
41,-0.375,0.935,-0.355,116.667,41.667,244.444,575.000,116.667,N
42,-0.630,0.730,-0.690,125.000,36.111,247.222,494.444,80.556,N
43,-0.720,0.895,-0.660,116.667,83.333,272.222,491.667,2.778,N
44,-0.540,1.175,-0.195,58.333,116.667,116.667,486.111,5.556,V
45,-0.660,0.950,-0.325,141.667,75.000,280.556,586.111,100.000,N
46,-0.455,0.460,-0.325,136.111,41.667,269.444,550.000,36.111,N
47,-0.185,0.950,-0.100,133.333,47.222,263.889,527.778,22.222,N
48,-0.125,1.720,-0.340,80.556,116.667,377.778,477.778,50.000,V
49,-0.185,1.350,-0.005,122.222,47.222,258.333,544.444,66.667,N
50,0.030,1.535,0.085,125.000,72.222,272.222,505.556,38.889,N
51,0.115,1.975,0.200,116.667,66.667,255.556,505.556,0.000,N
52,0.220,1.535,0.675,58.333,116.667,116.667,469.444,36.111,V
53,0.170,1.620,0.515,130.556,47.222,247.222,561.111,91.667,N
54,0.455,1.955,0.500,122.222,83.333,241.667,475.000,86.111,N
55,0.400,2.205,0.250,136.111,86.111,258.333,530.556,55.556,N
56,0.225,1.565,0.550,61.111,116.667,116.667,463.889,66.667,V
57,0.110,1.530,0.435,105.556,80.556,300.000,605.556,141.667,N
58,0.085,1.425,-0.005,141.667,102.778,297.222,550.000,55.556,N
59,-0.045,1.465,0.125,119.444,116.667,305.556,580.556,30.556,N
60,0.085,1.675,0.065,125.000,86.111,302.778,594.444,13.889,N
61,0.010,1.510,0.175,119.444,86.111,308.333,569.444,25.000,N
62,0.335,1.605,-0.270,58.333,113.889,405.556,536.111,33.333,F
63,-0.090,1.450,0.155,125.000,66.667,275.000,538.889,2.778,N
64,-0.015,1.100,0.100,130.556,66.667,258.333,519.444,19.444,N
65,0.055,1.405,0.120,122.222,63.889,255.556,491.667,27.778,N
66,0.035,1.520,0.130,147.222,86.111,305.556,544.444,52.778,N
67,0.055,1.115,0.125,150.000,80.556,288.889,569.444,25.000,N
68,0.085,1.845,0.170,125.000,52.778,261.111,550.000,19.444,N
69,0.105,1.160,0.775,58.333,113.889,119.444,472.222,77.778,V
70,0.045,1.585,0.325,133.333,116.667,288.889,627.778,155.556,N
71,0.130,1.590,0.170,130.556,72.222,280.556,530.556,97.222,N
72,0.125,1.110,2.250,66.667,-42225.000,-23402.778,505.556,25.000,V
73,0.095,1.530,0.270,130.556,72.222,277.778,591.667,86.111,N
74,0.035,1.370,0.130,133.333,77.778,297.222,547.222,44.444,N
75,0.090,2.065,-0.115,136.111,116.667,336.111,563.889,16.667,F
76,0.055,1.620,0.260,136.111,66.667,275.000,561.111,2.778,N
77,0.180,1.665,0.355,130.556,66.667,258.333,577.778,16.667,N
78,0.215,1.310,0.645,63.889,116.667,116.667,502.778,75.000,V
79,0.015,1.410,0.260,125.000,63.889,277.778,708.333,205.556,N
80,0.070,1.510,0.245,138.889,61.111,255.556,616.667,91.667,N
81,0.200,1.320,0.995,66.667,116.667,116.667,525.000,91.667,V
82,0.115,1.500,0.310,127.778,63.889,269.444,622.222,97.222,N
83,0.075,1.315,0.125,136.111,72.222,275.000,563.889,58.333,N
84,0.440,1.690,-0.100,58.333,111.111,402.778,555.556,8.333,F
85,0.120,1.600,0.365,113.889,75.000,272.222,558.333,2.778,N
86,0.435,1.575,0.230,125.000,63.889,258.333,538.889,19.444,N
87,0.185,1.905,0.190,136.111,116.667,311.111,544.444,5.556,N
88,0.140,1.415,0.200,108.333,69.444,275.000,591.667,47.222,N
89,0.120,1.510,0.190,119.444,66.667,288.889,577.778,13.889,N
90,0.010,1.885,-0.210,133.333,116.667,305.556,563.889,13.889,N
91,-0.080,0.860,0.635,80.556,100.000,122.222,450.000,113.889,V
92,-0.220,1.155,-0.070,122.222,113.889,316.667,669.444,219.444,N
93,-0.155,1.225,-0.160,136.111,111.111,302.778,569.444,100.000,N
94,0.230,1.635,-0.230,58.333,116.667,405.556,519.444,50.000,V
95,0.005,1.675,0.220,130.556,75.000,233.333,538.889,19.444,N
96,0.040,1.540,0.150,130.556,80.556,258.333,516.667,22.222,N
97,0.110,2.335,0.010,113.889,113.889,308.333,516.667,0.000,F
98,0.070,1.635,0.980,61.111,116.667,116.667,450.000,66.667,V
99,0.215,1.740,0.450,125.000,55.556,291.667,744.444,294.444,N
100,0.310,2.240,0.220,141.667,83.333,272.222,586.111,158.333,F
101,0.165,1.740,2.335,58.333,-58563.889,-2200.000,477.778,108.333,V
102,0.200,1.700,0.370,127.778,111.111,288.889,708.333,230.556,N
103,0.135,1.370,0.095,136.111,52.778,255.556,558.333,150.000,N
104,0.040,1.155,0.635,58.333,113.889,113.889,466.667,91.667,V
105,0.000,1.420,0.225,130.556,50.000,261.111,611.111,144.444,N
106,0.045,1.385,0.180,138.889,58.333,258.333,555.556,55.556,N
107,0.010,1.870,-0.170,116.667,113.889,288.889,530.556,25.000,F
108,-0.170,1.115,0.695,194.444,113.889,113.889,425.000,105.556,V
109,-0.160,1.345,0.085,127.778,66.667,277.778,683.333,258.333,N
110,-0.090,1.340,0.035,127.778,58.333,263.889,572.222,111.111,N
111,-0.070,1.145,0.720,58.333,116.667,116.667,511.111,61.111,V
112,-0.010,1.425,0.190,136.111,86.111,275.000,708.333,197.222,N
113,0.020,1.335,0.085,119.444,77.778,286.111,575.000,133.333,N
114,0.085,1.475,0.350,58.333,116.667,116.667,544.444,30.556,V
115,0.000,1.500,0.260,122.222,100.000,275.000,600.000,55.556,N
116,0.055,1.435,0.135,133.333,97.222,252.778,563.889,36.111,N
117,-0.035,1.090,0.665,80.556,111.111,111.111,527.778,36.111,V
118,-0.275,0.945,0.660,58.333,116.667,116.667,466.667,61.111,V
119,-0.040,1.400,0.125,125.000,97.222,305.556,811.111,344.444,N
120,-0.015,1.280,-0.315,113.889,116.667,397.222,569.444,241.667,F
121,-0.220,1.005,0.830,58.333,116.667,116.667,475.000,94.444,V
122,-0.090,1.395,0.065,136.111,55.556,275.000,783.333,308.333,N
123,-0.105,1.935,-0.145,133.333,100.000,275.000,563.889,219.444,F
124,-0.170,1.400,0.560,58.333,116.667,116.667,438.889,125.000,V
125,0.020,1.460,0.250,122.222,100.000,291.667,686.111,247.222,N
126,0.045,1.340,0.130,130.556,88.889,294.444,555.556,130.556,N
127,-0.040,1.070,0.575,61.111,116.667,116.667,502.778,52.778,V
128,-0.115,1.400,0.175,127.778,80.556,227.778,613.889,111.111,N
129,-0.055,1.315,0.100,133.333,86.111,272.222,536.111,77.778,N
130,0.040,1.150,0.825,58.333,111.111,113.889,561.111,25.000,V
131,-0.005,1.420,0.295,147.222,63.889,291.667,775.000,213.889,N
132,-0.055,1.385,0.205,152.778,88.889,283.333,652.778,122.222,N
133,-0.075,1.195,0.855,83.333,116.667,116.667,588.889,63.889,V
134,-0.100,1.255,0.785,58.333,116.667,116.667,469.444,119.444,V
135,-0.005,1.450,0.240,130.556,83.333,272.222,836.111,366.667,N
136,-0.005,1.075,0.760,58.333,113.889,113.889,530.556,305.556,V
137,-0.145,0.930,0.850,58.333,105.556,119.444,458.333,72.222,V
138,0.015,1.550,0.240,119.444,83.333,272.222,813.889,355.556,N
139,0.255,1.880,-0.195,58.333,116.667,397.222,575.000,238.889,F
140,0.125,1.145,0.875,58.333,111.111,113.889,483.333,91.667,V
141,0.025,1.440,0.210,127.778,83.333,272.222,650.000,166.667,N
142,-0.005,1.515,0.140,141.667,83.333,275.000,561.111,88.889,N
143,-0.020,1.425,0.155,122.222,50.000,255.556,566.667,5.556,N
144,-0.035,1.480,0.135,127.778,83.333,277.778,572.222,5.556,N
145,-0.100,1.350,0.105,125.000,83.333,275.000,580.556,8.333,N
146,-0.035,1.090,0.760,61.111,111.111,111.111,552.778,27.778,V
147,-0.215,0.925,0.825,61.111,100.000,113.889,452.778,100.000,V
148,-0.075,1.405,0.150,116.667,41.667,255.556,838.889,386.111,N
149,-0.025,1.460,0.515,58.333,116.667,116.667,513.889,325.000,V
150,-0.115,1.350,0.775,58.333,116.667,116.667,530.556,16.667,V
151,-0.065,1.370,0.165,127.778,66.667,291.667,730.556,200.000,N
152,-0.060,1.745,-0.035,133.333,83.333,261.111,586.111,144.444,F
153,-0.140,1.385,0.700,197.222,116.667,116.667,452.778,133.333,V
154,0.000,1.565,0.285,119.444,83.333,255.556,669.444,216.667,N
155,0.065,1.490,0.195,136.111,83.333,258.333,552.778,116.667,N
156,0.270,1.835,-0.215,58.333,113.889,352.778,563.889,11.111,F
157,-0.005,1.395,0.225,127.778,83.333,275.000,575.000,11.111,N
158,-0.040,1.380,0.120,130.556,58.333,252.778,566.667,8.333,N
159,-0.015,1.590,0.210,130.556,52.778,241.667,519.444,47.222,N
160,0.015,1.600,0.225,133.333,100.000,288.889,569.444,50.000,N
161,0.035,1.420,0.190,144.444,113.889,291.667,597.222,27.778,N
162,0.155,1.905,-0.180,58.333,113.889,333.333,608.333,11.111,F
163,-0.125,1.085,0.860,58.333,113.889,116.667,463.889,144.444,V
164,-0.070,1.415,0.180,125.000,83.333,272.222,783.333,319.444,N
165,-0.040,2.050,-0.210,125.000,102.778,311.111,572.222,211.111,F
166,-0.120,1.545,0.620,58.333,116.667,116.667,447.222,125.000,V
167,-0.110,1.360,0.115,113.889,83.333,258.333,691.667,244.444,N
168,-0.080,1.430,0.020,125.000,80.556,252.778,561.111,130.556,N
169,-0.120,1.365,0.055,197.222,116.667,116.667,447.222,113.889,V
170,-0.035,1.495,0.260,127.778,102.778,311.111,688.889,241.667,N
171,0.045,1.625,0.290,127.778,77.778,286.111,580.556,108.333,N
172,0.200,1.520,2.335,75.000,-100019.444,-43655.556,508.333,72.222,V
173,0.150,1.500,0.215,119.444,83.333,252.778,619.444,111.111,N
174,-0.005,1.355,0.040,122.222,58.333,255.556,566.667,52.778,N
175,-0.105,2.125,-0.165,136.111,113.889,302.778,550.000,16.667,F
176,-0.030,1.465,0.640,58.333,116.667,116.667,461.111,88.889,V
177,-0.035,1.415,0.210,136.111,83.333,275.000,636.111,175.000,N
178,-0.050,1.395,0.050,127.778,55.556,213.889,541.667,94.444,N
179,-0.065,1.545,0.190,138.889,47.222,247.222,530.556,11.111,N
180,0.030,1.675,0.160,111.111,44.444,225.000,502.778,27.778,N
181,-0.060,1.580,0.115,144.444,63.889,255.556,552.778,50.000,N
182,-0.125,1.355,-0.265,138.889,116.667,336.111,627.778,75.000,F
183,-0.190,1.065,0.850,58.333,108.333,113.889,466.667,161.111,V
184,-0.075,1.485,0.205,138.889,83.333,272.222,916.667,450.000,N
185,-0.065,1.065,0.730,55.556,111.111,111.111,516.667,400.000,V
186,-0.250,1.085,0.835,58.333,116.667,116.667,477.778,38.889,V
187,-0.160,1.310,0.070,119.444,83.333,261.111,816.667,338.889,N
188,-0.100,1.950,-0.300,58.333,116.667,316.667,541.667,275.000,F
189,-0.205,1.220,0.670,58.333,116.667,116.667,469.444,72.222,V
190,-0.095,1.470,0.185,127.778,116.667,280.556,666.667,197.222,N
191,-0.060,1.745,0.075,136.111,88.889,263.889,602.778,63.889,N
192,-0.130,1.180,1.015,58.333,111.111,116.667,488.889,113.889,V
193,-0.185,1.310,0.160,133.333,50.000,277.778,908.333,419.444,N
194,-0.080,1.195,0.845,58.333,116.667,116.667,580.556,327.778,V
195,-0.240,1.105,0.805,58.333,102.778,111.111,500.000,80.556,V
196,-0.080,1.450,0.195,130.556,100.000,291.667,933.333,433.333,N
197,-0.125,1.115,0.855,55.556,113.889,113.889,502.778,430.556,V
198,-0.150,1.220,0.045,58.333,116.667,116.667,491.667,11.111,V
199,-0.160,1.425,0.165,100.000,97.222,275.000,863.889,372.222,N
200,-0.010,1.125,2.335,86.111,-116858.333,-60494.444,516.667,347.222,V
201,-0.140,1.355,0.915,58.333,111.111,119.444,533.333,16.667,V
202,-0.010,1.560,0.275,130.556,86.111,261.111,797.222,263.889,N
203,0.030,1.600,-0.235,122.222,116.667,333.333,588.889,208.333,F
204,-0.235,1.100,0.790,58.333,116.667,116.667,441.667,147.222,V
205,-0.060,1.585,0.220,125.000,94.444,275.000,847.222,405.556,N
206,0.045,1.170,2.335,72.222,-120611.111,-64247.222,544.444,302.778,V
207,-0.160,1.110,0.915,58.333,116.667,116.667,497.222,47.222,V
208,-0.030,1.560,0.245,122.222,102.778,277.778,800.000,302.778,N
209,0.010,1.530,-0.240,58.333,116.667,386.111,516.667,283.333,F
210,-0.205,1.320,0.735,58.333,116.667,116.667,461.111,55.556,V
211,0.025,1.485,0.300,133.333,86.111,261.111,772.222,311.111,N
212,0.075,1.315,-0.120,127.778,116.667,330.556,591.667,180.556,F
213,-0.120,1.190,0.945,180.556,116.667,116.667,469.444,122.222,V
214,-0.030,1.490,0.225,133.333,47.222,263.889,850.000,380.556,N
215,0.070,1.585,-0.185,58.333,116.667,347.222,561.111,288.889,F
216,-0.090,1.410,0.830,58.333,116.667,116.667,472.222,88.889,V
217,0.445,1.865,0.750,127.778,66.667,275.000,713.889,241.667,N
218,0.455,1.530,0.170,122.222,116.667,325.000,572.222,141.667,F
219,0.170,1.370,0.830,147.222,113.889,113.889,416.667,155.556,V
220,-0.210,1.155,-0.135,130.556,61.111,269.444,775.000,358.333,N
221,-0.370,0.750,-0.605,122.222,116.667,322.222,577.778,197.222,F
222,-0.560,0.845,0.445,58.333,116.667,116.667,466.667,111.111,V
223,-0.435,1.085,-0.175,133.333,55.556,258.333,780.556,313.889,N
224,-0.410,1.105,-0.460,119.444,97.222,286.111,552.778,227.778,F
225,-0.460,1.155,0.460,55.556,113.889,113.889,455.556,97.222,V
226,-0.315,1.240,0.005,130.556,86.111,291.667,719.444,263.889,N
227,-0.215,1.435,-0.105,125.000,80.556,238.889,561.111,158.333,N
228,-0.230,1.175,0.580,197.222,116.667,116.667,441.667,119.444,V
229,-0.250,1.325,0.055,105.556,97.222,275.000,675.000,233.333,N
230,-0.170,1.490,-0.025,138.889,58.333,272.222,566.667,108.333,N
231,-0.205,1.235,0.710,55.556,111.111,119.444,486.111,80.556,V
232,-0.075,1.415,0.230,138.889,83.333,275.000,744.444,258.333,N
233,-0.015,1.405,0.080,144.444,58.333,266.667,608.333,136.111,N
234,-0.195,1.295,0.605,58.333,116.667,116.667,480.556,127.778,V
235,-0.045,1.565,0.415,119.444,69.444,263.889,675.000,194.444,N
236,-0.040,1.540,0.095,136.111,80.556,241.667,580.556,94.444,N
237,-0.095,1.345,0.625,58.333,116.667,116.667,505.556,75.000,V
238,-0.090,1.485,0.255,133.333,77.778,266.667,766.667,261.111,N
239,-0.080,1.110,0.520,63.889,100.000,100.000,541.667,225.000,V
240,-0.205,1.375,0.495,58.333,116.667,116.667,441.667,100.000,V
241,0.045,1.575,0.355,127.778,61.111,286.111,919.444,477.778,N
242,0.180,1.280,2.335,58.333,-142175.000,-85811.111,547.222,372.222,V
243,-0.040,1.250,1.030,55.556,108.333,113.889,519.444,27.778,V
244,0.040,1.560,0.325,111.111,69.444,297.222,880.556,361.111,N
245,0.120,1.250,2.335,80.556,-144119.444,-87755.556,538.889,341.667,V
246,-0.035,1.530,0.795,58.333,116.667,116.667,502.778,36.111,V
247,0.080,1.665,0.390,119.444,80.556,255.556,688.889,186.111,N
248,0.090,2.215,-0.115,127.778,113.889,405.556,583.333,105.556,F
249,-0.120,1.295,0.840,161.111,116.667,116.667,388.889,194.444,V
250,0.055,1.635,0.350,127.778,97.222,291.667,822.222,433.333,N
251,0.135,1.500,-0.230,58.333,116.667,350.000,594.444,227.778,F
252,-0.040,1.430,0.715,58.333,116.667,116.667,502.778,91.667,V
253,-0.085,1.480,0.220,127.778,55.556,261.111,733.333,230.556,N
254,0.010,1.795,0.155,133.333,83.333,244.444,552.778,180.556,N
255,0.010,1.625,0.690,58.333,116.667,116.667,463.889,88.889,V
256,-0.010,1.515,0.325,125.000,80.556,255.556,713.889,250.000,N
257,0.050,1.415,0.215,138.889,63.889,258.333,566.667,147.222,N
258,-0.120,1.245,0.715,58.333,116.667,116.667,475.000,91.667,V
259,-0.060,1.530,0.280,105.556,77.778,250.000,638.889,163.889,N
260,-0.005,1.445,0.230,133.333,113.889,288.889,608.333,30.556,N
261,-0.070,1.390,0.875,58.333,108.333,113.889,527.778,80.556,V
262,-0.140,1.420,0.210,136.111,86.111,277.778,822.222,294.444,N
263,0.155,1.640,-0.310,58.333,116.667,402.778,638.889,183.333,F
264,-0.215,1.270,0.660,58.333,116.667,116.667,425.000,213.889,V
265,-0.055,1.530,0.225,133.333,86.111,263.889,872.222,447.222,N
266,0.000,1.130,0.755,58.333,116.667,116.667,522.222,350.000,V
267,-0.230,1.120,0.600,58.333,116.667,116.667,483.333,38.889,V
268,-0.255,1.310,0.115,116.667,47.222,244.444,844.444,361.111,N
269,0.090,1.475,-0.265,58.333,116.667,344.444,527.778,316.667,F
270,-0.040,1.335,0.590,58.333,116.667,116.667,494.444,33.333,V
271,0.055,1.465,0.370,125.000,80.556,288.889,702.778,208.333,N
272,0.120,1.925,0.150,150.000,88.889,263.889,605.556,97.222,F
273,0.120,1.315,0.920,197.222,116.667,116.667,450.000,155.556,V
274,0.010,1.435,0.330,122.222,50.000,272.222,825.000,375.000,N
275,0.095,1.750,-0.145,58.333,116.667,316.667,594.444,230.556,F
276,-0.030,1.420,0.425,58.333,116.667,116.667,455.556,138.889,V
277,0.010,1.470,0.230,122.222,80.556,255.556,747.222,291.667,N
278,-0.065,2.040,-0.190,125.000,113.889,405.556,550.000,197.222,F
279,-0.170,1.555,0.005,58.333,116.667,116.667,408.333,141.667,V
280,-0.145,1.400,0.195,127.778,75.000,291.667,783.333,375.000,N
281,-0.020,1.930,-0.070,144.444,111.111,291.667,583.333,200.000,F
282,-0.130,1.600,0.695,58.333,116.667,116.667,469.444,113.889,V
283,-0.160,1.305,0.085,136.111,83.333,258.333,738.889,269.444,N
284,-0.195,1.450,-0.015,130.556,83.333,261.111,563.889,175.000,N
285,-0.195,1.420,0.295,58.333,116.667,116.667,463.889,100.000,V
286,-0.090,1.425,0.280,125.000,83.333,291.667,677.778,213.889,N
287,0.040,1.295,0.195,138.889,80.556,255.556,577.778,100.000,N
288,-0.040,1.340,0.455,58.333,116.667,116.667,522.222,55.556,V
289,-0.105,1.375,0.225,127.778,52.778,272.222,683.333,161.111,N
290,-0.075,1.830,0.010,138.889,86.111,255.556,594.444,88.889,N
291,-0.145,1.345,0.730,197.222,116.667,116.667,461.111,133.333,V
292,-0.090,1.340,0.195,133.333,116.667,311.111,866.667,405.556,N
293,-0.110,1.735,-0.130,136.111,102.778,275.000,622.222,244.444,N
294,-0.190,1.170,0.460,197.222,116.667,116.667,444.444,177.778,V
295,-0.185,1.250,0.130,127.778,61.111,275.000,744.444,300.000,N
296,-0.095,1.550,0.030,127.778,58.333,252.778,566.667,177.778,N
297,-0.105,1.465,0.540,197.222,116.667,116.667,452.778,113.889,V
298,-0.135,1.310,0.160,133.333,83.333,261.111,688.889,236.111,N
299,-0.100,1.335,0.010,136.111,50.000,258.333,550.000,138.889,N
300,-0.195,0.915,0.645,58.333,116.667,116.667,522.222,27.778,V
301,-0.205,1.370,0.180,127.778,86.111,291.667,638.889,116.667,N
302,-0.060,1.470,0.195,130.556,86.111,291.667,586.111,52.778,N
303,0.010,1.525,-0.210,122.222,116.667,322.222,572.222,13.889,F
304,-0.170,1.050,0.855,58.333,116.667,116.667,458.333,113.889,V
305,-0.105,1.325,0.260,125.000,63.889,288.889,811.111,352.778,N
306,0.020,1.270,-0.100,108.333,111.111,294.444,552.778,258.333,F
307,-0.115,1.410,0.440,197.222,116.667,116.667,452.778,100.000,V
308,-0.155,1.200,0.085,127.778,61.111,255.556,647.222,194.444,N
309,-0.100,1.185,-0.005,105.556,69.444,244.444,513.889,133.333,N
310,-0.190,1.150,-0.385,105.556,116.667,350.000,516.667,2.778,F
311,-0.280,1.010,-0.090,138.889,80.556,288.889,547.222,30.556,N
312,-0.190,1.105,0.320,127.778,55.556,291.667,558.333,11.111,N
313,-0.260,1.115,-0.085,150.000,88.889,263.889,558.333,0.000,N
314,-0.155,0.960,0.585,91.667,111.111,111.111,472.222,86.111,V
315,-0.210,1.270,0.085,138.889,83.333,258.333,563.889,91.667,N
316,-0.190,1.190,-0.065,136.111,102.778,263.889,511.111,52.778,N
317,-0.195,1.590,-0.130,136.111,83.333,261.111,533.333,22.222,F
318,-0.135,0.965,0.540,58.333,116.667,116.667,452.778,80.556,V
319,-0.150,1.655,0.165,127.778,94.444,266.667,636.111,183.333,N
320,-0.140,1.270,-0.145,125.000,108.333,241.667,519.444,116.667,N
321,-0.235,1.265,-0.030,125.000,80.556,255.556,511.111,8.333,N
322,-0.160,1.275,-0.015,130.556,86.111,258.333,561.111,50.000,N
323,-0.190,1.300,-0.025,144.444,88.889,266.667,580.556,19.444,N
324,-0.195,1.220,-0.250,113.889,111.111,305.556,583.333,2.778,F
325,-0.140,1.475,0.825,58.333,116.667,116.667,463.889,119.444,V
326,0.005,1.510,0.285,130.556,83.333,277.778,722.222,258.333,N
327,0.010,1.575,-0.010,133.333,83.333,258.333,586.111,136.111,F
328,-0.050,1.500,0.545,194.444,116.667,116.667,436.111,150.000,V
329,-0.105,1.340,0.155,122.222,83.333,255.556,750.000,313.889,N
330,-0.070,1.255,-0.090,116.667,97.222,275.000,541.667,208.333,F
331,-0.090,1.535,0.805,177.778,116.667,116.667,416.667,125.000,V
332,0.010,1.430,0.250,122.222,83.333,272.222,744.444,327.778,N
333,-0.040,1.475,-0.130,127.778,113.889,313.889,586.111,158.333,F
334,-0.130,1.270,0.630,194.444,116.667,116.667,452.778,133.333,V
335,-0.135,1.420,0.165,122.222,83.333,272.222,772.222,319.444,N
336,-0.060,1.390,-0.190,111.111,113.889,308.333,561.111,211.111,F
337,-0.115,1.630,0.480,58.333,116.667,116.667,447.222,113.889,V
338,0.005,1.535,0.255,130.556,86.111,250.000,736.111,288.889,N
339,0.030,1.335,-0.145,122.222,100.000,288.889,558.333,177.778,F
340,-0.140,1.435,0.370,58.333,116.667,116.667,436.111,122.222,V
341,-0.145,1.360,0.085,105.556,86.111,261.111,716.667,280.556,N
342,-0.130,1.195,-0.320,122.222,102.778,291.667,533.333,183.333,F
343,-0.165,1.425,0.560,58.333,116.667,116.667,466.667,66.667,V
344,-0.115,1.175,0.150,138.889,83.333,291.667,747.222,280.556,N
345,-0.140,1.605,0.005,130.556,97.222,286.111,594.444,152.778,N
346,-0.035,1.430,0.625,191.667,116.667,116.667,458.333,136.111,V
347,-0.105,0.995,0.150,113.889,116.667,288.889,675.000,216.667,N
348,-0.105,0.660,-0.025,127.778,105.556,258.333,561.111,113.889,N
349,-0.080,0.995,0.375,58.333,116.667,116.667,447.222,113.889,V
350,-0.135,0.620,0.065,122.222,102.778,280.556,700.000,252.778,N
351,-0.175,0.795,-0.090,116.667,113.889,402.778,558.333,141.667,F
352,-0.090,0.855,0.275,58.333,116.667,116.667,405.556,152.778,V
353,-0.145,0.360,0.095,111.111,111.111,291.667,708.333,302.778,N
354,-0.110,0.505,-0.055,141.667,105.556,294.444,577.778,130.556,N
355,-0.075,0.965,0.490,58.333,116.667,116.667,463.889,113.889,V
356,-0.250,0.235,-0.045,125.000,102.778,291.667,669.444,205.556,N
357,-0.205,-0.065,-0.095,105.556,97.222,291.667,547.222,122.222,N
358,0.050,0.440,-0.125,58.333,113.889,113.889,555.556,8.333,V
359,-0.205,0.105,0.005,58.333,111.111,286.111,577.778,22.222,N
360,-0.220,0.260,-0.120,127.778,116.667,261.111,541.667,36.111,N
361,-0.240,0.305,-0.150,133.333,113.889,269.444,538.889,2.778,N
362,-0.260,0.555,-0.115,130.556,102.778,258.333,544.444,5.556,N
363,-0.215,1.010,0.045,122.222,100.000,272.222,527.778,16.667,N
364,-0.070,1.750,-0.040,127.778,80.556,275.000,563.889,36.111,F
365,-0.155,1.375,0.620,197.222,116.667,116.667,475.000,88.889,V
366,0.005,1.390,0.325,111.111,100.000,277.778,766.667,291.667,N
367,0.105,1.455,-0.005,127.778,111.111,305.556,580.556,186.111,F
368,-0.005,1.490,0.765,177.778,116.667,116.667,433.333,147.222,V
369,0.015,1.420,0.245,127.778,86.111,266.667,733.333,300.000,N
370,-0.010,1.485,-0.110,122.222,105.556,294.444,561.111,172.222,F
371,-0.165,1.480,0.580,197.222,116.667,116.667,447.222,113.889,V
372,-0.130,1.470,0.205,116.667,75.000,263.889,644.444,197.222,N
373,-0.040,1.360,0.100,125.000,86.111,241.667,505.556,138.889,N
374,-0.045,1.385,0.140,122.222,83.333,255.556,536.111,30.556,N
375,-0.035,1.450,0.170,136.111,83.333,272.222,563.889,27.778,N
376,0.020,1.445,0.185,130.556,86.111,277.778,611.111,47.222,N
377,0.010,1.255,2.335,58.333,-220686.111,-164322.222,572.222,38.889,V
378,-0.155,1.205,0.375,58.333,116.667,116.667,475.000,97.222,V
379,-0.095,1.300,0.185,105.556,52.778,275.000,811.111,336.111,N
380,-0.030,1.195,-0.235,111.111,116.667,361.111,541.667,269.444,F
381,-0.180,1.330,0.610,58.333,116.667,116.667,433.333,108.333,V
382,-0.115,1.280,0.155,122.222,97.222,277.778,675.000,241.667,N
383,-0.080,1.240,0.040,138.889,77.778,222.222,550.000,125.000,N
384,-0.140,1.090,0.075,91.667,111.111,111.111,486.111,63.889,V
385,-0.185,1.355,0.155,125.000,80.556,255.556,583.333,97.222,N
386,-0.065,1.385,0.090,138.889,86.111,258.333,561.111,22.222,N
387,-0.070,1.825,-0.035,141.667,83.333,263.889,552.778,8.333,F
388,-0.085,1.160,0.685,58.333,116.667,116.667,458.333,94.444,V
389,-0.065,1.365,0.195,125.000,75.000,236.111,611.111,152.778,N
390,-0.005,1.255,0.055,136.111,83.333,275.000,511.111,100.000,N
391,-0.030,1.575,-0.040,133.333,52.778,244.444,544.444,33.333,N
392,-0.130,1.045,0.695,58.333,111.111,111.111,447.222,97.222,V
393,-0.205,1.320,0.040,108.333,97.222,288.889,588.889,141.667,N
394,-0.165,1.130,-0.020,138.889,66.667,236.111,505.556,83.333,N
395,-0.115,1.625,0.005,122.222,75.000,263.889,488.889,16.667,N
396,0.060,1.310,0.775,58.333,116.667,116.667,450.000,38.889,V
397,-0.095,1.350,0.075,141.667,86.111,269.444,647.222,197.222,N
398,-0.150,1.270,-0.075,130.556,72.222,252.778,572.222,75.000,N
399,-0.175,1.335,0.035,133.333,72.222,263.889,550.000,22.222,N
400,-0.085,1.445,0.065,113.889,83.333,225.000,550.000,0.000,N
401,-0.090,1.360,0.075,130.556,113.889,272.222,533.333,16.667,N
402,-0.080,1.730,0.045,122.222,83.333,272.222,558.333,25.000,F
403,0.045,1.200,0.775,197.222,113.889,113.889,438.889,119.444,V
404,-0.095,1.360,0.165,122.222,50.000,261.111,725.000,286.111,N
405,-0.050,1.625,0.060,136.111,83.333,241.667,550.000,175.000,N
406,-0.095,1.305,0.745,197.222,116.667,116.667,427.778,122.222,V
407,-0.110,1.415,0.175,122.222,80.556,272.222,652.778,225.000,N
408,-0.110,1.295,0.040,138.889,80.556,255.556,569.444,83.333,N
409,-0.150,1.370,0.035,136.111,83.333,261.111,566.667,2.778,N
410,-0.140,1.315,0.025,141.667,77.778,269.444,572.222,5.556,N
411,-0.135,1.325,0.095,125.000,83.333,255.556,580.556,8.333,N
412,-0.100,1.265,-0.180,113.889,113.889,305.556,575.000,5.556,F
413,-0.180,1.030,0.870,191.667,105.556,111.111,441.667,133.333,V
414,-0.110,1.300,0.175,119.444,80.556,258.333,813.889,372.222,N
415,-0.070,1.050,0.215,83.333,113.889,113.889,513.889,300.000,V
416,-0.310,1.060,0.030,66.667,113.889,113.889,433.333,80.556,V
417,-0.060,1.350,0.165,133.333,86.111,275.000,730.556,297.222,N
418,-0.025,1.730,-0.010,138.889,86.111,277.778,572.222,158.333,F
419,-0.070,1.350,0.630,58.333,116.667,116.667,475.000,97.222,V
420,-0.200,1.265,0.040,136.111,86.111,272.222,672.222,197.222,N
421,-0.225,1.190,-0.075,127.778,72.222,230.556,558.333,113.889,N
422,-0.195,1.080,0.415,72.222,111.111,111.111,497.222,61.111,V
423,-0.185,1.340,0.155,136.111,100.000,275.000,630.556,133.333,N
424,-0.120,1.400,0.115,133.333,113.889,275.000,597.222,33.333,N
425,-0.050,1.090,0.880,58.333,111.111,111.111,541.667,55.556,V
426,-0.160,1.345,0.135,116.667,86.111,227.778,672.222,130.556,N
427,-0.140,1.035,-0.260,111.111,111.111,311.111,544.444,127.778,F
428,-0.160,1.485,0.490,58.333,116.667,116.667,436.111,108.333,V
429,-0.090,1.385,0.165,119.444,116.667,308.333,769.444,333.333,N
430,-0.065,1.915,-0.180,130.556,113.889,291.667,597.222,172.222,F
431,-0.175,1.455,0.810,58.333,116.667,116.667,452.778,144.444,V
432,-0.155,1.325,0.060,130.556,113.889,294.444,713.889,261.111,N
433,-0.200,1.250,0.010,127.778,75.000,250.000,563.889,150.000,N
434,-0.115,1.190,0.535,58.333,111.111,111.111,466.667,97.222,V
435,-0.105,1.475,0.250,125.000,86.111,258.333,616.667,150.000,N
436,-0.025,1.325,0.120,136.111,86.111,261.111,561.111,55.556,N
437,-0.090,1.405,0.135,119.444,102.778,261.111,566.667,5.556,N
438,-0.120,1.490,0.115,130.556,86.111,263.889,594.444,27.778,N
439,-0.110,1.470,0.175,133.333,86.111,263.889,583.333,11.111,N
440,-0.035,1.450,-0.280,102.778,116.667,372.222,588.889,5.556,F
441,-0.165,1.155,0.880,58.333,113.889,119.444,500.000,88.889,V
442,-0.075,1.315,0.180,125.000,83.333,275.000,769.444,269.444,N
443,-0.110,1.420,-0.315,105.556,116.667,400.000,566.667,202.778,F
444,-0.275,1.215,0.805,55.556,113.889,113.889,438.889,127.778,V
445,-0.040,1.500,0.245,125.000,102.778,291.667,730.556,291.667,N
446,0.020,1.995,-0.010,116.667,116.667,272.222,541.667,188.889,F
447,-0.035,1.525,-0.295,194.444,116.667,116.667,422.222,119.444,V
448,-0.140,1.375,0.145,125.000,77.778,269.444,636.111,213.889,N
449,-0.175,1.220,-0.010,144.444,86.111,263.889,572.222,63.889,N
450,-0.150,1.170,0.550,88.889,116.667,116.667,522.222,50.000,V
451,-0.195,1.515,0.165,127.778,86.111,247.222,608.333,86.111,N
452,-0.060,1.405,0.130,127.778,102.778,275.000,544.444,63.889,N
453,-0.045,1.350,-0.200,116.667,116.667,308.333,544.444,0.000,F
454,-0.140,1.355,0.880,58.333,116.667,116.667,461.111,83.333,V
455,-0.130,1.300,0.180,122.222,80.556,275.000,727.778,266.667,N
456,-0.090,1.400,-0.140,113.889,94.444,277.778,552.778,175.000,F
457,-0.175,1.615,0.680,197.222,116.667,116.667,441.667,111.111,V
458,-0.050,1.420,0.280,122.222,83.333,258.333,652.778,211.111,N
459,-0.015,1.390,0.155,136.111,83.333,255.556,563.889,88.889,N
460,0.000,1.295,0.715,58.333,116.667,116.667,505.556,58.333,V
461,-0.145,1.435,0.180,133.333,86.111,275.000,658.333,152.778,N
462,-0.085,1.515,0.135,147.222,88.889,263.889,600.000,58.333,N
463,-0.090,1.615,-0.255,100.000,116.667,327.778,580.556,19.444,F
464,-0.190,1.185,0.950,58.333,108.333,113.889,458.333,122.222,V
465,-0.060,1.370,0.205,125.000,100.000,291.667,836.111,377.778,N
466,-0.115,1.200,0.635,61.111,116.667,116.667,522.222,313.889,V
467,-0.335,1.100,0.490,58.333,116.667,116.667,447.222,75.000,V
468,-0.110,1.315,0.150,119.444,86.111,272.222,808.333,361.111,N
469,-0.055,1.150,0.570,91.667,116.667,116.667,538.889,269.444,V
470,-0.140,1.345,0.775,58.333,116.667,116.667,500.000,38.889,V
471,-0.010,1.410,0.200,127.778,83.333,272.222,752.778,252.778,N
472,-0.065,1.590,-0.080,130.556,94.444,275.000,566.667,186.111,F
473,-0.115,1.405,0.685,197.222,116.667,116.667,441.667,125.000,V
474,-0.095,1.425,0.225,125.000,102.778,291.667,675.000,233.333,N
475,-0.060,1.425,0.125,130.556,88.889,247.222,572.222,102.778,N
476,-0.060,1.210,0.715,58.333,116.667,116.667,486.111,86.111,V
477,-0.115,1.420,0.140,122.222,83.333,244.444,636.111,150.000,N
478,-0.145,1.390,0.065,125.000,72.222,244.444,552.778,83.333,N
479,-0.030,1.205,0.730,55.556,111.111,111.111,469.444,83.333,V
480,-0.120,1.425,0.200,130.556,83.333,261.111,655.556,186.111,N
481,-0.075,1.350,0.085,141.667,102.778,294.444,608.333,47.222,N
482,-0.200,1.140,0.695,58.333,116.667,119.444,527.778,80.556,V
483,-0.205,1.325,0.150,125.000,86.111,258.333,752.778,225.000,N
484,-0.160,1.610,-0.085,125.000,105.556,275.000,566.667,186.111,F
485,-0.095,1.605,0.450,194.444,116.667,116.667,438.889,127.778,V
486,-0.060,1.510,0.210,113.889,86.111,261.111,722.222,283.333,N
487,-0.090,1.520,-0.105,125.000,91.667,277.778,575.000,147.222,F
488,-0.160,1.535,0.490,197.222,116.667,116.667,447.222,127.778,V
489,-0.135,1.295,0.180,130.556,86.111,266.667,691.667,244.444,N
490,-0.085,1.260,0.035,133.333,52.778,255.556,558.333,133.333,N
491,-0.125,1.195,0.435,58.333,116.667,116.667,483.333,75.000,V
492,-0.170,1.380,0.200,127.778,113.889,313.889,638.889,155.556,N
493,-0.075,1.400,0.125,119.444,116.667,294.444,555.556,83.333,N
494,-0.075,1.620,-0.090,130.556,116.667,297.222,563.889,8.333,F
495,-0.165,1.350,0.770,58.333,116.667,116.667,458.333,105.556,V
496,-0.145,1.290,0.195,113.889,61.111,275.000,755.556,297.222,N
497,-0.095,1.765,-0.010,133.333,77.778,244.444,555.556,200.000,F
498,-0.070,1.505,0.540,197.222,116.667,116.667,430.556,125.000,V
499,-0.120,1.375,0.200,97.222,83.333,272.222,680.556,250.000,N
500,-0.070,1.285,0.040,141.667,80.556,255.556,577.778,102.778,N
501,-0.135,1.130,0.795,77.778,113.889,113.889,538.889,38.889,V
502,-0.095,1.425,0.235,122.222,86.111,275.000,641.667,102.778,N
503,-0.020,1.435,0.205,133.333,113.889,288.889,580.556,61.111,N
504,-0.010,1.170,0.610,77.778,116.667,116.667,563.889,16.667,V
505,-0.070,1.115,0.755,58.333,116.667,116.667,458.333,105.556,V
506,-0.035,1.385,0.225,130.556,97.222,297.222,847.222,388.889,N
507,-0.020,1.090,0.920,75.000,108.333,108.333,536.111,311.111,V
508,-0.190,1.220,0.820,58.333,116.667,116.667,444.444,91.667,V
509,0.020,1.465,0.285,108.333,100.000,255.556,725.000,280.556,N
510,0.040,1.575,-0.060,127.778,97.222,261.111,536.111,188.889,F
511,-0.120,1.455,0.580,197.222,116.667,116.667,447.222,88.889,V
512,-0.090,1.460,0.215,130.556,105.556,311.111,686.111,238.889,N
513,-0.055,1.505,0.120,133.333,86.111,261.111,586.111,100.000,N
514,-0.090,1.465,0.160,119.444,100.000,261.111,586.111,0.000,N
515,-0.030,1.385,0.180,138.889,97.222,272.222,588.889,2.778,N
516,0.000,1.450,0.165,141.667,63.889,261.111,602.778,13.889,N
517,-0.085,1.265,0.785,83.333,116.667,116.667,538.889,63.889,V
518,-0.040,1.465,0.510,58.333,116.667,116.667,475.000,63.889,V
519,0.065,1.570,0.345,119.444,86.111,258.333,794.444,319.444,N
520,0.090,1.410,0.925,58.333,116.667,116.667,522.222,272.222,V
521,-0.015,1.300,0.920,58.333,116.667,116.667,480.556,41.667,V
522,-0.020,1.505,0.220,127.778,80.556,288.889,872.222,391.667,N
523,0.375,1.900,-0.180,58.333,116.667,394.444,586.111,286.111,F
524,-0.030,1.545,0.830,58.333,116.667,116.667,458.333,127.778,V
525,0.085,1.650,0.355,130.556,113.889,305.556,694.444,236.111,N
526,0.070,1.450,0.155,138.889,80.556,255.556,588.889,105.556,N
527,-0.110,1.325,0.805,197.222,116.667,116.667,455.556,133.333,V
528,-0.050,1.585,0.325,122.222,83.333,255.556,661.111,205.556,N
529,0.070,1.675,0.245,127.778,83.333,241.667,555.556,105.556,N
530,-0.080,1.370,0.940,58.333,113.889,116.667,458.333,97.222,V
531,-0.005,1.445,0.240,125.000,80.556,272.222,736.111,277.778,N
532,-0.115,1.620,-0.140,133.333,100.000,291.667,611.111,125.000,F
533,-0.130,1.485,0.805,58.333,116.667,116.667,455.556,155.556,V
534,-0.045,1.450,0.245,127.778,100.000,288.889,788.889,333.333,N
535,-0.030,1.465,0.020,130.556,83.333,258.333,569.444,219.444,F
536,-0.025,1.550,0.650,197.222,116.667,116.667,444.444,125.000,V
537,-0.140,1.335,0.125,125.000,80.556,272.222,713.889,269.444,N
538,-0.140,1.365,0.050,127.778,55.556,250.000,572.222,141.667,N
539,-0.085,1.470,0.510,58.333,116.667,116.667,477.778,94.444,V
540,-0.080,1.465,0.245,113.889,75.000,250.000,622.222,144.444,N
541,-0.050,1.360,0.130,119.444,102.778,277.778,558.333,63.889,N
542,0.060,1.365,0.625,58.333,116.667,116.667,522.222,36.111,V
543,-0.105,1.490,0.190,136.111,83.333,277.778,708.333,186.111,N
544,-0.115,1.455,0.080,125.000,77.778,258.333,588.889,119.444,N
545,-0.125,1.220,0.675,58.333,116.667,116.667,547.222,41.667,V
546,-0.130,1.465,0.180,133.333,83.333,258.333,663.889,116.667,N
547,-0.110,1.330,0.040,127.778,100.000,275.000,591.667,72.222,N
548,-0.260,1.065,0.710,58.333,116.667,116.667,505.556,86.111,V
549,-0.245,1.440,0.105,119.444,83.333,244.444,636.111,130.556,N
550,-0.125,1.420,0.095,116.667,80.556,238.889,547.222,88.889,N
551,-0.085,1.500,-0.240,127.778,116.667,344.444,580.556,33.333,F
552,-0.010,1.465,0.255,136.111,113.889,305.556,622.222,41.667,N
553,-0.005,1.440,0.165,136.111,80.556,261.111,636.111,13.889,N
554,0.655,1.635,-0.355,58.333,113.889,380.556,605.556,30.556,V
555,-0.125,1.505,0.240,130.556,113.889,291.667,602.778,2.778,N
556,-0.030,1.470,0.150,127.778,113.889,275.000,600.000,2.778,N
557,-0.100,1.400,0.115,130.556,113.889,288.889,600.000,0.000,N
558,-0.095,1.345,0.090,130.556,100.000,275.000,613.889,13.889,N
559,-0.155,1.820,-0.005,130.556,86.111,247.222,605.556,8.333,F
560,-0.175,1.370,0.560,197.222,116.667,116.667,441.667,163.889,V
561,-0.105,1.385,0.235,122.222,80.556,272.222,700.000,258.333,N
562,-0.020,1.360,0.140,141.667,83.333,272.222,600.000,100.000,N
563,0.110,1.475,0.670,58.333,116.667,116.667,547.222,52.778,V
564,-0.155,1.465,0.110,133.333,113.889,294.444,675.000,127.778,N
565,-0.165,1.380,0.010,130.556,113.889,275.000,566.667,108.333,N
566,-0.160,1.375,0.050,127.778,83.333,244.444,550.000,16.667,N
567,-0.130,1.305,0.035,125.000,100.000,275.000,561.111,11.111,N
568,-0.130,1.370,0.010,136.111,88.889,258.333,561.111,0.000,N
569,-0.225,1.935,-0.335,116.667,113.889,405.556,550.000,11.111,F
570,-0.185,1.590,0.440,58.333,116.667,116.667,438.889,111.111,V
571,-0.185,1.275,0.125,127.778,86.111,283.333,719.444,280.556,N
572,-0.080,1.900,-0.140,122.222,100.000,288.889,594.444,125.000,F
573,-0.130,1.610,0.680,58.333,116.667,116.667,455.556,138.889,V
574,-0.125,1.340,0.205,125.000,83.333,275.000,725.000,269.444,N
575,-0.015,1.465,0.140,136.111,83.333,258.333,563.889,161.111,N
576,-0.020,1.500,-0.315,102.778,116.667,375.000,516.667,47.222,V
577,-0.040,1.425,0.215,119.444,83.333,244.444,583.333,66.667,N
578,-0.005,1.370,0.135,125.000,50.000,252.778,522.222,61.111,N
579,-0.025,1.400,0.180,122.222,77.778,236.111,516.667,5.556,N
580,0.065,1.435,0.720,66.667,116.667,116.667,444.444,72.222,V
581,0.010,1.410,0.310,125.000,80.556,238.889,588.889,144.444,N
582,0.065,1.535,0.195,130.556,80.556,227.778,525.000,63.889,N
583,0.030,1.605,0.110,136.111,88.889,277.778,538.889,13.889,N
584,0.140,1.180,0.555,58.333,116.667,116.667,491.667,47.222,V
585,-0.115,1.310,0.220,141.667,66.667,288.889,644.444,152.778,N
586,-0.025,1.435,0.090,133.333,77.778,291.667,541.667,102.778,N
587,-0.020,1.755,0.100,119.444,83.333,258.333,538.889,2.778,N
588,0.075,1.360,0.835,58.333,116.667,116.667,450.000,88.889,V
589,0.215,1.575,0.430,127.778,111.111,288.889,658.333,208.333,N
590,0.175,1.445,0.195,138.889,83.333,258.333,558.333,100.000,N
591,0.335,1.585,-0.280,58.333,116.667,386.111,530.556,27.778,V
592,-0.085,1.340,0.095,125.000,66.667,241.667,541.667,11.111,N
593,-0.110,1.190,-0.065,113.889,83.333,252.778,500.000,41.667,N
594,-0.205,1.520,-0.185,127.778,105.556,311.111,547.222,47.222,N
595,0.025,1.325,0.480,58.333,116.667,116.667,475.000,72.222,V
596,-0.090,1.380,0.110,116.667,75.000,288.889,633.333,158.333,N
597,-0.100,1.110,-0.070,150.000,58.333,263.889,569.444,63.889,N
598,-0.015,1.630,-0.140,66.667,97.222,294.444,547.222,22.222,F
599,-0.165,1.095,0.500,191.667,113.889,116.667,455.556,91.667,V
600,-0.085,1.295,0.185,116.667,63.889,277.778,625.000,169.444,N
601,0.010,0.840,-0.015,127.778,47.222,252.778,530.556,94.444,N
602,-0.205,1.280,0.160,152.778,111.111,286.111,508.333,22.222,N
603,-0.030,1.130,0.195,133.333,77.778,355.556,525.000,16.667,N
604,-0.080,1.075,0.250,136.111,86.111,183.333,525.000,0.000,N
605,0.395,1.155,0.110,125.000,77.778,313.889,522.222,2.778,N
606,0.340,1.550,-0.240,58.333,116.667,405.556,538.889,16.667,F
607,0.055,1.205,0.195,136.111,80.556,302.778,536.111,2.778,N
608,0.075,1.515,0.245,197.222,100.000,258.333,536.111,0.000,N
609,0.100,1.570,0.035,127.778,86.111,258.333,536.111,0.000,N
610,0.150,1.175,0.670,52.778,102.778,102.778,447.222,88.889,V
611,-0.010,1.460,0.175,116.667,86.111,258.333,580.556,133.333,N
612,0.035,1.340,0.070,119.444,83.333,255.556,505.556,75.000,N
613,-0.110,1.330,0.085,125.000,75.000,250.000,522.222,16.667,N
614,0.175,1.515,0.970,58.333,113.889,113.889,450.000,72.222,V
615,0.130,1.705,0.165,102.778,88.889,244.444,555.556,105.556,N
616,-0.040,1.415,-0.050,125.000,80.556,116.667,525.000,30.556,N
617,-0.195,2.075,-0.135,125.000,116.667,361.111,569.444,44.444,F
618,-0.085,1.335,0.730,58.333,111.111,113.889,480.556,88.889,V
619,-0.015,1.530,0.235,130.556,86.111,263.889,672.222,191.667,N
620,0.090,1.545,0.405,130.556,86.111,208.333,552.778,119.444,N
621,-0.085,1.550,-0.055,130.556,94.444,291.667,508.333,44.444,N
622,-0.110,1.300,0.220,108.333,80.556,241.667,527.778,19.444,N
623,0.215,1.490,0.055,183.333,91.667,255.556,525.000,2.778,N
624,-0.060,0.705,0.310,127.778,44.444,252.778,513.889,11.111,N
625,0.035,1.535,0.020,58.333,116.667,402.778,502.778,11.111,V
626,0.145,0.975,0.385,122.222,80.556,275.000,527.778,25.000,N
627,0.255,1.580,0.465,130.556,72.222,213.889,505.556,22.222,N
628,0.265,1.585,0.475,138.889,47.222,258.333,522.222,16.667,N
629,0.440,1.525,0.530,80.556,113.889,113.889,477.778,44.444,V
630,0.085,1.775,0.465,133.333,86.111,258.333,572.222,94.444,N
631,0.220,1.595,-0.030,127.778,88.889,247.222,538.889,33.333,N
632,-0.025,1.220,-0.200,144.444,58.333,169.444,538.889,0.000,N
633,-0.435,1.130,0.020,58.333,116.667,116.667,469.444,69.444,V
634,-0.140,1.585,0.235,133.333,47.222,241.667,566.667,97.222,N
635,0.040,1.520,0.005,127.778,108.333,283.333,477.778,88.889,N
636,-0.020,0.880,-0.415,111.111,72.222,261.111,497.222,19.444,N
637,-0.480,1.010,-0.625,58.333,108.333,138.889,483.333,13.889,F
638,-0.685,0.835,-0.465,105.556,105.556,283.333,463.889,19.444,N
639,-0.485,1.025,0.005,133.333,69.444,258.333,494.444,30.556,N
640,-0.445,1.410,0.960,147.222,72.222,213.889,502.778,8.333,N
641,1.410,0.845,1.230,180.556,111.111,402.778,180.556,322.222,|
642,-0.465,1.310,-0.240,119.444,105.556,286.111,350.000,169.444,N
643,-0.260,1.405,-0.225,50.000,75.000,344.444,516.667,166.667,N
644,-0.105,1.200,0.305,116.667,100.000,280.556,547.222,30.556,N
645,-0.095,1.215,-0.190,94.444,88.889,313.889,527.778,19.444,N
646,-0.075,1.220,0.670,125.000,55.556,205.556,583.333,55.556,N
647,1.255,0.670,0.345,177.778,77.778,405.556,180.556,402.778,|
648,-0.195,1.645,0.015,119.444,86.111,291.667,361.111,180.556,N
649,0.045,1.440,0.275,125.000,44.444,244.444,519.444,158.333,N
650,0.020,1.470,0.095,127.778,44.444,236.111,511.111,8.333,N
651,0.005,2.060,-0.050,105.556,116.667,377.778,500.000,11.111,F
652,0.070,1.735,0.240,119.444,86.111,238.889,502.778,2.778,N
653,0.225,1.880,0.295,122.222,47.222,255.556,536.111,33.333,N
654,0.085,2.105,0.180,127.778,100.000,275.000,558.333,22.222,N
655,0.095,1.285,1.020,58.333,105.556,113.889,480.556,77.778,V
656,0.155,1.915,0.275,113.889,61.111,275.000,719.444,238.889,N
657,0.120,1.830,0.335,136.111,77.778,236.111,594.444,125.000,N
658,0.265,1.455,2.335,66.667,-378002.778,-321638.889,477.778,116.667,V
659,0.125,1.765,0.385,127.778,100.000,275.000,675.000,197.222,N
660,0.165,1.740,0.335,127.778,100.000,272.222,566.667,108.333,N
661,0.115,1.365,2.335,58.333,-379763.889,-323400.000,519.444,47.222,V
662,0.145,1.760,0.475,125.000,52.778,255.556,711.111,191.667,N
663,0.265,1.910,0.460,130.556,58.333,247.222,588.889,122.222,N
664,0.175,1.435,2.335,61.111,-381580.556,-325216.667,516.667,72.222,V
665,0.010,1.660,0.340,141.667,100.000,288.889,797.222,280.556,N
666,-0.035,2.230,-0.130,150.000,113.889,288.889,641.667,155.556,F
667,-0.130,1.415,0.445,197.222,116.667,116.667,427.778,213.889,V
668,-0.105,1.485,0.135,130.556,97.222,277.778,900.000,472.222,N
669,-0.075,-0.155,0.620,197.222,38.889,211.111,483.333,416.667,V
670,-0.230,1.405,-0.055,130.556,86.111,261.111,802.778,319.444,N
671,-0.180,1.410,0.120,122.222,41.667,219.444,555.556,247.222,N
672,-0.090,1.660,0.060,122.222,100.000,286.111,533.333,22.222,F
673,0.010,1.560,0.890,197.222,116.667,116.667,475.000,58.333,V
674,-0.030,1.550,0.255,138.889,80.556,280.556,813.889,338.889,N
675,0.060,1.570,0.275,144.444,58.333,255.556,600.000,213.889,N
676,0.085,1.300,0.855,58.333,116.667,116.667,513.889,86.111,V
677,0.270,1.705,0.310,144.444,80.556,277.778,650.000,136.111,N
678,0.040,1.575,0.240,130.556,72.222,230.556,591.667,58.333,N
679,-0.025,1.620,-0.130,119.444,113.889,305.556,552.778,38.889,F
680,-0.170,1.370,0.635,194.444,116.667,116.667,458.333,94.444,V
681,-0.150,1.445,0.125,127.778,97.222,258.333,783.333,325.000,N
682,-0.160,-0.315,0.525,55.556,47.222,211.111,447.222,336.111,V
683,-0.290,1.255,-0.030,113.889,77.778,291.667,755.556,308.333,N
684,-0.130,1.330,0.075,147.222,100.000,272.222,586.111,169.444,N
685,-0.210,1.680,-0.035,136.111,102.778,288.889,602.778,16.667,F
686,-0.175,1.325,0.585,58.333,116.667,116.667,475.000,127.778,V
687,-0.115,1.220,0.175,138.889,80.556,272.222,761.111,286.111,N
688,0.095,-0.105,0.635,58.333,36.111,194.444,469.444,291.667,V
689,-0.080,1.450,0.235,136.111,83.333,255.556,677.778,208.333,N
690,0.060,1.570,0.325,141.667,83.333,241.667,552.778,125.000,N
691,0.105,1.715,0.385,125.000,83.333,241.667,552.778,0.000,N
692,0.175,1.525,2.335,58.333,-398488.889,-342125.000,447.222,105.556,V
693,0.240,1.820,0.605,141.667,61.111,275.000,733.333,286.111,N
694,0.250,1.760,0.430,141.667,100.000,277.778,619.444,113.889,N
695,0.295,1.915,-0.070,58.333,116.667,338.889,611.111,8.333,F
696,-0.015,1.315,2.335,58.333,-400905.556,-344541.667,452.778,158.333,V
697,0.140,1.755,0.380,133.333,113.889,305.556,844.444,391.667,N
698,0.040,2.235,-0.155,136.111,116.667,305.556,616.667,227.778,F
699,-0.155,0.985,0.915,175.000,113.889,113.889,425.000,191.667,V
700,-0.015,1.545,0.275,116.667,83.333,241.667,822.222,397.222,N
701,0.075,1.980,0.150,133.333,97.222,238.889,552.778,269.444,F
702,0.105,1.425,0.770,197.222,113.889,113.889,408.333,144.444,V
703,-0.090,1.420,0.165,127.778,80.556,288.889,766.667,358.333,N
704,-0.050,1.580,0.205,150.000,52.778,258.333,591.667,175.000,N
705,-0.055,1.960,-0.040,144.444,111.111,288.889,594.444,2.778,F
706,-0.205,1.320,0.685,58.333,116.667,116.667,486.111,108.333,V
707,-0.240,1.395,0.070,141.667,63.889,275.000,777.778,291.667,N
708,-0.185,1.280,0.100,138.889,72.222,258.333,580.556,197.222,N
709,-0.205,1.070,0.725,83.333,116.667,116.667,511.111,69.444,V
710,-0.250,1.365,0.105,144.444,80.556,255.556,658.333,147.222,N
711,-0.265,1.420,0.035,138.889,83.333,227.778,613.889,44.444,N
712,-0.215,1.360,-0.155,108.333,116.667,116.667,550.000,63.889,V
713,-0.325,1.085,0.885,61.111,116.667,116.667,488.889,61.111,V
714,-0.105,1.455,0.210,136.111,86.111,277.778,891.667,402.778,N
715,-0.125,1.445,-0.225,102.778,116.667,116.667,597.222,294.444,F
716,-0.315,1.105,0.935,61.111,116.667,116.667,461.111,136.111,V
717,-0.015,1.585,0.295,133.333,113.889,302.778,819.444,358.333,N
718,-0.050,2.005,-0.160,138.889,116.667,286.111,602.778,216.667,F
719,-0.165,1.465,0.680,197.222,113.889,113.889,427.778,175.000,V
720,-0.065,1.610,0.450,127.778,72.222,247.222,713.889,286.111,N
721,0.255,1.800,0.585,127.778,83.333,250.000,536.111,177.778,N
722,0.305,1.385,2.335,58.333,-416747.222,-360383.333,502.778,33.333,V
723,-0.020,1.490,0.160,144.444,52.778,272.222,725.000,222.222,N
724,-0.235,1.285,-0.095,152.778,97.222,272.222,608.333,116.667,N
725,-0.455,0.825,-0.005,94.444,116.667,116.667,580.556,27.778,V
726,-0.660,0.655,0.740,58.333,97.222,113.889,525.000,55.556,V
727,-0.375,1.270,0.035,130.556,113.889,291.667,958.333,433.333,N
728,-0.250,1.040,0.765,58.333,116.667,116.667,519.444,438.889,V
729,-0.210,1.410,0.120,138.889,100.000,275.000,769.444,250.000,N
730,-0.210,1.495,0.110,136.111,50.000,225.000,616.667,152.778,N
731,0.005,1.480,-0.305,58.333,116.667,333.333,555.556,61.111,F
732,-0.265,1.115,2.335,58.333,-423100.000,-366736.111,494.444,61.111,V
733,-0.140,1.505,0.140,138.889,86.111,291.667,916.667,422.222,N
734,-0.080,1.410,0.995,58.333,116.667,116.667,597.222,319.444,V
735,-0.175,1.365,0.930,58.333,116.667,116.667,541.667,55.556,V
736,-0.055,1.215,0.225,125.000,100.000,286.111,786.111,244.444,N
737,-0.125,2.100,-0.220,144.444,113.889,294.444,583.333,202.778,F
738,-0.220,1.435,0.710,188.889,116.667,116.667,427.778,155.556,V
739,-0.120,1.605,0.215,130.556,97.222,275.000,808.333,380.556,N
740,-0.115,1.555,-0.305,113.889,116.667,308.333,550.000,258.333,F
741,-0.305,0.995,0.930,197.222,113.889,113.889,447.222,102.778,V
742,-0.115,1.580,0.180,133.333,72.222,263.889,919.444,472.222,N
743,-0.130,1.270,0.860,94.444,116.667,116.667,580.556,338.889,V
744,-0.310,1.180,0.770,58.333,116.667,116.667,525.000,55.556,V
745,-0.210,1.400,0.160,136.111,50.000,275.000,816.667,291.667,N
746,-0.080,2.125,-0.270,138.889,111.111,311.111,616.667,200.000,F
747,-0.190,1.575,0.790,58.333,116.667,116.667,461.111,155.556,V
748,-0.070,1.655,0.230,133.333,83.333,258.333,769.444,308.333,N
749,-0.060,1.895,0.055,136.111,94.444,247.222,561.111,208.333,F
750,0.055,1.615,0.505,197.222,116.667,116.667,408.333,152.778,V
751,-0.220,1.330,0.235,125.000,63.889,275.000,786.111,377.778,N
752,-0.195,1.880,-0.130,150.000,116.667,294.444,641.667,144.444,F
753,-0.195,1.165,0.910,197.222,116.667,116.667,455.556,186.111,V
754,-0.145,1.440,0.170,133.333,83.333,258.333,897.222,441.667,N
755,-0.110,2.025,-0.175,133.333,116.667,291.667,597.222,300.000,F
756,-0.175,1.220,0.755,186.111,116.667,116.667,419.444,177.778,V
757,-0.135,1.430,0.170,138.889,80.556,272.222,838.889,419.444,N
758,-0.130,2.055,-0.345,58.333,111.111,297.222,602.778,236.111,F
759,-0.345,1.120,0.600,169.444,116.667,116.667,411.111,191.667,V
760,-0.135,1.530,0.225,130.556,83.333,291.667,808.333,397.222,N
761,-0.015,1.490,-0.075,136.111,113.889,305.556,591.667,216.667,F
762,-0.090,1.120,1.085,197.222,105.556,113.889,455.556,136.111,V
763,-0.130,1.535,0.155,136.111,86.111,275.000,925.000,469.444,N
764,-0.085,1.165,0.285,102.778,116.667,116.667,583.333,341.667,V
765,-0.355,1.010,1.015,58.333,94.444,111.111,488.889,94.444,V
766,-0.165,1.445,0.165,127.778,83.333,291.667,852.778,363.889,N
767,-0.150,1.275,-0.420,105.556,116.667,116.667,566.667,286.111,F
768,-0.460,0.855,0.815,155.556,116.667,116.667,430.556,136.111,V
769,-0.270,1.365,0.110,136.111,80.556,288.889,847.222,416.667,N
770,-0.050,1.520,-0.240,58.333,116.667,344.444,611.111,236.111,F
771,-0.185,1.100,1.090,58.333,105.556,113.889,477.778,133.333,V
772,-0.005,1.595,0.275,127.778,86.111,294.444,866.667,388.889,N
773,0.060,1.920,-0.070,127.778,113.889,319.444,597.222,269.444,F
774,-0.040,1.480,2.335,58.333,-449613.889,-393250.000,444.444,152.778,V
775,0.035,1.615,0.335,144.444,66.667,275.000,791.667,347.222,N
776,0.040,1.585,-0.070,127.778,113.889,294.444,586.111,205.556,F
777,-0.070,1.360,0.945,191.667,113.889,113.889,430.556,155.556,V
778,-0.080,1.605,0.315,111.111,97.222,288.889,830.556,400.000,N
779,0.075,1.495,-0.100,105.556,116.667,386.111,563.889,266.667,F
780,-0.060,1.215,2.335,58.333,-453280.556,-396916.667,463.889,100.000,V
781,-0.040,1.510,0.185,138.889,80.556,305.556,922.222,458.333,N
782,0.055,1.685,-0.240,58.333,116.667,402.778,613.889,308.333,F
783,-0.160,1.285,0.870,58.333,116.667,116.667,472.222,141.667,V
784,-0.070,1.500,0.255,141.667,63.889,275.000,783.333,311.111,N
785,-0.020,1.370,-0.175,133.333,113.889,305.556,575.000,208.333,F
786,-0.155,1.535,0.250,58.333,116.667,116.667,441.667,133.333,V
787,-0.165,1.435,0.140,130.556,83.333,291.667,769.444,327.778,N
788,-0.125,1.330,-0.050,125.000,102.778,291.667,544.444,225.000,F
789,-0.125,1.380,0.985,197.222,102.778,113.889,458.333,86.111,V
790,-0.160,1.235,0.175,136.111,97.222,291.667,702.778,244.444,N
791,-0.125,1.240,0.100,152.778,113.889,288.889,583.333,119.444,N
792,-0.145,1.345,0.125,150.000,88.889,294.444,580.556,2.778,N
793,-0.135,1.385,0.145,141.667,69.444,277.778,611.111,30.556,N
794,-0.135,1.390,0.160,144.444,61.111,258.333,647.222,36.111,N
795,-0.195,1.025,0.990,58.333,105.556,113.889,569.444,77.778,V
796,-0.300,0.940,1.225,58.333,55.556,66.667,550.000,19.444,V
797,-0.325,1.280,0.020,125.000,47.222,255.556,891.667,341.667,N
798,-0.410,1.030,0.740,58.333,116.667,116.667,516.667,375.000,V
799,-0.500,0.750,0.765,55.556,102.778,111.111,508.333,8.333,V
800,-0.330,1.280,0.025,133.333,86.111,297.222,1038.889,530.556,N
801,-0.215,1.040,0.730,58.333,116.667,116.667,572.222,466.667,V
802,-0.390,1.010,1.050,58.333,86.111,111.111,527.778,44.444,V
803,-0.110,1.470,0.235,133.333,100.000,291.667,886.111,358.333,N
804,-0.090,1.170,2.335,58.333,-468600.000,-412236.111,552.778,333.333,V
805,-0.270,1.070,1.110,58.333,100.000,113.889,502.778,50.000,V
806,-0.010,1.595,0.310,138.889,83.333,255.556,897.222,394.444,N
807,0.030,1.155,0.830,58.333,113.889,113.889,505.556,391.667,V
808,-0.250,0.985,1.050,58.333,97.222,111.111,511.111,5.556,V
809,-0.090,1.405,0.230,138.889,83.333,275.000,947.222,436.111,N
810,-0.035,1.135,0.870,58.333,116.667,116.667,558.333,388.889,V
811,-0.300,1.010,2.335,58.333,-473080.556,-416716.667,558.333,0.000,V
812,-0.140,1.380,0.155,130.556,116.667,291.667,913.889,355.556,N
813,-0.075,1.145,0.760,58.333,116.667,116.667,544.444,369.444,V
814,-0.325,0.970,0.865,58.333,116.667,116.667,502.778,41.667,V
815,-0.025,1.545,0.280,130.556,111.111,302.778,866.667,363.889,N
816,-0.015,1.230,2.335,69.444,-476444.444,-420080.556,536.111,330.556,V
817,-0.240,1.175,2.335,58.333,-476941.667,-420577.778,497.222,38.889,V
818,0.030,1.625,0.340,130.556,83.333,291.667,900.000,402.778,N
819,0.010,1.290,0.930,58.333,116.667,116.667,569.444,330.556,V
820,-0.305,0.995,1.085,58.333,97.222,116.667,502.778,66.667,V
821,-0.075,1.550,0.220,136.111,86.111,277.778,900.000,397.222,N
822,-0.055,1.135,0.880,66.667,116.667,116.667,550.000,350.000,V
823,-0.275,0.985,1.100,58.333,94.444,113.889,522.222,27.778,V
824,-0.140,1.400,0.165,119.444,86.111,261.111,891.667,369.444,N
825,-0.130,1.180,0.725,58.333,116.667,116.667,502.778,388.889,V
826,-0.215,1.175,2.335,58.333,-482813.889,-426450.000,533.333,30.556,V
827,-0.145,1.450,0.105,147.222,116.667,302.778,847.222,313.889,N
828,0.070,1.605,-0.325,58.333,113.889,402.778,622.222,225.000,F
829,-0.260,1.275,0.870,58.333,116.667,116.667,477.778,144.444,V
830,-0.015,1.555,0.275,127.778,83.333,308.333,794.444,316.667,N
831,-0.065,1.250,-0.110,100.000,116.667,116.667,572.222,222.222,F
832,-0.295,1.030,0.850,58.333,113.889,113.889,458.333,113.889,V
833,-0.075,1.550,0.270,138.889,61.111,272.222,866.667,408.333,N
834,0.015,1.255,0.910,66.667,113.889,113.889,538.889,327.778,V
835,-0.260,0.940,0.975,58.333,100.000,113.889,477.778,61.111,V
836,-0.140,1.455,0.170,136.111,80.556,275.000,911.111,433.333,N
837,-0.015,1.290,0.940,58.333,116.667,116.667,552.778,358.333,V
838,-0.135,1.195,2.335,58.333,-490463.889,-434100.000,530.556,22.222,V
839,-0.020,1.515,0.240,141.667,80.556,272.222,852.778,322.222,N
840,0.435,1.735,-0.230,58.333,116.667,391.667,591.667,261.111,F
841,-0.175,1.240,0.955,58.333,116.667,116.667,458.333,133.333,V
842,0.020,1.610,0.315,136.111,97.222,275.000,813.889,355.556,N
843,0.030,1.335,2.335,66.667,-493711.111,-437347.222,530.556,283.333,V
844,-0.230,1.065,-0.050,166.667,116.667,116.667,466.667,63.889,V
845,0.000,1.635,0.310,136.111,63.889,291.667,902.778,436.111,N
846,0.155,1.335,2.335,58.333,-495650.000,-439286.111,569.444,333.333,V
847,-0.200,1.030,1.080,58.333,102.778,113.889,522.222,47.222,V
848,-0.090,1.455,0.120,133.333,86.111,275.000,922.222,400.000,N
849,-0.160,1.120,0.745,75.000,116.667,116.667,527.778,394.444,V
850,-0.415,1.000,0.725,58.333,116.667,116.667,500.000,27.778,V
851,-0.150,1.355,0.170,136.111,116.667,291.667,822.222,322.222,N
852,-0.110,1.070,0.500,100.000,116.667,116.667,547.222,275.000,F
853,-0.445,0.710,0.520,55.556,113.889,113.889,461.111,86.111,V
854,-0.255,1.370,0.095,119.444,113.889,308.333,841.667,380.556,N
855,-0.070,1.160,0.950,58.333,108.333,113.889,558.333,283.333,V
856,-0.295,0.935,0.960,58.333,100.000,116.667,513.889,44.444,V
857,-0.110,1.400,0.200,130.556,80.556,302.778,986.111,472.222,N
858,-0.110,1.165,0.840,58.333,116.667,116.667,552.778,433.333,V
859,-0.290,1.090,0.760,63.889,116.667,116.667,486.111,66.667,V
860,-0.025,1.455,0.315,122.222,97.222,291.667,925.000,438.889,N
861,-0.030,1.150,2.335,55.556,-505338.889,-448975.000,519.444,405.556,V
862,-0.225,0.915,0.890,61.111,100.000,108.333,488.889,30.556,V
863,-0.105,1.495,0.225,130.556,111.111,325.000,983.333,494.444,N
864,-0.130,1.165,1.025,58.333,108.333,113.889,544.444,438.889,V
865,-0.175,1.000,0.930,58.333,97.222,116.667,513.889,30.556,V
866,-0.090,1.365,0.150,141.667,108.333,305.556,1002.778,488.889,N
867,-0.110,1.155,0.805,58.333,116.667,116.667,530.556,472.222,V
868,-0.270,1.100,0.770,58.333,116.667,116.667,500.000,30.556,V
869,0.010,1.570,0.335,133.333,111.111,302.778,913.889,413.889,N
870,0.035,1.275,0.870,61.111,116.667,116.667,527.778,386.111,V
871,-0.320,1.015,0.715,150.000,116.667,116.667,469.444,58.333,V
872,-0.130,1.495,0.195,125.000,80.556,288.889,841.667,372.222,N
873,-0.050,1.285,1.015,58.333,111.111,113.889,563.889,277.778,V
874,-0.150,1.065,1.150,58.333,97.222,113.889,536.111,27.778,V
875,-0.075,1.525,0.165,136.111,97.222,291.667,930.556,394.444,N
876,-0.110,1.230,0.875,58.333,111.111,111.111,536.111,394.444,V
877,-0.310,0.970,1.015,55.556,88.889,105.556,483.333,52.778,V
878,-0.025,1.405,0.265,125.000,100.000,291.667,850.000,366.667,N
879,-0.025,1.205,0.860,80.556,113.889,113.889,538.889,311.111,V
880,-0.290,0.950,0.895,58.333,97.222,108.333,458.333,80.556,V
881,-0.120,1.400,0.195,116.667,116.667,308.333,844.444,386.111,N
882,-0.045,1.235,0.835,86.111,116.667,116.667,550.000,294.444,V
883,-0.210,0.930,0.890,58.333,94.444,111.111,491.667,58.333,V
884,-0.165,1.085,0.030,136.111,116.667,319.444,961.111,469.444,N
885,-0.160,1.010,0.595,58.333,116.667,116.667,580.556,380.556,V
886,-0.440,0.885,0.520,58.333,116.667,116.667,477.778,102.778,V
887,-0.170,1.340,0.135,119.444,111.111,291.667,841.667,363.889,N
888,-0.125,1.250,-0.090,102.778,116.667,116.667,533.333,308.333,F
889,0.585,0.855,-0.480,58.333,116.667,377.778,494.444,38.889,V
890,-0.205,1.495,0.105,122.222,102.778,261.111,741.667,247.222,N
891,0.080,1.530,-0.390,58.333,116.667,327.778,558.333,183.333,F
892,-0.325,0.975,1.045,58.333,97.222,116.667,458.333,100.000,V
893,-0.175,1.445,0.030,144.444,100.000,325.000,955.556,497.222,N
894,-0.200,1.090,0.740,58.333,116.667,116.667,566.667,388.889,V
895,-0.505,0.990,0.530,58.333,116.667,116.667,461.111,105.556,V
896,-0.210,1.440,0.120,127.778,97.222,305.556,925.000,463.889,N
897,-0.160,1.135,0.905,66.667,116.667,116.667,555.556,369.444,V
898,-0.375,0.905,0.915,58.333,97.222,108.333,469.444,86.111,V
899,-0.200,1.545,0.125,116.667,66.667,261.111,847.222,377.778,N
900,-0.085,1.205,0.780,94.444,113.889,113.889,511.111,336.111,V
901,-0.240,1.200,0.830,58.333,116.667,116.667,483.333,27.778,V
902,-0.080,1.595,0.130,133.333,58.333,291.667,802.778,319.444,N
903,0.065,1.860,-0.485,58.333,116.667,330.556,627.778,175.000,F
904,-0.480,1.050,0.815,58.333,116.667,116.667,441.667,186.111,V
905,-0.235,1.515,0.150,130.556,83.333,305.556,827.778,386.111,N
906,-0.125,1.280,-0.235,100.000,116.667,116.667,569.444,258.333,F
907,-0.320,0.990,0.755,58.333,116.667,116.667,452.778,116.667,V
908,-0.155,1.490,0.085,133.333,83.333,275.000,900.000,447.222,N
909,-0.125,1.210,0.760,61.111,113.889,113.889,541.667,358.333,V
910,-0.345,1.040,0.965,66.667,97.222,111.111,441.667,100.000,V
911,-0.090,1.580,0.175,127.778,83.333,297.222,894.444,452.778,N
912,-0.110,1.125,0.875,83.333,113.889,113.889,566.667,327.778,V
913,-0.345,1.025,0.995,58.333,94.444,113.889,477.778,88.889,V
914,-0.150,1.530,0.205,130.556,86.111,308.333,855.556,377.778,N
915,-0.065,1.265,2.335,91.667,-539825.000,-483461.111,563.889,291.667,V
916,-0.230,0.985,1.090,58.333,102.778,113.889,486.111,77.778,V
917,-0.210,1.475,0.130,130.556,100.000,291.667,866.667,380.556,N
918,-0.075,1.235,0.840,69.444,113.889,113.889,525.000,341.667,V
919,-0.195,1.165,0.380,58.333,116.667,116.667,469.444,55.556,V
920,-0.035,1.575,0.160,136.111,86.111,294.444,847.222,377.778,N
921,-0.070,1.295,0.735,97.222,116.667,116.667,580.556,266.667,V
922,-0.160,1.380,2.335,58.333,-544075.000,-487711.111,477.778,102.778,V
923,-0.105,1.570,0.180,122.222,80.556,275.000,791.667,313.889,N
924,-0.080,2.010,-0.220,127.778,108.333,297.222,572.222,219.444,F
925,-0.150,1.340,0.995,58.333,105.556,113.889,452.778,119.444,V
926,-0.105,1.545,0.160,127.778,83.333,272.222,663.889,211.111,N
927,-0.125,1.500,0.015,144.444,105.556,280.556,552.778,111.111,N
928,-0.045,1.485,-0.320,58.333,116.667,400.000,513.889,38.889,F
929,-0.160,1.505,0.185,113.889,38.889,225.000,536.111,22.222,N
930,-0.080,1.630,0.035,136.111,86.111,261.111,505.556,30.556,N
931,-0.200,1.805,-0.165,136.111,100.000,291.667,569.444,63.889,F
932,-0.270,1.215,0.950,66.667,116.667,116.667,480.556,88.889,V
933,-0.080,1.535,0.255,141.667,102.778,325.000,941.667,461.111,N
934,-0.085,1.100,0.945,58.333,116.667,116.667,547.222,394.444,V
935,-0.235,0.935,0.920,58.333,105.556,116.667,483.333,63.889,V
936,-0.115,1.470,0.135,122.222,83.333,275.000,916.667,433.333,N
937,-0.085,1.175,0.945,63.889,113.889,113.889,522.222,394.444,V
938,-0.255,1.085,0.805,58.333,116.667,116.667,463.889,58.333,V
939,-0.030,1.545,0.235,116.667,83.333,258.333,772.222,308.333,N
940,0.020,1.700,-0.205,58.333,116.667,344.444,580.556,191.667,F
941,-0.180,1.055,1.075,58.333,97.222,111.111,455.556,125.000,V
942,-0.135,1.485,0.165,125.000,77.778,286.111,905.556,450.000,N
943,-0.085,1.155,0.950,80.556,113.889,113.889,555.556,350.000,V
944,-0.250,0.970,1.025,58.333,94.444,113.889,494.444,61.111,V
945,-0.120,1.490,0.145,136.111,80.556,275.000,947.222,452.778,N
946,-0.110,1.075,0.950,58.333,116.667,116.667,525.000,422.222,V
947,-0.330,0.960,0.565,58.333,113.889,113.889,450.000,75.000,V
948,-0.180,1.455,0.120,122.222,105.556,277.778,897.222,447.222,N
949,-0.080,1.075,0.940,58.333,108.333,113.889,513.889,383.333,V
950,-0.290,0.910,1.045,58.333,97.222,116.667,480.556,33.333,V
951,-0.130,1.505,0.165,136.111,83.333,291.667,883.333,402.778,N
952,0.115,1.530,-0.250,58.333,116.667,347.222,605.556,277.778,F
953,-0.170,1.225,0.830,58.333,116.667,116.667,469.444,136.111,V
954,-0.060,1.580,0.240,138.889,80.556,272.222,777.778,308.333,N
955,-0.035,1.615,-0.245,130.556,116.667,330.556,572.222,205.556,F
956,-0.220,1.050,0.990,58.333,116.667,116.667,433.333,138.889,V
957,-0.085,1.535,0.265,122.222,80.556,272.222,844.444,411.111,N
958,0.025,1.400,-0.205,88.889,113.889,113.889,530.556,313.889,F
959,-0.160,1.085,2.335,58.333,-566741.667,-510377.778,455.556,75.000,V
960,-0.090,1.520,0.140,130.556,86.111,283.333,869.444,413.889,N
961,-0.080,1.120,0.740,94.444,116.667,116.667,580.556,288.889,V
962,-0.170,1.375,0.880,58.333,116.667,116.667,500.000,80.556,V
963,-0.070,1.605,0.235,130.556,83.333,311.111,802.778,302.778,N
964,0.020,1.530,-0.300,58.333,116.667,333.333,597.222,205.556,F
965,-0.255,1.035,0.970,58.333,113.889,113.889,430.556,166.667,V
966,-0.110,1.575,0.215,119.444,83.333,258.333,811.111,380.556,N
967,-0.020,1.370,-0.240,108.333,116.667,116.667,541.667,269.444,V
968,-0.245,1.010,1.080,58.333,97.222,113.889,444.444,97.222,V
969,-0.160,1.475,0.075,138.889,83.333,288.889,919.444,475.000,N
970,-0.130,1.120,0.880,58.333,116.667,116.667,566.667,352.778,V
971,-0.375,0.965,1.070,58.333,100.000,111.111,502.778,63.889,V
972,-0.145,1.575,0.215,127.778,61.111,272.222,850.000,347.222,N
973,-0.050,1.190,0.540,86.111,116.667,116.667,558.333,291.667,V
974,-0.280,0.980,1.020,63.889,100.000,113.889,463.889,94.444,V
975,-0.115,1.545,0.205,127.778,77.778,269.444,811.111,347.222,N
976,-0.050,1.490,-0.225,127.778,116.667,311.111,569.444,241.667,F
977,-0.215,1.275,0.910,58.333,116.667,116.667,450.000,119.444,V
978,-0.090,1.450,0.185,127.778,80.556,275.000,744.444,294.444,N
979,-0.090,1.710,-0.335,133.333,116.667,344.444,591.667,152.778,F
980,-0.265,1.280,0.830,58.333,116.667,116.667,472.222,119.444,V
981,-0.130,1.605,0.225,127.778,66.667,288.889,858.333,386.111,N
982,-0.050,1.435,-0.230,116.667,116.667,322.222,588.889,269.444,F
983,-0.195,1.050,1.115,58.333,97.222,111.111,433.333,155.556,V
984,-0.105,1.520,0.145,130.556,86.111,280.556,894.444,461.111,N
985,-0.110,1.180,0.770,66.667,116.667,116.667,536.111,358.333,V
986,-0.195,1.315,0.930,58.333,116.667,116.667,502.778,33.333,V
987,-0.125,1.485,0.195,141.667,83.333,305.556,775.000,272.222,N
988,-0.035,1.325,-0.360,58.333,116.667,369.444,580.556,194.444,F
989,-0.315,0.970,1.030,61.111,105.556,113.889,455.556,125.000,V
990,-0.130,1.540,0.235,127.778,102.778,291.667,847.222,391.667,N
991,0.135,1.535,-0.230,58.333,116.667,347.222,600.000,247.222,F
992,-0.170,1.115,1.035,58.333,105.556,113.889,480.556,119.444,V
993,-0.065,1.530,0.180,136.111,80.556,269.444,827.778,347.222,N
994,-0.085,1.485,-0.270,125.000,116.667,397.222,575.000,252.778,F
995,-0.240,1.310,0.910,58.333,116.667,116.667,447.222,127.778,V
996,-0.045,1.485,0.235,138.889,86.111,261.111,783.333,336.111,N
997,-0.100,1.305,-0.390,108.333,116.667,350.000,536.111,247.222,F
998,-0.360,0.985,1.020,55.556,100.000,111.111,455.556,80.556,V
999,-0.155,1.550,0.235,133.333,100.000,308.333,883.333,427.778,N
1000,0.085,1.450,-0.285,58.333,116.667,338.889,602.778,280.556,F
1001,-0.210,1.160,1.000,61.111,102.778,111.111,477.778,125.000,V
1002,-0.105,1.570,0.185,130.556,80.556,272.222,791.667,313.889,N
1003,0.090,1.615,-0.300,58.333,116.667,330.556,588.889,202.778,F
1004,-0.250,1.150,0.930,58.333,116.667,116.667,458.333,130.556,V
1005,-0.050,1.580,0.225,141.667,83.333,275.000,838.889,380.556,N
1006,-0.110,0.995,0.440,80.556,113.889,113.889,538.889,300.000,V
1007,-0.310,1.155,0.835,61.111,116.667,116.667,433.333,105.556,V
1008,-0.065,1.580,0.250,136.111,88.889,297.222,838.889,405.556,N
1009,-0.065,1.235,0.400,94.444,116.667,116.667,577.778,261.111,V
1010,-0.210,1.270,0.985,58.333,97.222,113.889,525.000,52.778,V
1011,-0.080,1.495,0.145,141.667,80.556,272.222,786.111,261.111,N
1012,-0.130,2.100,-0.225,130.556,108.333,297.222,586.111,200.000,F
1013,-0.225,1.490,0.845,194.444,111.111,111.111,433.333,152.778,V
1014,-0.060,1.640,0.270,130.556,116.667,294.444,738.889,305.556,N
1015,-0.060,1.445,-0.100,133.333,116.667,308.333,569.444,169.444,F
1016,-0.145,1.420,0.615,188.889,116.667,116.667,452.778,116.667,V
1017,-0.085,1.595,0.245,133.333,86.111,280.556,794.444,341.667,N
1018,-0.035,1.845,-0.145,136.111,116.667,319.444,605.556,188.889,F
1019,-0.065,1.270,2.335,58.333,-603972.222,-547608.333,455.556,150.000,V
1020,0.040,1.580,0.190,141.667,83.333,291.667,830.556,375.000,N
1021,-0.130,1.500,-0.360,108.333,111.111,402.778,583.333,247.222,F
1022,-0.330,1.060,0.815,58.333,116.667,116.667,433.333,150.000,V
1023,-0.115,1.535,0.175,136.111,86.111,275.000,813.889,380.556,N
1024,-0.125,1.500,-0.395,122.222,113.889,300.000,569.444,244.444,F
1025,-0.375,0.875,0.730,61.111,116.667,116.667,422.222,147.222,V
1026,-0.230,1.355,0.070,119.444,83.333,272.222,755.556,333.333,N
1027,-0.190,1.575,-0.315,133.333,116.667,325.000,580.556,175.000,F
1028,-0.230,1.270,0.790,58.333,116.667,116.667,480.556,100.000,V
1029,-0.180,1.480,0.065,138.889,80.556,288.889,827.778,347.222,N
1030,-0.225,1.560,-0.355,130.556,116.667,394.444,605.556,222.222,F
1031,-0.310,1.160,0.665,58.333,113.889,113.889,430.556,175.000,V
1032,-0.065,1.565,0.200,133.333,116.667,308.333,758.333,327.778,N
1033,-0.080,1.260,-0.250,127.778,111.111,291.667,575.000,183.333,F
1034,-0.250,1.260,0.770,183.333,116.667,116.667,422.222,152.778,V
1035,-0.135,1.500,0.205,122.222,77.778,272.222,775.000,352.778,N
1036,-0.060,1.420,-0.195,122.222,113.889,297.222,550.000,225.000,F
1037,-0.195,1.375,0.745,197.222,116.667,116.667,441.667,108.333,V
1038,-0.115,1.560,0.165,136.111,86.111,275.000,769.444,327.778,N
1039,-0.130,2.095,-0.145,141.667,102.778,294.444,588.889,180.556,F
1040,-0.230,1.355,0.795,197.222,116.667,116.667,463.889,125.000,V
1041,-0.125,1.510,0.210,141.667,97.222,275.000,738.889,275.000,N
1042,-0.090,1.870,-0.020,138.889,102.778,277.778,580.556,158.333,F
1043,-0.160,1.320,0.620,197.222,116.667,116.667,461.111,119.444,V
1044,-0.195,1.595,0.200,130.556,58.333,261.111,747.222,286.111,N
1045,-0.065,1.455,-0.140,127.778,116.667,311.111,563.889,183.333,F
1046,-0.140,1.250,-0.220,188.889,116.667,116.667,441.667,122.222,V
1047,0.025,1.670,0.350,130.556,83.333,305.556,775.000,333.333,N
1048,0.050,1.480,-0.180,58.333,116.667,116.667,580.556,194.444,F
1049,-0.270,1.260,0.630,58.333,116.667,116.667,483.333,97.222,V
1050,0.020,1.480,0.175,125.000,52.778,272.222,769.444,286.111,N
1051,0.065,2.270,-0.035,119.444,105.556,288.889,558.333,211.111,F
1052,-0.045,1.280,0.120,138.889,97.222,302.778,683.333,125.000,N
1053,0.200,1.745,0.490,130.556,86.111,266.667,794.444,111.111,N
1054,0.170,1.505,2.335,69.444,-625350.000,-568986.111,522.222,272.222,V
1055,0.000,1.265,0.710,61.111,116.667,116.667,444.444,77.778,V
1056,-0.085,1.430,0.125,125.000,80.556,286.111,861.111,416.667,N
1057,-0.180,0.990,0.820,88.889,116.667,116.667,547.222,313.889,V
1058,-0.515,0.935,0.625,58.333,97.222,111.111,497.222,50.000,V
1059,-0.300,1.275,0.040,130.556,55.556,269.444,697.222,200.000,N
1060,-0.185,1.240,0.060,136.111,52.778,255.556,550.000,147.222,N
1061,-0.195,1.465,0.090,119.444,47.222,258.333,538.889,11.111,N
1062,-0.135,1.510,0.125,130.556,72.222,263.889,525.000,13.889,N
1063,-0.115,1.500,0.095,116.667,52.778,241.667,519.444,5.556,N
1064,-0.150,1.475,0.015,133.333,83.333,241.667,502.778,16.667,N
1065,-0.180,1.440,0.065,133.333,75.000,263.889,511.111,8.333,N
1066,-0.125,1.470,0.080,136.111,83.333,238.889,525.000,13.889,N
1067,-0.115,1.485,0.045,133.333,86.111,258.333,494.444,30.556,N
1068,-0.165,1.370,0.010,127.778,58.333,255.556,541.667,47.222,N
1069,-0.190,1.505,0.115,141.667,52.778,275.000,550.000,8.333,N
1070,-0.130,1.485,0.155,138.889,61.111,272.222,583.333,33.333,N
1071,-0.075,1.510,0.165,147.222,63.889,269.444,605.556,22.222,N
1072,-0.090,1.270,-0.115,116.667,113.889,319.444,572.222,33.333,F
1073,-0.115,1.435,0.710,58.333,116.667,116.667,488.889,83.333,V
1074,-0.030,1.595,0.190,136.111,83.333,261.111,777.778,288.889,N
1075,-0.075,1.450,-0.015,125.000,108.333,288.889,558.333,219.444,F
1076,-0.085,1.540,0.580,197.222,116.667,116.667,452.778,105.556,V
1077,-0.060,1.620,0.275,119.444,86.111,263.889,688.889,236.111,N
1078,-0.030,1.545,0.030,133.333,116.667,322.222,583.333,105.556,F
1079,0.050,1.565,2.335,58.333,-639458.333,-583094.444,491.667,91.667,V
1080,0.025,1.615,0.230,138.889,80.556,288.889,744.444,252.778,N
1081,-0.065,1.535,0.165,141.667,63.889,258.333,588.889,155.556,N
1082,-0.080,1.195,0.775,83.333,113.889,113.889,522.222,66.667,V
1083,-0.125,1.445,0.215,136.111,61.111,261.111,622.222,100.000,N
1084,-0.105,1.475,0.160,136.111,100.000,263.889,583.333,38.889,N
1085,-0.100,1.565,-0.245,133.333,116.667,305.556,580.556,2.778,F
1086,-0.245,0.910,0.975,197.222,102.778,113.889,444.444,136.111,V
1087,-0.235,1.390,0.140,108.333,69.444,288.889,780.556,336.111,N
1088,-0.050,1.480,-0.310,58.333,116.667,386.111,563.889,216.667,F
1089,-0.130,1.140,0.885,69.444,116.667,116.667,530.556,33.333,V
1090,-0.130,1.500,0.205,136.111,63.889,277.778,650.000,119.444,N
1091,-0.115,1.510,0.150,147.222,86.111,305.556,594.444,55.556,N
1092,-0.120,1.480,0.145,138.889,86.111,244.444,572.222,22.222,N
1093,-0.110,1.450,0.120,136.111,77.778,275.000,550.000,22.222,N
1094,-0.140,1.390,0.125,130.556,80.556,272.222,558.333,8.333,N
1095,-0.115,1.815,-0.015,144.444,88.889,258.333,566.667,8.333,F
1096,-0.185,1.135,0.785,194.444,116.667,116.667,447.222,119.444,V
1097,-0.150,1.355,0.170,138.889,83.333,255.556,713.889,266.667,N
1098,-0.190,1.425,-0.040,136.111,86.111,258.333,577.778,136.111,N
1099,-0.330,1.050,0.775,58.333,105.556,113.889,494.444,83.333,V
1100,-0.230,1.370,0.225,144.444,86.111,294.444,766.667,272.222,N
1101,-0.100,1.365,-0.035,130.556,113.889,294.444,616.667,150.000,F
1102,-0.080,1.105,1.035,194.444,102.778,111.111,450.000,166.667,V
1103,-0.180,1.425,0.135,130.556,86.111,277.778,852.778,402.778,N
1104,-0.175,1.625,-0.415,133.333,116.667,308.333,602.778,250.000,F
1105,-0.415,1.045,0.525,183.333,116.667,116.667,433.333,169.444,V
1106,-0.190,1.405,0.165,127.778,83.333,275.000,727.778,294.444,N
1107,-0.135,1.805,-0.010,133.333,83.333,227.778,555.556,172.222,F
1108,-0.215,1.385,0.645,58.333,116.667,116.667,430.556,125.000,V
1109,-0.120,1.560,0.325,141.667,80.556,291.667,711.111,280.556,N
1110,0.010,1.620,0.325,144.444,66.667,272.222,619.444,91.667,N
1111,0.040,1.140,1.020,58.333,108.333,116.667,547.222,72.222,V
1112,-0.055,1.610,0.275,133.333,83.333,275.000,772.222,225.000,N
1113,-0.060,1.385,-0.235,105.556,116.667,338.889,588.889,183.333,F
1114,-0.225,1.035,1.070,58.333,100.000,111.111,447.222,141.667,V
1115,0.010,1.585,0.285,136.111,83.333,272.222,902.778,455.556,N
1116,-0.035,1.120,0.900,63.889,116.667,116.667,544.444,358.333,V
1117,-0.325,0.935,0.815,166.667,116.667,116.667,452.778,91.667,V
1118,-0.120,1.460,0.210,125.000,83.333,258.333,805.556,352.778,N
1119,-0.075,1.255,-0.320,119.444,116.667,336.111,577.778,227.778,F
1120,-0.255,1.040,0.875,58.333,105.556,116.667,488.889,88.889,V
1121,-0.195,1.455,0.075,136.111,83.333,275.000,780.556,291.667,N
1122,-0.200,1.405,-0.210,130.556,113.889,291.667,594.444,186.111,F
1123,-0.285,1.355,0.730,58.333,116.667,116.667,469.444,125.000,V
1124,-0.175,1.295,0.155,127.778,80.556,288.889,758.333,288.889,N
1125,-0.150,1.395,-0.360,122.222,116.667,302.778,577.778,180.556,F
1126,-0.360,1.010,0.600,166.667,116.667,116.667,413.889,163.889,V
1127,-0.215,1.385,0.135,122.222,83.333,272.222,769.444,355.556,N
1128,-0.030,1.220,-0.440,58.333,116.667,341.667,594.444,175.000,F
1129,-0.410,0.860,0.750,63.889,102.778,111.111,469.444,125.000,V
1130,-0.310,1.365,-0.010,130.556,80.556,269.444,811.111,341.667,N
1131,-0.295,1.330,-0.385,141.667,113.889,297.222,583.333,227.778,F
1132,-0.425,1.095,0.695,66.667,116.667,116.667,458.333,125.000,V
1133,-0.220,1.370,0.080,136.111,111.111,288.889,716.667,258.333,N
1134,-0.240,1.675,-0.185,136.111,102.778,272.222,583.333,133.333,F
1135,-0.250,1.270,0.565,197.222,116.667,116.667,438.889,144.444,V
1136,-0.130,1.625,0.245,130.556,102.778,288.889,758.333,319.444,N
1137,-0.085,2.045,-0.195,133.333,116.667,291.667,552.778,205.556,F
1138,-0.195,1.045,0.930,194.444,105.556,113.889,427.778,125.000,V
1139,-0.190,1.395,0.065,141.667,61.111,275.000,844.444,416.667,N
1140,-0.230,1.165,0.125,119.444,116.667,116.667,600.000,244.444,F
1141,-0.425,1.005,0.760,58.333,102.778,111.111,502.778,97.222,V
1142,-0.250,1.390,0.090,141.667,86.111,261.111,780.556,277.778,N
1143,-0.175,1.640,-0.385,136.111,116.667,322.222,563.889,216.667,F
1144,-0.360,1.000,0.625,66.667,116.667,116.667,430.556,133.333,V
1145,-0.130,1.625,0.275,133.333,113.889,275.000,800.000,369.444,N
1146,0.070,1.420,-0.245,58.333,113.889,319.444,555.556,244.444,F
1147,-0.245,1.055,1.000,155.556,100.000,111.111,430.556,125.000,V
1148,-0.115,1.530,0.165,136.111,86.111,277.778,833.333,402.778,N
1149,0.055,1.380,-0.385,58.333,116.667,330.556,591.667,241.667,F
1150,-0.310,1.175,0.705,58.333,116.667,116.667,477.778,113.889,V
1151,-0.095,1.550,0.155,138.889,102.778,294.444,786.111,308.333,N
1152,-0.145,1.545,-0.325,133.333,116.667,338.889,594.444,191.667,F
1153,-0.285,1.035,0.720,55.556,111.111,111.111,455.556,138.889,V
1154,-0.130,1.575,0.210,138.889,80.556,255.556,780.556,325.000,N
1155,-0.090,1.560,-0.270,116.667,116.667,311.111,541.667,238.889,F
1156,-0.275,1.145,0.495,197.222,116.667,116.667,452.778,88.889,V
1157,-0.270,1.355,0.000,136.111,100.000,275.000,736.111,283.333,N
1158,-0.270,1.355,-0.355,138.889,113.889,316.667,572.222,163.889,F
1159,-0.385,1.295,0.680,197.222,116.667,116.667,472.222,100.000,V
1160,-0.175,1.505,0.220,138.889,80.556,275.000,761.111,288.889,N
1161,-0.080,1.695,0.025,141.667,100.000,288.889,586.111,175.000,F
1162,-0.060,1.265,0.750,194.444,113.889,113.889,452.778,133.333,V
1163,-0.220,1.465,0.120,133.333,102.778,291.667,722.222,269.444,N
1164,-0.180,1.875,-0.060,138.889,100.000,275.000,586.111,136.111,F
1165,-0.160,1.350,0.770,194.444,116.667,116.667,455.556,130.556,V
1166,-0.090,1.575,0.280,138.889,83.333,272.222,730.556,275.000,N
1167,-0.025,1.710,-0.035,125.000,108.333,275.000,536.111,194.444,F
1168,-0.070,1.500,1.015,197.222,100.000,111.111,438.889,97.222,V
1169,-0.080,1.550,0.270,130.556,86.111,308.333,750.000,311.111,N
1170,-0.035,1.900,0.100,133.333,102.778,277.778,602.778,147.222,F
1171,-0.055,1.285,1.065,197.222,105.556,113.889,463.889,138.889,V
1172,-0.075,1.550,0.250,136.111,116.667,305.556,869.444,405.556,N
1173,-0.075,1.160,0.805,91.667,113.889,113.889,561.111,308.333,V
1174,-0.265,1.100,0.955,55.556,113.889,113.889,466.667,94.444,V
1175,-0.045,1.605,0.300,119.444,113.889,291.667,758.333,291.667,N
1176,0.050,2.220,-0.160,138.889,113.889,288.889,569.444,188.889,F
1177,-0.160,1.340,0.835,186.111,116.667,116.667,416.667,152.778,V
1178,-0.080,1.600,0.315,127.778,80.556,291.667,755.556,338.889,N
1179,0.030,1.535,0.135,125.000,100.000,286.111,600.000,155.556,F
1180,0.085,1.545,2.335,197.222,-700138.889,-643775.000,455.556,144.444,V
1181,0.005,1.640,0.290,136.111,86.111,277.778,836.111,380.556,N
1182,0.010,1.500,-0.190,105.556,116.667,405.556,569.444,266.667,F
1183,-0.140,1.120,2.335,58.333,-701994.444,-645630.556,450.000,119.444,V
1184,0.050,1.720,0.340,127.778,80.556,288.889,855.556,405.556,N
1185,0.030,1.295,2.335,72.222,-703391.667,-647027.778,541.667,313.889,V
1186,-0.245,1.095,0.875,55.556,113.889,113.889,458.333,83.333,V
1187,-0.055,1.695,0.355,130.556,83.333,291.667,755.556,297.222,N
1188,0.235,1.705,-0.100,58.333,116.667,336.111,591.667,163.889,F
1189,0.025,1.285,2.335,58.333,-705688.889,-649325.000,491.667,100.000,V
1190,-0.005,1.635,0.275,138.889,83.333,277.778,858.333,366.667,N
1191,0.175,1.610,-0.190,58.333,116.667,311.111,608.333,250.000,F
1192,-0.120,1.320,0.925,58.333,116.667,116.667,450.000,158.333,V
1193,0.035,1.555,0.285,130.556,55.556,258.333,800.000,350.000,N
1194,-0.020,1.730,-0.260,122.222,113.889,316.667,575.000,225.000,F
1195,-0.205,1.270,0.760,58.333,116.667,116.667,438.889,136.111,V
1196,-0.020,1.580,0.310,130.556,72.222,244.444,788.889,350.000,N
1197,0.040,1.830,-0.120,130.556,116.667,311.111,563.889,225.000,F
1198,-0.120,1.185,1.090,58.333,105.556,113.889,447.222,116.667,V
1199,-0.030,1.680,0.315,125.000,80.556,286.111,866.667,419.444,N
1200,0.480,1.975,-0.165,58.333,116.667,330.556,619.444,247.222,F
1201,-0.110,1.185,2.335,58.333,-713186.111,-656822.222,480.556,138.889,V
1202,0.000,1.720,0.325,130.556,97.222,291.667,872.222,391.667,N
1203,0.010,1.285,0.885,86.111,116.667,116.667,558.333,313.889,V
1204,-0.120,1.425,0.610,58.333,116.667,116.667,497.222,61.111,V
1205,0.035,1.725,0.430,127.778,83.333,288.889,761.111,263.889,N
1206,0.295,2.030,-0.145,58.333,111.111,313.889,561.111,200.000,F
1207,-0.095,1.195,2.335,58.333,-716875.000,-660511.111,438.889,122.222,V
1208,0.075,1.645,0.370,141.667,83.333,288.889,925.000,486.111,N
1209,0.085,1.355,2.335,86.111,-718380.556,-662016.667,580.556,344.444,V
1210,-0.120,1.080,2.335,58.333,-718905.556,-662541.667,525.000,55.556,V
1211,-0.010,1.650,0.320,130.556,100.000,291.667,833.333,308.333,N
1212,0.340,2.085,-0.135,58.333,116.667,325.000,605.556,227.778,F
1213,-0.045,1.420,0.835,58.333,116.667,116.667,472.222,133.333,V
1214,0.085,1.645,0.325,136.111,88.889,261.111,763.889,291.667,N
1215,-0.010,2.070,-0.135,127.778,113.889,261.111,577.778,186.111,F
1216,-0.135,1.370,0.925,191.667,116.667,116.667,397.222,180.556,V
1217,-0.020,1.630,0.330,136.111,86.111,291.667,844.444,447.222,N
1218,0.080,2.090,-0.175,58.333,111.111,316.667,619.444,225.000,F
1219,-0.180,1.085,0.875,197.222,116.667,116.667,458.333,161.111,V
1220,-0.095,1.510,0.195,133.333,50.000,275.000,852.778,394.444,N
1221,-0.130,2.025,-0.120,144.444,108.333,297.222,591.667,261.111,F
1222,-0.170,1.405,0.605,58.333,116.667,116.667,455.556,136.111,V
1223,-0.050,1.465,0.245,133.333,80.556,258.333,786.111,330.556,N
1224,-0.085,2.160,-0.180,141.667,108.333,297.222,594.444,191.667,F
1225,-0.160,1.545,-0.155,58.333,116.667,116.667,441.667,152.778,V
1226,-0.020,1.585,0.305,138.889,63.889,275.000,786.111,344.444,N
1227,-0.040,2.215,-0.140,136.111,113.889,288.889,613.889,172.222,F
1228,-0.120,1.410,0.645,58.333,116.667,116.667,450.000,163.889,V
1229,-0.085,1.585,0.270,138.889,61.111,277.778,852.778,402.778,N
1230,-0.030,2.115,-0.060,130.556,116.667,308.333,588.889,263.889,F
1231,-0.005,1.445,0.665,58.333,116.667,116.667,463.889,125.000,V
1232,-0.005,1.640,0.290,138.889,86.111,272.222,813.889,350.000,N
1233,-0.045,2.200,-0.160,125.000,116.667,297.222,586.111,227.778,F
1234,-0.160,1.305,0.745,191.667,116.667,116.667,430.556,155.556,V
1235,-0.045,1.580,0.310,138.889,100.000,291.667,819.444,388.889,N
1236,0.005,1.320,0.970,58.333,116.667,116.667,580.556,238.889,V
1237,-0.170,1.265,0.850,58.333,116.667,116.667,522.222,58.333,V
1238,-0.055,1.760,0.345,130.556,113.889,300.000,938.889,416.667,N
1239,0.050,1.250,0.985,77.778,113.889,113.889,544.444,394.444,V
1240,-0.135,1.190,2.335,61.111,-737694.444,-681330.556,502.778,41.667,V
1241,-0.070,1.565,0.295,138.889,52.778,258.333,811.111,308.333,N
1242,-0.055,2.275,-0.080,133.333,116.667,294.444,575.000,236.111,F
1243,-0.100,1.570,0.645,194.444,116.667,116.667,447.222,127.778,V
1244,0.030,1.675,0.320,116.667,66.667,258.333,819.444,372.222,N
1245,0.795,1.440,-0.320,58.333,116.667,327.778,616.667,202.778,V
1246,-0.285,1.175,0.600,58.333,116.667,116.667,422.222,194.444,V
1247,-0.015,1.560,0.325,138.889,80.556,288.889,936.111,513.889,N
1248,0.005,1.335,0.970,58.333,116.667,116.667,591.667,344.444,V
1249,-0.280,1.030,0.895,183.333,116.667,116.667,486.111,105.556,V
1250,-0.130,1.525,0.305,127.778,77.778,291.667,841.667,355.556,N
1251,0.135,1.985,-0.165,58.333,116.667,305.556,575.000,266.667,F
1252,-0.150,1.240,0.835,58.333,116.667,116.667,436.111,138.889,V
1253,-0.070,1.530,0.200,127.778,72.222,233.333,825.000,388.889,N
1254,0.295,1.875,-0.275,58.333,113.889,402.778,577.778,247.222,F
1255,-0.225,1.225,2.335,58.333,-747097.222,-690733.333,441.667,136.111,V
1256,-0.035,1.630,0.295,136.111,86.111,280.556,872.222,430.556,N
1257,0.195,2.050,-0.255,58.333,116.667,313.889,625.000,247.222,F
1258,0.845,1.045,-0.300,58.333,116.667,394.444,469.444,155.556,V
1259,-0.060,1.595,0.275,136.111,86.111,308.333,802.778,333.333,N
1260,0.305,2.005,-0.240,58.333,113.889,302.778,622.222,180.556,F
1261,0.875,1.045,-0.375,58.333,113.889,288.889,480.556,141.667,V
1262,-0.185,1.465,0.145,130.556,116.667,291.667,797.222,316.667,N
1263,0.030,1.680,-0.320,58.333,116.667,313.889,561.111,236.111,F
1264,-0.265,1.155,1.055,58.333,102.778,111.111,430.556,130.556,V
1265,-0.035,1.575,0.300,133.333,111.111,302.778,858.333,427.778,N
1266,0.310,2.005,-0.270,58.333,116.667,322.222,638.889,219.444,F
1267,-0.235,1.155,2.335,58.333,-754700.000,-698336.111,444.444,194.444,V
1268,-0.050,1.670,0.330,125.000,100.000,291.667,877.778,433.333,N
1269,0.015,1.240,0.270,94.444,116.667,116.667,566.667,311.111,V
1270,-0.160,1.080,1.175,58.333,100.000,111.111,455.556,111.111,V
1271,-0.105,1.560,0.205,133.333,52.778,277.778,886.111,430.556,N
1272,-0.145,1.150,0.900,77.778,113.889,113.889,555.556,330.556,V
1273,-0.250,1.140,0.925,58.333,116.667,116.667,469.444,86.111,V
1274,-0.090,1.590,0.240,138.889,113.889,308.333,861.111,391.667,N
1275,-0.100,1.110,2.335,97.222,-759952.778,-703588.889,580.556,280.556,V
1276,-0.300,1.040,1.050,58.333,94.444,113.889,491.667,88.889,V
1277,-0.075,1.615,0.320,136.111,86.111,275.000,863.889,372.222,N
1278,0.085,1.450,-0.180,58.333,116.667,333.333,588.889,275.000,F
1279,0.935,1.070,-0.305,58.333,116.667,397.222,519.444,69.444,V
1280,-0.130,1.505,0.195,130.556,102.778,294.444,780.556,261.111,N
1281,-0.045,1.540,-0.220,58.333,116.667,313.889,566.667,213.889,F
1282,-0.115,1.420,-0.245,58.333,116.667,330.556,452.778,113.889,V
1283,-0.045,1.665,0.265,150.000,113.889,308.333,772.222,319.444,N
1284,-0.060,1.340,-0.105,138.889,108.333,313.889,605.556,166.667,F
1285,-0.090,1.720,0.855,58.333,116.667,116.667,469.444,136.111,V
1286,-0.080,1.610,0.305,133.333,113.889,308.333,808.333,338.889,N
1287,-0.020,2.245,-0.130,136.111,113.889,305.556,602.778,205.556,F
1288,-0.130,1.100,1.025,183.333,100.000,113.889,430.556,172.222,V
1289,-0.120,1.590,0.255,130.556,77.778,266.667,877.778,447.222,N
1290,-0.055,1.260,0.960,77.778,116.667,116.667,547.222,330.556,V
1291,-0.205,1.175,2.335,183.333,-769822.222,-713458.333,491.667,55.556,V
1292,-0.045,1.625,0.270,136.111,83.333,272.222,769.444,277.778,N
1293,0.205,2.050,-0.240,58.333,116.667,325.000,597.222,172.222,F
1294,-0.195,1.310,2.335,58.333,-771625.000,-715261.111,436.111,161.111,V
1295,-0.045,1.710,0.315,147.222,94.444,291.667,863.889,427.778,N
1296,0.295,1.925,-0.235,58.333,113.889,319.444,622.222,241.667,F
1297,1.150,1.055,-0.345,44.444,72.222,338.889,486.111,136.111,V
1298,-0.165,1.550,0.190,130.556,75.000,266.667,802.778,316.667,N
1299,0.765,1.400,-0.295,58.333,111.111,316.667,580.556,222.222,V
1300,-0.215,1.415,0.280,58.333,116.667,116.667,444.444,136.111,V
1301,-0.060,1.630,0.290,127.778,63.889,241.667,775.000,330.556,N
1302,0.530,1.820,-0.255,58.333,116.667,350.000,583.333,191.667,F
1303,-0.210,1.090,1.045,58.333,105.556,111.111,436.111,147.222,V
1304,-0.075,1.660,0.295,138.889,100.000,291.667,911.111,475.000,N
1305,0.010,1.245,0.965,77.778,116.667,116.667,555.556,355.556,V
1306,-0.145,1.160,1.150,58.333,94.444,111.111,502.778,52.778,V
1307,-0.085,1.520,0.260,136.111,97.222,291.667,902.778,400.000,N
1308,-0.035,1.340,0.840,80.556,116.667,116.667,544.444,358.333,V
1309,-0.160,1.170,0.970,61.111,116.667,116.667,483.333,61.111,V
1310,0.010,1.700,0.315,133.333,86.111,247.222,769.444,286.111,N
1311,0.210,2.010,-0.235,58.333,116.667,325.000,550.000,219.444,F
1312,-0.165,1.480,0.140,58.333,116.667,116.667,433.333,116.667,V
1313,-0.050,1.650,0.345,144.444,66.667,288.889,813.889,380.556,N
1314,0.230,2.160,-0.110,58.333,113.889,319.444,627.778,186.111,F
1315,-0.050,1.195,2.335,58.333,-784766.667,-728402.778,452.778,175.000,V
1316,-0.060,1.610,0.250,130.556,80.556,275.000,894.444,441.667,N
1317,-0.040,1.290,0.845,58.333,116.667,116.667,538.889,355.556,V
1318,-0.235,1.195,2.335,58.333,-786691.667,-730327.778,491.667,47.222,V
1319,-0.030,1.650,0.330,133.333,100.000,275.000,869.444,377.778,N
1320,0.020,1.280,0.965,80.556,116.667,116.667,530.556,338.889,V
1321,-0.210,1.100,0.965,163.889,116.667,116.667,433.333,97.222,V
1322,-0.025,1.680,0.335,127.778,66.667,291.667,811.111,377.778,N
1323,0.270,2.085,-0.115,58.333,111.111,313.889,616.667,194.444,F
1324,-0.095,1.380,0.945,58.333,116.667,116.667,458.333,158.333,V
1325,-0.065,1.590,0.235,130.556,100.000,291.667,808.333,350.000,N
1326,0.130,2.080,-0.235,58.333,113.889,305.556,611.111,197.222,F
1327,-0.205,1.415,0.605,58.333,116.667,116.667,430.556,180.556,V
1328,0.025,1.590,0.360,122.222,100.000,277.778,788.889,358.333,N
1329,0.115,1.620,-0.185,58.333,116.667,319.444,563.889,225.000,F
1330,0.950,1.125,-0.265,58.333,116.667,294.444,477.778,86.111,V
1331,-0.065,1.730,0.285,133.333,58.333,277.778,786.111,308.333,N
1332,0.715,1.825,-0.215,58.333,116.667,327.778,611.111,175.000,F
1333,-0.160,1.205,0.890,58.333,116.667,116.667,455.556,155.556,V
1334,-0.045,1.590,0.250,138.889,63.889,275.000,805.556,350.000,N
1335,-0.065,2.260,-0.190,144.444,116.667,297.222,605.556,200.000,F
1336,-0.150,1.610,0.295,58.333,116.667,116.667,430.556,175.000,V
1337,-0.030,1.695,0.335,127.778,94.444,272.222,772.222,341.667,N
1338,0.005,2.290,-0.180,147.222,116.667,294.444,602.778,169.444,F
1339,-0.180,1.285,0.725,175.000,113.889,113.889,411.111,191.667,V
1340,-0.120,1.590,0.265,113.889,116.667,294.444,822.222,411.111,N
1341,-0.015,1.310,2.335,83.333,-800930.556,-744566.667,536.111,286.111,V
1342,-0.105,1.115,1.140,58.333,102.778,116.667,508.333,27.778,V
1343,-0.075,1.615,0.210,136.111,80.556,291.667,944.444,436.111,N
1344,-0.085,1.330,0.955,86.111,116.667,116.667,566.667,377.778,V
1345,-0.265,1.225,0.865,61.111,116.667,116.667,475.000,91.667,V
1346,-0.015,1.705,0.290,130.556,113.889,288.889,769.444,294.444,N
1347,-0.020,2.190,-0.200,144.444,116.667,294.444,580.556,188.889,F
1348,-0.200,1.525,0.210,180.556,116.667,116.667,419.444,161.111,V
1349,-0.115,1.615,0.270,125.000,100.000,288.889,775.000,355.556,N
1350,0.070,2.065,-0.205,58.333,113.889,302.778,580.556,194.444,F
1351,-0.205,1.085,1.055,58.333,94.444,111.111,433.333,147.222,V
1352,-0.120,1.445,0.135,127.778,52.778,280.556,875.000,441.667,N
1353,-0.170,1.175,2.335,94.444,-808425.000,-752061.111,566.667,308.333,V
1354,-0.295,1.200,0.985,58.333,100.000,111.111,508.333,58.333,V
1355,-0.060,1.615,0.270,127.778,83.333,288.889,827.778,319.444,N
1356,0.385,1.800,-0.325,58.333,111.111,405.556,591.667,236.111,F
1357,0.695,0.950,-0.395,58.333,108.333,386.111,452.778,138.889,V
1358,-0.155,1.560,0.230,119.444,100.000,275.000,730.556,277.778,N
1359,0.000,1.905,-0.250,58.333,116.667,405.556,569.444,161.111,F
1360,-0.255,1.100,0.890,58.333,116.667,116.667,402.778,166.667,V
1361,-0.130,1.520,0.155,136.111,86.111,291.667,811.111,408.333,N
1362,-0.125,2.180,-0.190,152.778,113.889,305.556,616.667,194.444,F
1363,-0.180,1.600,0.685,58.333,116.667,116.667,463.889,152.778,V
1364,-0.005,1.640,0.335,133.333,86.111,261.111,783.333,319.444,N
1365,-0.030,2.210,-0.245,58.333,116.667,308.333,580.556,202.778,F
1366,-0.190,1.300,0.695,58.333,116.667,116.667,430.556,150.000,V
1367,-0.065,1.630,0.310,130.556,83.333,288.889,836.111,405.556,N
1368,0.040,1.530,-0.235,58.333,113.889,333.333,558.333,277.778,F
1369,0.800,0.995,-0.315,58.333,116.667,397.222,488.889,69.444,V
1370,-0.150,1.515,0.130,130.556,83.333,272.222,744.444,255.556,N
1371,0.300,1.700,-0.350,58.333,113.889,402.778,597.222,147.222,F
1372,-0.230,1.300,0.535,58.333,116.667,116.667,458.333,138.889,V
1373,-0.020,1.590,0.260,136.111,61.111,286.111,811.111,352.778,N
1374,0.005,2.150,-0.225,58.333,116.667,311.111,611.111,200.000,F
1375,-0.225,1.395,0.365,58.333,116.667,116.667,430.556,180.556,V
1376,-0.090,1.560,0.260,130.556,63.889,275.000,800.000,369.444,N
1377,0.100,1.890,-0.240,58.333,111.111,316.667,561.111,238.889,F
1378,0.855,0.985,-0.350,58.333,116.667,405.556,480.556,80.556,V
1379,-0.125,1.455,0.165,116.667,69.444,261.111,761.111,280.556,N
1380,0.425,1.655,-0.335,58.333,116.667,394.444,583.333,177.778,F
1381,-0.200,1.295,0.545,58.333,116.667,116.667,469.444,113.889,V
1382,-0.045,1.545,0.265,141.667,63.889,272.222,808.333,338.889,N
1383,0.170,1.880,-0.315,58.333,116.667,330.556,600.000,208.333,F
1384,-0.290,1.285,-0.040,58.333,116.667,116.667,444.444,155.556,V
1385,-0.100,1.570,0.260,144.444,58.333,266.667,808.333,363.889,N
1386,0.085,2.020,-0.200,58.333,116.667,319.444,591.667,216.667,F
1387,-0.200,1.110,0.710,186.111,116.667,116.667,447.222,144.444,V
1388,-0.090,1.490,0.180,138.889,83.333,255.556,822.222,375.000,N
1389,0.640,1.475,-0.315,58.333,116.667,311.111,555.556,266.667,V
1390,-0.210,1.220,0.920,58.333,116.667,116.667,444.444,111.111,V
1391,-0.005,1.570,0.255,147.222,88.889,311.111,877.778,433.333,N
1392,0.420,1.730,-0.335,58.333,116.667,341.667,616.667,261.111,V
1393,-0.275,1.170,0.835,58.333,116.667,116.667,450.000,166.667,V
1394,0.010,1.650,0.345,130.556,116.667,294.444,783.333,333.333,N
1395,0.025,2.130,-0.180,130.556,116.667,308.333,583.333,200.000,F
1396,-0.175,1.330,-0.100,58.333,116.667,116.667,447.222,136.111,V
1397,-0.155,1.445,0.165,127.778,63.889,272.222,797.222,350.000,N
1398,-0.010,2.020,-0.250,58.333,113.889,302.778,577.778,219.444,F
1399,-0.245,1.270,0.625,63.889,116.667,116.667,430.556,147.222,V
1400,-0.035,1.530,0.195,144.444,80.556,275.000,761.111,330.556,N
1401,-0.125,1.965,-0.125,150.000,102.778,291.667,591.667,169.444,F
1402,-0.205,1.425,0.780,58.333,116.667,116.667,477.778,113.889,V
1403,-0.065,1.645,0.350,147.222,88.889,308.333,752.778,275.000,N
1404,0.005,1.745,-0.015,138.889,102.778,291.667,591.667,161.111,F
1405,-0.050,1.350,0.855,194.444,113.889,113.889,452.778,138.889,V
1406,-0.130,1.440,0.215,138.889,80.556,275.000,827.778,375.000,N
1407,0.270,1.880,-0.240,58.333,111.111,336.111,586.111,241.667,F
1408,-0.220,1.135,0.955,55.556,113.889,113.889,438.889,147.222,V
1409,0.000,1.670,0.290,136.111,83.333,275.000,788.889,350.000,N
1410,0.060,2.190,-0.245,58.333,111.111,319.444,605.556,183.333,F
1411,-0.150,1.530,0.470,58.333,116.667,116.667,472.222,133.333,V
1412,-0.055,1.585,0.285,138.889,80.556,272.222,811.111,338.889,N
1413,-0.060,2.115,-0.155,136.111,111.111,288.889,597.222,213.889,F
1414,-0.160,1.170,0.925,197.222,116.667,116.667,430.556,166.667,V
1415,-0.135,1.495,0.180,138.889,83.333,275.000,888.889,458.333,N
1416,0.185,1.895,-0.270,58.333,113.889,405.556,580.556,308.333,F
1417,-0.180,1.370,0.515,58.333,116.667,116.667,452.778,127.778,V
1418,0.020,1.710,0.355,125.000,100.000,283.333,736.111,283.333,N
1419,0.000,2.300,-0.165,144.444,116.667,313.889,586.111,150.000,F
1420,-0.145,1.620,0.510,58.333,116.667,116.667,455.556,130.556,V
1421,-0.040,1.650,0.320,150.000,86.111,277.778,883.333,427.778,N
1422,0.010,1.240,0.995,100.000,116.667,116.667,600.000,283.333,V
1423,-0.200,1.120,0.915,58.333,116.667,116.667,500.000,100.000,V
1424,-0.125,1.535,0.150,130.556,83.333,263.889,880.556,380.556,N
1425,-0.165,1.255,0.745,83.333,116.667,116.667,538.889,341.667,V
1426,-0.300,1.165,0.910,58.333,116.667,116.667,500.000,38.889,V
1427,-0.070,1.520,0.240,141.667,83.333,277.778,825.000,325.000,N
1428,0.155,1.825,-0.380,58.333,116.667,316.667,566.667,258.333,F
1429,-0.360,1.115,0.670,58.333,116.667,116.667,438.889,127.778,V
1430,-0.185,1.580,0.245,133.333,86.111,275.000,852.778,413.889,N
1431,0.350,1.855,-0.270,58.333,116.667,316.667,625.000,227.778,F
1432,-0.230,1.035,0.820,58.333,116.667,116.667,447.222,177.778,V
1433,-0.175,1.495,0.150,141.667,47.222,263.889,869.444,422.222,N
1434,0.495,1.680,-0.315,58.333,116.667,313.889,616.667,252.778,F
1435,-0.215,1.435,0.270,58.333,116.667,116.667,444.444,172.222,V
1436,-0.030,1.605,0.280,130.556,91.667,275.000,794.444,350.000,N
1437,-0.100,1.830,-0.325,108.333,113.889,319.444,558.333,236.111,F
1438,-0.280,1.120,2.360,58.333,-860733.333,-11769.444,433.333,125.000,V
1439,-0.115,1.605,0.295,130.556,116.667,308.333,894.444,461.111,N
1440,0.210,1.580,-0.240,58.333,116.667,330.556,613.889,280.556,F
1441,-0.220,1.150,0.825,61.111,116.667,116.667,463.889,150.000,V
1442,-0.130,1.575,0.195,130.556,50.000,275.000,841.667,377.778,N
1443,-0.055,1.440,-0.280,58.333,116.667,333.333,591.667,250.000,F
1444,-0.215,1.310,0.675,58.333,116.667,116.667,458.333,133.333,V
1445,-0.090,1.480,0.185,133.333,116.667,308.333,816.667,358.333,N
1446,-0.105,1.560,-0.325,58.333,116.667,405.556,583.333,233.333,F
1447,-0.325,1.110,0.715,58.333,116.667,116.667,405.556,177.778,V
1448,-0.110,1.560,0.275,136.111,86.111,275.000,797.222,391.667,N
1449,-0.040,1.595,-0.120,130.556,113.889,313.889,608.333,188.889,F
1450,-0.160,1.185,0.980,58.333,108.333,113.889,480.556,127.778,V
1451,-0.115,1.530,0.190,138.889,52.778,272.222,847.222,366.667,N
1452,-0.095,2.085,-0.055,147.222,116.667,294.444,591.667,255.556,F
1453,-0.100,1.515,0.855,191.667,116.667,116.667,441.667,150.000,V
1454,-0.020,1.500,0.185,127.778,80.556,269.444,736.111,294.444,N
1455,-0.190,1.660,-0.130,138.889,100.000,261.111,580.556,155.556,F
1456,-0.260,1.310,0.575,194.444,116.667,116.667,438.889,141.667,V
1457,-0.220,1.365,0.240,136.111,88.889,305.556,708.333,269.444,N
1458,-0.095,1.385,0.100,152.778,83.333,261.111,636.111,72.222,N
1459,-0.275,1.125,0.820,58.333,105.556,113.889,525.000,111.111,V
1460,-0.340,1.340,0.200,136.111,75.000,280.556,769.444,244.444,N
1461,-0.235,1.275,0.025,133.333,77.778,288.889,602.778,166.667,N
1462,-0.240,1.590,0.835,77.778,116.667,116.667,494.444,108.333,V
1463,-0.150,1.510,0.140,116.667,88.889,294.444,922.222,427.778,N
1464,-0.330,0.755,0.585,197.222,111.111,111.111,580.556,341.667,V
1465,-0.545,0.730,0.180,58.333,116.667,116.667,441.667,138.889,V
1466,-0.350,1.150,-0.010,122.222,83.333,294.444,866.667,425.000,N
1467,-0.180,1.280,-0.395,58.333,113.889,383.333,566.667,300.000,F
1468,-0.185,1.285,0.740,58.333,116.667,116.667,491.667,75.000,V
1469,-0.135,1.530,0.245,133.333,86.111,308.333,716.667,225.000,N
1470,-0.080,1.450,0.190,144.444,77.778,286.111,580.556,136.111,N
1471,-0.065,1.515,0.270,122.222,80.556,255.556,541.667,38.889,N
1472,-0.040,1.520,0.255,136.111,83.333,258.333,533.333,8.333,N
1473,-0.025,1.560,0.195,141.667,80.556,277.778,538.889,5.556,N
1474,-0.075,1.425,0.100,144.444,69.444,275.000,566.667,27.778,N
1475,-0.195,1.475,-0.015,125.000,83.333,255.556,586.111,19.444,N
1476,-0.255,1.340,0.010,133.333,88.889,275.000,555.556,30.556,N
1477,-0.250,1.335,0.055,125.000,97.222,272.222,558.333,2.778,N
1478,-0.180,1.995,-0.285,138.889,113.889,305.556,613.889,55.556,F
1479,-0.285,0.955,0.850,58.333,100.000,111.111,430.556,183.333,V
1480,-0.265,1.315,0.130,127.778,86.111,297.222,861.111,430.556,N
1481,-0.140,1.795,0.010,136.111,83.333,255.556,605.556,255.556,F
1482,-0.065,1.285,0.945,197.222,102.778,111.111,447.222,158.333,V
1483,-0.065,1.460,0.240,136.111,75.000,261.111,669.444,222.222,N
1484,-0.095,1.420,0.150,138.889,44.444,244.444,541.667,127.778,N
1485,-0.210,1.480,0.090,133.333,83.333,238.889,525.000,16.667,N
1486,-0.080,1.405,0.595,66.667,116.667,116.667,463.889,61.111,V
1487,-0.320,1.390,0.180,136.111,77.778,291.667,708.333,244.444,N
1488,-0.165,1.405,0.120,133.333,86.111,261.111,611.111,97.222,N
1489,-0.070,1.880,-0.315,58.333,116.667,319.444,591.667,19.444,F
1490,-0.200,1.430,0.130,136.111,50.000,261.111,577.778,13.889,N
1491,-0.210,1.265,0.140,130.556,66.667,275.000,575.000,2.778,N
1492,-0.200,1.820,-0.040,138.889,100.000,275.000,580.556,5.556,F
1493,-0.205,1.195,0.600,58.333,116.667,116.667,458.333,122.222,V
1494,-0.190,1.405,0.305,125.000,80.556,288.889,644.444,186.111,N
1495,-0.045,1.535,0.165,144.444,63.889,258.333,547.222,97.222,N
1496,-0.110,1.360,0.165,125.000,80.556,275.000,533.333,13.889,N
1497,-0.020,1.305,0.565,58.333,116.667,116.667,480.556,52.778,V
1498,-0.120,1.445,0.225,147.222,116.667,294.444,611.111,130.556,N
1499,-0.135,1.320,0.065,152.778,100.000,291.667,605.556,5.556,N
1500,-0.100,2.095,-0.135,58.333,116.667,313.889,661.111,55.556,F
1501,-0.135,1.065,0.955,194.444,94.444,108.333,455.556,205.556,V
1502,-0.370,1.330,-0.040,138.889,108.333,283.333,902.778,447.222,N
1503,-0.200,1.010,2.360,105.556,-899961.111,-50997.222,550.000,352.778,V
1504,-0.295,1.290,0.245,58.333,116.667,116.667,486.111,63.889,V
1505,-0.035,1.510,0.155,130.556,72.222,252.778,783.333,297.222,N
1506,0.070,2.090,0.120,133.333,102.778,261.111,577.778,205.556,N
1507,-0.035,1.380,-0.140,61.111,113.889,394.444,458.333,119.444,V
1508,0.035,1.240,0.845,136.111,63.889,250.000,691.667,233.333,N
1509,0.005,0.705,0.125,172.222,72.222,141.667,225.000,466.667,|
1510,-0.095,1.505,0.305,127.778,111.111,358.333,369.444,144.444,N
1511,-0.145,1.655,0.025,138.889,102.778,294.444,591.667,222.222,F
1512,-0.080,1.530,0.870,58.333,116.667,116.667,486.111,105.556,V
1513,-0.475,0.155,0.000,55.556,111.111,394.444,352.778,133.333,|
1514,0.090,1.830,0.250,97.222,111.111,305.556,502.778,150.000,N
1515,-0.050,1.365,-0.135,141.667,108.333,291.667,597.222,94.444,F
1516,-0.230,1.370,0.570,191.667,116.667,116.667,463.889,133.333,V
1517,-0.100,1.560,0.295,133.333,116.667,291.667,725.000,261.111,N
1518,-0.050,1.565,0.225,138.889,83.333,255.556,575.000,150.000,N
1519,0.015,1.330,-0.015,197.222,116.667,116.667,447.222,127.778,V
1520,-0.070,1.540,0.245,144.444,55.556,272.222,755.556,308.333,N
1521,-0.090,1.400,0.160,147.222,80.556,288.889,619.444,136.111,N
1522,-0.140,1.090,0.855,58.333,105.556,113.889,566.667,52.778,V
1523,-0.175,1.425,0.145,152.778,100.000,275.000,708.333,141.667,N
1524,-0.230,1.255,0.025,130.556,77.778,272.222,591.667,116.667,N
1525,-0.230,1.615,-0.430,58.333,113.889,322.222,594.444,2.778,F
1526,-0.410,1.100,0.640,58.333,116.667,116.667,461.111,133.333,V
1527,-0.200,1.385,0.205,133.333,116.667,291.667,800.000,338.889,N
1528,-0.135,1.200,-0.125,127.778,111.111,275.000,577.778,222.222,F
1529,-0.125,1.470,0.320,172.222,116.667,116.667,408.333,169.444,V
1530,-0.190,1.390,0.180,133.333,52.778,277.778,797.222,388.889,N
1531,-0.140,1.755,0.105,152.778,105.556,275.000,622.222,175.000,F
1532,-0.135,1.445,0.750,197.222,116.667,116.667,463.889,158.333,V
1533,-0.095,1.445,0.260,147.222,83.333,305.556,827.778,363.889,N
1534,-0.095,1.445,0.160,150.000,50.000,258.333,605.556,222.222,N
1535,-0.140,1.045,0.760,80.556,113.889,113.889,511.111,94.444,V
1536,-0.170,1.530,0.260,141.667,83.333,275.000,647.222,136.111,N
1537,-0.130,1.480,0.185,150.000,58.333,258.333,608.333,38.889,N
1538,-0.105,0.995,0.910,58.333,116.667,116.667,569.444,38.889,V
1539,-0.280,1.285,0.160,144.444,83.333,272.222,752.778,183.333,N
1540,-0.240,1.380,0.185,161.111,83.333,280.556,672.222,80.556,N
1541,-0.080,1.115,2.360,58.333,-922052.778,-73088.889,597.222,75.000,V
1542,-0.115,1.285,2.360,58.333,-922691.667,-73727.778,638.889,41.667,V
1543,-0.190,1.495,0.175,133.333,50.000,258.333,852.778,213.889,N
1544,-0.165,1.080,0.990,58.333,100.000,111.111,569.444,283.333,V
1545,-0.325,0.930,1.005,63.889,88.889,113.889,530.556,38.889,V
1546,-0.135,1.515,0.220,133.333,111.111,288.889,902.778,372.222,N
1547,-0.130,1.045,0.770,55.556,113.889,113.889,541.667,361.111,V
1548,-0.345,0.880,1.225,61.111,55.556,69.444,472.222,69.444,V
1549,-0.130,1.530,0.290,147.222,66.667,288.889,861.111,388.889,N
1550,-0.030,1.315,-0.065,141.667,116.667,319.444,630.556,230.556,F
1551,-0.100,1.225,1.070,58.333,94.444,113.889,502.778,127.778,V
1552,-0.055,1.435,0.250,136.111,77.778,258.333,794.444,291.667,N
1553,-0.095,1.830,0.070,144.444,94.444,272.222,608.333,186.111,F
1554,-0.020,1.410,0.765,197.222,116.667,116.667,450.000,158.333,V
1555,-0.195,1.155,2.360,58.333,-930986.111,-82022.222,577.778,127.778,V
1556,-0.120,1.405,0.225,127.778,61.111,269.444,972.222,394.444,N
1557,-0.120,1.100,0.965,58.333,108.333,113.889,511.111,461.111,V
1558,-0.100,1.450,0.335,144.444,61.111,269.444,722.222,211.111,N
1559,-0.085,1.415,0.220,141.667,63.889,277.778,633.333,88.889,N
1560,-0.180,1.070,1.005,83.333,105.556,111.111,605.556,27.778,V
1561,-0.310,0.845,1.180,58.333,58.333,69.444,558.333,47.222,V
1562,-0.170,1.530,0.285,138.889,80.556,277.778,900.000,341.667,N
1563,-0.095,1.050,1.015,58.333,102.778,111.111,555.556,344.444,V
1564,-0.170,1.490,0.230,136.111,52.778,241.667,722.222,166.667,N
1565,-0.205,1.335,0.140,152.778,61.111,255.556,622.222,100.000,N
1566,-0.220,1.060,0.980,63.889,113.889,113.889,541.667,80.556,V
1567,-0.210,1.090,2.360,58.333,-938891.667,-89927.778,561.111,19.444,V
1568,-0.150,1.445,0.250,158.333,63.889,277.778,936.111,375.000,N
1569,-0.135,1.050,2.360,58.333,-940402.778,-91438.889,575.000,361.111,V
1570,-0.270,0.995,1.005,58.333,97.222,113.889,525.000,50.000,V
1571,-0.165,1.530,0.215,138.889,100.000,294.444,927.778,402.778,N
1572,-0.140,1.000,0.935,58.333,111.111,116.667,566.667,361.111,V
1573,-0.205,1.495,0.220,150.000,86.111,261.111,727.778,161.111,N
1574,-0.195,1.465,0.230,133.333,47.222,241.667,602.778,125.000,N
1575,-0.125,2.065,-0.170,116.667,116.667,297.222,563.889,38.889,F
1576,-0.155,1.590,0.750,58.333,116.667,116.667,469.444,94.444,V
1577,-0.065,1.590,0.315,150.000,100.000,291.667,852.778,383.333,N
1578,-0.125,1.360,2.360,97.222,-946269.444,-97305.556,630.556,222.222,V
1579,-0.235,1.150,0.845,58.333,116.667,116.667,469.444,161.111,V
1580,-0.160,1.575,0.185,141.667,86.111,288.889,1005.556,536.111,N
1581,-0.275,1.185,0.920,58.333,97.222,111.111,547.222,458.333,V
1582,-0.170,1.355,0.235,130.556,80.556,288.889,772.222,225.000,N
1583,-0.200,1.330,0.140,144.444,55.556,261.111,619.444,152.778,N
1584,-0.060,1.900,-0.270,58.333,113.889,405.556,605.556,13.889,F
1585,-0.190,1.290,1.065,58.333,97.222,111.111,466.667,138.889,V
1586,0.005,1.615,0.285,144.444,113.889,305.556,763.889,297.222,N
1587,-0.115,1.495,0.140,158.333,55.556,275.000,622.222,141.667,N
1588,-0.095,1.320,0.930,58.333,105.556,113.889,505.556,116.667,V
1589,-0.095,1.545,0.325,144.444,80.556,288.889,700.000,194.444,N
1590,-0.075,1.500,0.280,150.000,86.111,291.667,588.889,111.111,N
1591,-0.005,1.425,0.175,136.111,100.000,291.667,572.222,16.667,F
1592,0.015,1.230,0.915,58.333,116.667,116.667,466.667,105.556,V
1593,-0.030,1.455,0.340,138.889,105.556,280.556,686.111,219.444,N
1594,-0.005,1.395,0.240,136.111,75.000,255.556,563.889,122.222,N
1595,-0.040,1.495,0.265,155.556,88.889,305.556,600.000,36.111,N
1596,-0.065,1.415,0.120,158.333,102.778,288.889,705.556,105.556,N
1597,-0.180,1.325,0.130,161.111,61.111,272.222,669.444,36.111,N
1598,-0.160,1.085,0.760,69.444,116.667,116.667,588.889,80.556,V
1599,-0.285,0.910,1.010,58.333,86.111,113.889,533.333,55.556,V
1600,-0.105,1.510,0.260,136.111,102.778,277.778,941.667,408.333,N
1601,-0.090,1.060,1.015,61.111,108.333,113.889,538.889,402.778,V
1602,-0.240,1.005,0.960,58.333,102.778,111.111,497.222,41.667,V
1603,-0.010,1.615,0.300,127.778,97.222,275.000,938.889,441.667,N
1604,-0.040,1.135,2.360,83.333,-962758.333,-113794.444,519.444,419.444,V
1605,-0.250,1.180,0.905,58.333,116.667,116.667,494.444,25.000,V
1606,-0.060,1.540,0.300,150.000,86.111,286.111,825.000,330.556,N
1607,-0.020,2.070,-0.025,150.000,116.667,308.333,647.222,177.778,F
1608,-0.060,1.540,0.470,58.333,116.667,116.667,463.889,183.333,V
1609,-0.045,1.480,0.350,125.000,102.778,283.333,861.111,397.222,N
1610,0.070,1.170,2.360,80.556,-966605.556,-117641.667,555.556,305.556,V
1611,-0.115,0.995,1.060,58.333,97.222,113.889,491.667,63.889,V
1612,-0.035,1.485,0.265,130.556,86.111,272.222,927.778,436.111,N
1613,-0.060,1.090,0.935,58.333,116.667,116.667,519.444,408.333,V
1614,-0.145,1.000,1.110,58.333,100.000,116.667,547.222,27.778,V
1615,-0.070,1.520,0.320,147.222,113.889,313.889,950.000,402.778,N
1616,0.015,1.135,0.940,58.333,116.667,116.667,561.111,388.889,V
1617,-0.220,0.935,1.070,58.333,97.222,113.889,530.556,30.556,V
1618,-0.170,1.510,0.240,138.889,88.889,277.778,947.222,416.667,N
1619,-0.135,1.000,0.795,61.111,116.667,116.667,544.444,402.778,V
1620,-0.165,1.385,0.155,133.333,100.000,261.111,736.111,191.667,N
1621,-0.210,1.300,0.130,150.000,83.333,283.333,636.111,100.000,N
1622,-0.195,1.130,0.830,58.333,116.667,116.667,533.333,102.778,V
1623,-0.155,1.445,0.265,152.778,88.889,308.333,780.556,247.222,N
1624,-0.175,1.365,0.150,152.778,58.333,288.889,705.556,75.000,N
1625,-0.120,1.170,0.920,58.333,116.667,116.667,605.556,100.000,V
1626,-0.115,1.420,0.305,147.222,55.556,263.889,805.556,200.000,N
1627,-0.100,1.410,0.250,158.333,75.000,272.222,661.111,144.444,N
1628,-0.075,1.085,0.840,61.111,116.667,116.667,586.111,75.000,V
1629,-0.230,1.480,0.205,152.778,113.889,288.889,788.889,202.778,N
1630,-0.185,1.110,0.870,58.333,116.667,116.667,583.333,205.556,V
1631,-0.240,0.905,0.930,58.333,97.222,111.111,450.000,133.333,V
1632,-0.175,1.430,0.180,133.333,91.667,294.444,1000.000,550.000,N
1633,-0.085,1.145,0.935,58.333,105.556,113.889,563.889,436.111,V
1634,-0.185,1.225,2.360,58.333,-982661.111,-133697.222,600.000,36.111,V
1635,-0.030,1.510,0.265,133.333,113.889,305.556,769.444,169.444,N
1636,-0.105,1.290,0.135,155.556,100.000,275.000,622.222,147.222,N
1637,-0.005,1.360,-0.350,58.333,116.667,336.111,583.333,38.889,F
1638,-0.310,1.135,0.595,58.333,116.667,116.667,483.333,100.000,V
1639,-0.070,1.510,0.290,138.889,83.333,272.222,850.000,366.667,N
1640,-0.035,1.100,1.025,58.333,108.333,113.889,536.111,313.889,V
1641,-0.225,1.010,1.110,58.333,88.889,113.889,572.222,36.111,V
1642,-0.055,1.625,0.335,133.333,86.111,280.556,1038.889,466.667,N
1643,-0.055,1.255,2.360,58.333,-988669.444,-139705.556,552.778,486.111,V
1644,0.045,1.595,0.425,152.778,111.111,291.667,816.667,263.889,N
1645,0.020,1.480,0.225,158.333,63.889,275.000,638.889,177.778,N
1646,-0.140,1.595,-0.270,58.333,116.667,336.111,627.778,11.111,F
1647,-0.125,1.450,0.280,138.889,100.000,275.000,652.778,25.000,N
1648,-0.090,1.465,0.200,141.667,61.111,263.889,636.111,16.667,N
1649,-0.235,1.125,1.015,116.667,100.000,113.889,508.333,127.778,V
1650,-0.180,1.465,0.180,155.556,63.889,302.778,894.444,386.111,N
1651,-0.170,1.145,2.360,58.333,-994094.444,-145130.556,650.000,244.444,V
1652,-0.370,0.855,0.850,58.333,102.778,111.111,472.222,177.778,V
1653,-0.035,1.410,0.195,113.889,69.444,263.889,977.778,505.556,N
1654,-0.090,1.140,0.815,58.333,116.667,116.667,544.444,433.333,V
1655,-0.355,1.050,0.860,58.333,116.667,116.667,513.889,30.556,V
1656,-0.095,1.460,0.295,125.000,100.000,294.444,752.778,238.889,N
1657,-0.035,1.175,-0.095,130.556,113.889,302.778,577.778,175.000,F
1658,-0.165,1.175,0.840,191.667,116.667,116.667,455.556,122.222,V
1659,-0.115,1.470,0.220,138.889,52.778,288.889,852.778,397.222,N
1660,-0.075,1.045,2.360,86.111,-999830.556,-150866.667,586.111,266.667,V
1661,-0.240,0.965,1.255,58.333,58.333,69.444,552.778,33.333,V
1662,-0.140,1.565,0.280,127.778,58.333,283.333,897.222,344.444,N
1663,-0.135,1.150,2.360,55.556,-1001850.000,-152886.111,569.444,327.778,V
1664,-0.185,1.615,0.375,52.778,80.556,275.000,677.778,108.333,N
1665,-0.150,1.580,0.280,66.667,111.111,286.111,630.556,47.222,N
1666,-0.170,1.010,2.360,77.778,-1003700.000,-154736.111,544.444,86.111,V
1667,-0.140,1.500,0.340,133.333,69.444,288.889,758.333,213.889,N
1668,-0.075,1.510,0.255,166.667,88.889,305.556,661.111,97.222,N
1669,-0.125,0.895,0.895,58.333,113.889,119.444,583.333,77.778,V
1670,-0.225,1.375,0.260,147.222,69.444,275.000,816.667,233.333,N
1671,-0.210,1.435,0.225,136.111,55.556,255.556,672.222,144.444,N
1672,-0.195,1.180,0.820,58.333,116.667,116.667,544.444,127.778,V
1673,-0.195,1.500,0.350,144.444,102.778,297.222,761.111,216.667,N
1674,-0.070,1.560,0.295,155.556,83.333,255.556,644.444,116.667,N
1675,0.000,1.220,2.360,58.333,-1009694.444,-160730.556,552.778,91.667,V
1676,-0.090,1.640,0.365,122.222,100.000,261.111,647.222,94.444,N
1677,0.040,1.510,0.310,150.000,113.889,288.889,563.889,83.333,N
1678,-0.085,1.320,-0.115,144.444,116.667,313.889,594.444,30.556,F
1679,-0.090,1.125,2.360,88.889,-1012058.333,-163094.444,558.333,36.111,V
1680,-0.020,1.535,0.390,152.778,80.556,291.667,719.444,161.111,N
1681,-0.015,1.500,0.275,155.556,102.778,275.000,663.889,55.556,N
1682,-0.180,1.230,2.360,63.889,-1013966.667,-165002.778,525.000,138.889,V
1683,-0.150,1.480,0.255,141.667,72.222,263.889,863.889,338.889,N
1684,-0.075,1.650,0.080,138.889,102.778,291.667,630.556,233.333,F
1685,-0.055,1.200,2.360,197.222,-1015927.778,-166963.889,466.667,163.889,V
1686,-0.230,1.005,1.050,58.333,94.444,113.889,486.111,19.444,V
1687,-0.235,1.375,0.175,175.000,77.778,263.889,466.667,19.444,N
1688,-0.265,1.525,0.080,30.556,83.333,261.111,625.000,158.333,N
1689,-0.275,1.585,0.070,150.000,86.111,277.778,652.778,27.778,N
1690,-0.135,1.155,2.360,197.222,-1018633.333,-169669.444,472.222,180.556,V
1691,-0.205,1.080,2.360,58.333,-1019194.444,-170230.556,563.889,91.667,V
1692,-0.315,1.300,0.165,105.556,102.778,277.778,416.667,147.222,N
1693,-0.150,1.435,0.085,152.778,83.333,272.222,650.000,233.333,N
1694,0.075,1.790,-0.225,58.333,116.667,338.889,630.556,19.444,F
1695,-0.190,1.050,2.360,61.111,-1021375.000,-172411.111,480.556,150.000,V
1696,0.030,1.655,0.365,138.889,83.333,244.444,875.000,394.444,N
1697,0.095,1.190,2.360,61.111,-1022775.000,-173811.111,525.000,350.000,V
1698,-0.135,1.110,2.360,58.333,-1023316.667,-174352.778,544.444,19.444,V
1699,-0.030,1.575,0.330,136.111,86.111,291.667,947.222,402.778,N
1700,0.005,1.150,2.360,88.889,-1024847.222,-175883.333,583.333,363.889,V
1701,-0.125,1.485,0.175,150.000,86.111,261.111,680.556,97.222,N
1702,-0.170,1.475,0.150,150.000,86.111,294.444,613.889,66.667,N
1703,-0.155,1.660,-0.230,133.333,116.667,313.889,600.000,13.889,F
1704,-0.200,1.115,0.995,58.333,116.667,116.667,475.000,125.000,V
1705,-0.050,1.550,0.285,144.444,86.111,291.667,905.556,430.556,N
1706,-0.045,1.075,0.985,72.222,116.667,116.667,525.000,380.556,V
1707,-0.265,1.065,2.360,58.333,-1029186.111,-180222.222,538.889,13.889,V
1708,-0.090,1.545,0.330,141.667,63.889,291.667,850.000,311.111,N
1709,0.005,1.085,2.360,97.222,-1030638.889,-181675.000,602.778,247.222,V
1710,-0.140,1.050,0.920,77.778,113.889,113.889,650.000,47.222,V
1711,-0.145,1.520,0.255,150.000,113.889,288.889,688.889,38.889,N
1712,-0.120,1.460,0.235,138.889,80.556,255.556,605.556,83.333,N
1713,-0.065,1.100,0.930,63.889,113.889,113.889,558.333,47.222,V
1714,-0.065,1.445,0.265,152.778,100.000,275.000,758.333,200.000,N
1715,-0.125,1.430,0.180,147.222,80.556,291.667,608.333,150.000,N
1716,-0.100,1.130,1.010,58.333,105.556,113.889,580.556,27.778,V
1717,-0.080,1.515,0.295,155.556,80.556,294.444,811.111,230.556,N
1718,-0.130,1.510,0.155,155.556,83.333,275.000,686.111,125.000,N
1719,-0.240,1.030,0.955,58.333,116.667,116.667,566.667,119.444,V
1720,-0.220,1.430,0.225,144.444,61.111,283.333,805.556,238.889,N
1721,-0.170,1.405,0.150,158.333,83.333,277.778,697.222,108.333,N
1722,-0.245,0.990,0.840,58.333,116.667,116.667,544.444,152.778,V
1723,-0.220,1.400,0.170,130.556,83.333,261.111,761.111,216.667,N
1724,-0.185,1.380,0.240,122.222,83.333,258.333,594.444,166.667,N
1725,0.000,1.165,1.015,58.333,111.111,113.889,563.889,30.556,V
1726,-0.040,1.515,0.275,155.556,86.111,280.556,750.000,186.111,N
1727,-0.095,1.340,0.135,141.667,63.889,272.222,672.222,77.778,N
1728,-0.215,0.980,0.910,58.333,108.333,116.667,597.222,75.000,V
1729,-0.180,1.450,0.260,144.444,86.111,294.444,722.222,125.000,N
1730,-0.090,1.375,0.215,136.111,80.556,255.556,658.333,63.889,N
1731,-0.250,1.070,0.990,147.222,100.000,113.889,544.444,113.889,V
1732,-0.250,1.310,0.130,138.889,80.556,272.222,841.667,297.222,N
1733,-0.210,1.690,0.105,130.556,113.889,291.667,611.111,230.556,F
1734,-0.230,1.210,0.945,58.333,116.667,116.667,488.889,122.222,V
1735,-0.285,0.895,0.905,58.333,102.778,113.889,458.333,30.556,V
1736,-0.190,1.250,0.040,183.333,80.556,255.556,491.667,33.333,N
1737,-0.250,1.315,0.015,147.222,83.333,308.333,644.444,152.778,N
1738,-0.235,1.315,-0.100,130.556,111.111,291.667,630.556,13.889,F
1739,-0.150,1.110,0.995,197.222,97.222,113.889,458.333,172.222,V
1740,-0.210,1.070,2.360,58.333,-1050330.556,-201366.667,641.667,183.333,V
1741,-0.355,0.885,0.060,58.333,80.556,269.444,444.444,197.222,N
1742,-0.230,1.360,0.025,144.444,83.333,277.778,588.889,144.444,N
1743,-0.230,1.740,-0.360,130.556,116.667,297.222,600.000,11.111,F
1744,-0.360,1.335,0.630,58.333,116.667,116.667,461.111,138.889,V
1745,-0.090,1.645,0.315,144.444,80.556,308.333,836.111,375.000,N
1746,-0.065,1.125,2.360,88.889,-1053875.000,-204911.111,613.889,222.222,V
1747,-0.070,1.030,2.360,58.333,-1054397.222,-205433.333,522.222,91.667,V
1748,0.065,1.625,0.435,138.889,83.333,275.000,844.444,322.222,N
1749,0.320,2.040,-0.065,58.333,116.667,322.222,580.556,263.889,F
1750,0.010,1.085,0.990,66.667,116.667,116.667,513.889,66.667,V
1751,-0.095,1.455,0.305,144.444,83.333,291.667,613.889,100.000,N
1752,-0.015,1.385,0.260,144.444,80.556,288.889,563.889,50.000,N
1753,-0.050,1.360,-0.130,136.111,116.667,288.889,575.000,11.111,F
1754,-0.055,1.080,0.960,63.889,116.667,116.667,513.889,61.111,V
1755,-0.065,1.575,0.315,141.667,102.778,291.667,758.333,244.444,N
1756,0.275,1.915,-0.180,58.333,116.667,333.333,666.667,91.667,F
1757,1.040,0.920,-0.305,47.222,66.667,261.111,525.000,141.667,V
1758,-0.115,1.490,0.180,136.111,86.111,280.556,983.333,458.333,N
1759,-0.120,0.980,0.825,58.333,116.667,116.667,544.444,438.889,V
1760,-0.075,1.530,0.330,138.889,80.556,261.111,713.889,169.444,N
1761,-0.025,1.500,0.200,155.556,86.111,258.333,616.667,97.222,N
1762,0.695,0.965,-0.415,58.333,113.889,313.889,600.000,16.667,V
1763,-0.295,1.015,0.945,58.333,116.667,116.667,547.222,52.778,V
1764,-0.150,1.510,0.290,155.556,116.667,308.333,780.556,233.333,N
1765,-0.045,1.430,0.230,152.778,66.667,277.778,672.222,108.333,N
1766,-0.195,1.025,0.960,58.333,116.667,116.667,577.778,94.444,V
1767,-0.190,1.495,0.345,155.556,80.556,291.667,808.333,230.556,N
1768,-0.100,1.505,0.280,158.333,66.667,277.778,702.778,105.556,N
1769,-0.215,1.155,0.995,152.778,116.667,116.667,561.111,141.667,V
1770,-0.170,1.445,0.275,136.111,69.444,261.111,847.222,286.111,N
1771,-0.170,1.545,0.245,58.333,97.222,272.222,608.333,238.889,S
1772,-0.195,1.070,0.890,58.333,100.000,116.667,475.000,133.333,V
1773,-0.300,0.825,1.150,197.222,58.333,72.222,513.889,38.889,V
1774,-0.335,1.235,0.105,61.111,83.333,288.889,444.444,69.444,N
1775,-0.310,1.400,0.030,44.444,77.778,272.222,583.333,138.889,S
1776,-0.310,1.420,-0.145,58.333,116.667,319.444,694.444,111.111,F
1777,-0.145,0.945,0.890,183.333,102.778,113.889,444.444,250.000,V
1778,-0.130,1.420,0.190,133.333,83.333,272.222,1088.889,644.444,N
1779,-0.100,1.125,2.360,77.778,-1074933.333,-225969.444,572.222,516.667,V
1780,-0.080,1.505,0.305,138.889,77.778,275.000,730.556,158.333,N
1781,-0.075,1.475,0.145,138.889,77.778,241.667,616.667,113.889,N
1782,-0.185,1.035,0.220,88.889,116.667,116.667,550.000,66.667,V
1783,-0.150,1.475,0.290,150.000,77.778,291.667,713.889,163.889,N
1784,-0.060,1.560,0.310,150.000,97.222,275.000,713.889,0.000,N
1785,-0.095,1.110,2.360,58.333,-1078833.333,-229869.444,575.000,138.889,V
1786,-0.085,1.530,0.325,152.778,52.778,277.778,894.444,319.444,N
1787,-0.045,1.890,0.310,150.000,80.556,258.333,683.333,211.111,N
1788,0.070,1.180,2.360,197.222,-1080875.000,-231911.111,461.111,222.222,V
1789,-0.090,1.075,2.360,52.778,-1081358.333,-232394.444,480.556,19.444,V
1790,-0.110,1.380,0.260,169.444,116.667,286.111,458.333,22.222,N
1791,-0.100,1.570,0.140,136.111,86.111,275.000,636.111,177.778,N
1792,-0.165,1.185,0.915,94.444,116.667,116.667,605.556,30.556,V
1793,-0.150,1.485,0.330,158.333,63.889,275.000,750.000,144.444,N
1794,-0.055,1.395,0.240,155.556,80.556,294.444,680.556,69.444,N
1795,-0.175,1.015,0.985,58.333,102.778,113.889,588.889,91.667,V
1796,-0.245,1.335,0.150,141.667,75.000,266.667,847.222,258.333,N
1797,-0.165,1.375,0.265,152.778,77.778,258.333,680.556,166.667,N
1798,-0.080,1.160,0.975,58.333,116.667,116.667,566.667,113.889,V
1799,-0.110,1.565,0.320,155.556,83.333,261.111,850.000,283.333,N
1800,-0.080,1.870,0.140,141.667,83.333,261.111,638.889,211.111,N
1801,-0.195,1.145,1.035,58.333,105.556,113.889,483.333,155.556,V
1802,-0.260,0.935,0.875,58.333,105.556,113.889,497.222,13.889,V
1803,-0.265,1.350,0.245,80.556,86.111,294.444,491.667,5.556,N
1804,-0.140,1.545,0.280,166.667,83.333,302.778,736.111,244.444,N
1805,0.810,1.085,-0.255,58.333,113.889,305.556,652.778,83.333,V
1806,-0.040,1.530,0.300,147.222,80.556,277.778,702.778,50.000,N
1807,-0.090,1.525,0.280,138.889,83.333,255.556,650.000,52.778,N
1808,-0.040,1.175,0.975,58.333,116.667,116.667,561.111,88.889,V
1809,0.040,1.570,0.390,138.889,116.667,272.222,800.000,238.889,N
1810,-0.020,1.480,0.240,141.667,77.778,269.444,641.667,158.333,N
1811,-0.065,1.110,2.360,58.333,-1095452.778,-246488.889,580.556,61.111,V
1812,-0.080,1.480,0.380,136.111,100.000,291.667,761.111,180.556,N
1813,-0.005,1.555,0.310,155.556,100.000,294.444,691.667,69.444,N
1814,-0.085,1.145,2.360,58.333,-1097497.222,-248533.333,591.667,100.000,V
1815,-0.125,1.495,0.305,152.778,86.111,277.778,852.778,261.111,N
1816,-0.055,1.565,0.345,147.222,83.333,277.778,647.222,205.556,N
1817,0.000,1.105,0.950,58.333,116.667,116.667,544.444,102.778,V
1818,-0.110,1.390,0.255,141.667,86.111,247.222,780.556,236.111,N
1819,-0.145,1.410,0.185,161.111,86.111,294.444,622.222,158.333,N
1820,-0.065,1.170,2.360,58.333,-1101536.111,-252572.222,591.667,30.556,V
1821,-0.020,1.540,0.370,147.222,63.889,275.000,808.333,216.667,N
1822,-0.030,1.525,0.255,158.333,80.556,269.444,680.556,127.778,N
1823,-0.125,1.090,2.360,58.333,-1103583.333,-254619.444,558.333,122.222,V
1824,-0.160,1.570,0.350,144.444,83.333,275.000,808.333,250.000,N
1825,-0.030,1.580,0.330,161.111,83.333,275.000,669.444,138.889,N
1826,-0.105,1.095,-0.245,1105716.667,1105772.222,1105958.333,597.222,72.222,V
1827,-0.160,1.520,0.225,130.556,69.444,275.000,702.778,105.556,N
1828,-0.155,1.475,0.270,144.444,63.889,275.000,630.556,72.222,N
1829,0.055,1.145,1.060,58.333,108.333,113.889,583.333,47.222,V
1830,-0.100,1.500,0.245,161.111,66.667,288.889,786.111,202.778,N
1831,-0.145,1.355,0.165,141.667,63.889,277.778,661.111,125.000,N
1832,-0.170,1.130,0.920,80.556,116.667,116.667,591.667,69.444,V
1833,-0.140,1.465,0.295,144.444,86.111,275.000,700.000,108.333,N
1834,-0.105,1.415,0.220,136.111,97.222,269.444,641.667,58.333,N
1835,0.990,1.035,-0.335,58.333,111.111,313.889,602.778,38.889,V
1836,-0.190,1.505,0.280,144.444,72.222,277.778,766.667,163.889,N
1837,-0.080,1.515,0.280,155.556,61.111,275.000,633.333,133.333,N
1838,-0.105,1.040,-0.225,1113652.778,1113700.000,1113891.667,636.111,2.778,V
1839,-0.110,1.495,0.260,150.000,116.667,308.333,788.889,152.778,N
1840,-0.140,1.430,0.210,163.889,86.111,294.444,683.333,105.556,N
1841,-0.100,1.055,1.010,55.556,102.778,111.111,544.444,138.889,V
1842,-0.250,0.985,0.950,58.333,94.444,111.111,497.222,47.222,V
1843,0.015,1.595,0.310,130.556,102.778,294.444,988.889,491.667,N
1844,-0.010,1.080,0.945,58.333,116.667,116.667,530.556,458.333,V
1845,-0.175,1.525,0.235,133.333,69.444,227.778,672.222,141.667,N
1846,-0.120,1.010,0.290,150.000,94.444,305.556,586.111,86.111,N
1847,-0.030,1.145,2.360,100.000,-1119500.000,-270536.111,613.889,27.778,V
1848,-0.115,1.485,0.195,147.222,86.111,308.333,783.333,169.444,N
1849,-0.225,1.425,0.125,158.333,80.556,275.000,677.778,105.556,N
1850,-0.205,1.085,0.840,58.333,116.667,116.667,558.333,119.444,V
1851,-0.165,1.600,0.320,163.889,63.889,272.222,844.444,286.111,N
1852,-0.130,1.755,-0.240,147.222,116.667,313.889,652.778,191.667,F
1853,-0.240,0.840,0.780,161.111,116.667,116.667,416.667,236.111,V
1854,-0.365,1.030,2.360,58.333,-1123952.778,-274988.889,519.444,102.778,V
1855,-0.385,1.315,0.215,50.000,63.889,258.333,452.778,66.667,N
