id,Pamp,Ramp,Tamp,PR,QRS,QT,RRI,dRRI,label
1,-0.100,0.525,0.085,175.000,55.556,358.333,1830.556,1100.000,R
2,-0.135,0.530,0.065,138.889,80.556,311.111,677.778,1152.778,A
3,-0.170,0.250,0.075,166.667,66.667,347.222,702.778,25.000,A
4,-0.165,0.260,0.040,183.333,55.556,352.778,1869.444,1166.667,R
5,-0.140,0.245,0.030,72.222,83.333,347.222,658.333,1211.111,A
6,-0.180,0.125,0.010,169.444,69.444,361.111,1669.444,1011.111,R
7,-0.195,0.195,-0.015,119.444,69.444,333.333,672.222,997.222,A
8,-0.135,0.225,-0.020,177.778,66.667,358.333,1672.222,1000.000,R
9,-0.150,0.260,-0.030,113.889,52.778,341.667,666.667,1005.556,A
10,-0.150,0.080,-0.025,197.222,69.444,386.111,1638.889,972.222,R
11,-0.075,0.240,0.115,97.222,75.000,358.333,675.000,963.889,A
12,-0.060,0.300,0.045,47.222,58.333,344.444,752.778,77.778,A
13,-0.135,0.195,-0.030,191.667,69.444,386.111,1741.667,988.889,R
14,-0.175,0.145,0.070,88.889,38.889,325.000,663.889,1077.778,A
15,-0.160,0.360,0.055,188.889,80.556,347.222,725.000,61.111,A
16,-0.140,0.455,0.045,136.111,77.778,366.667,694.444,30.556,A
17,-0.185,0.455,0.055,147.222,77.778,358.333,725.000,30.556,A
18,-0.175,0.485,0.045,130.556,83.333,358.333,725.000,0.000,A
19,-0.200,0.405,0.050,188.889,80.556,338.889,691.667,33.333,A
20,-0.205,0.395,0.060,130.556,83.333,319.444,700.000,8.333,A
21,-0.135,0.375,0.025,161.111,58.333,352.778,1905.556,1205.556,R
22,-0.090,0.255,-0.010,186.111,97.222,361.111,2636.111,730.556,R
23,-0.090,0.355,0.045,183.333,75.000,366.667,1125.000,1511.111,R
24,-0.170,0.255,0.015,169.444,83.333,352.778,680.556,444.444,A
25,-0.185,0.225,0.005,172.222,52.778,347.222,711.111,30.556,A
26,-0.110,0.315,0.035,166.667,69.444,350.000,1850.000,1138.889,R
27,-0.100,0.490,0.080,166.667,72.222,341.667,672.222,1177.778,A
28,-0.165,0.500,0.025,183.333,80.556,347.222,750.000,77.778,A
29,-0.195,0.475,0.025,52.778,63.889,333.333,730.556,19.444,A
30,-0.205,0.420,-0.010,91.667,69.444,347.222,708.333,22.222,A
31,-0.215,0.285,0.045,197.222,77.778,344.444,708.333,0.000,A
32,-0.190,0.245,0.080,166.667,80.556,347.222,711.111,2.778,A
33,-0.150,0.480,0.065,144.444,86.111,341.667,725.000,13.889,A
34,-0.205,0.405,0.030,152.778,83.333,330.556,727.778,2.778,A
35,-0.275,0.485,0.000,88.889,63.889,333.333,738.889,11.111,A
36,-0.245,0.450,-0.025,69.444,77.778,355.556,738.889,0.000,A
37,-0.235,0.260,0.015,100.000,80.556,361.111,722.222,16.667,A
38,-0.155,0.205,-0.015,169.444,97.222,380.556,2775.000,2052.778,R
39,-0.155,0.315,0.020,177.778,63.889,361.111,1138.889,1636.111,R
40,-0.135,0.355,0.050,175.000,77.778,322.222,663.889,475.000,A
41,-0.185,0.270,-0.035,58.333,69.444,322.222,719.444,55.556,A
42,-0.150,0.270,-0.005,180.556,75.000,386.111,1925.000,1205.556,R
43,-0.175,0.175,-0.025,55.556,58.333,366.667,677.778,1247.222,A
44,-0.150,0.255,0.065,186.111,75.000,347.222,722.222,44.444,A
45,-0.175,0.315,-0.010,141.667,83.333,325.000,727.778,5.556,A
46,-0.135,0.255,0.025,172.222,75.000,377.778,1997.222,1269.444,R
47,-0.090,0.205,0.055,183.333,69.444,347.222,1358.333,638.889,R
48,-0.065,0.295,0.165,161.111,69.444,347.222,661.111,697.222,A
49,-0.080,0.345,0.105,80.556,80.556,366.667,725.000,63.889,A
50,-0.120,0.395,0.100,138.889,75.000,313.889,722.222,2.778,A
51,-0.100,0.465,0.110,111.111,63.889,341.667,705.556,16.667,A
52,-0.120,0.545,0.160,136.111,66.667,338.889,727.778,22.222,A
53,-0.050,0.450,0.130,175.000,77.778,375.000,2669.444,1941.667,R
54,-0.095,0.320,0.060,194.444,80.556,350.000,1200.000,1469.444,R
55,-0.140,0.470,0.130,161.111,72.222,327.778,680.556,519.444,A
56,-0.095,0.555,0.215,127.778,66.667,308.333,725.000,44.444,A
57,0.060,0.330,0.110,133.333,41.667,286.111,1833.333,1108.333,R
58,-0.030,0.460,0.130,130.556,83.333,361.111,663.889,1169.444,A
59,-0.140,0.355,0.050,80.556,63.889,322.222,736.111,72.222,A
60,-0.055,0.610,0.075,183.333,75.000,377.778,1825.000,1088.889,R
61,-0.100,0.490,0.165,136.111,77.778,336.111,663.889,1161.111,A
62,-0.100,0.495,0.090,77.778,86.111,372.222,716.667,52.778,A
63,-0.140,0.395,0.055,197.222,69.444,344.444,711.111,5.556,A
64,-0.115,0.285,0.030,172.222,80.556,358.333,1977.778,1266.667,R
65,-0.065,0.435,0.125,141.667,66.667,358.333,2077.778,100.000,R
66,-0.070,0.490,0.075,194.444,69.444,344.444,1972.222,105.556,R
67,-0.120,0.435,0.070,50.000,61.111,336.111,663.889,1308.333,A
68,-0.190,0.290,0.055,133.333,75.000,347.222,713.889,50.000,A
69,-0.140,0.385,0.070,169.444,72.222,350.000,702.778,11.111,A
70,-0.180,0.435,0.025,55.556,58.333,347.222,727.778,25.000,A
71,-0.225,0.410,0.030,47.222,66.667,330.556,725.000,2.778,A
72,-0.240,0.295,-0.005,52.778,66.667,344.444,708.333,16.667,A
73,-0.240,0.315,0.045,133.333,58.333,333.333,705.556,2.778,A
74,-0.200,0.490,0.080,80.556,63.889,330.556,722.222,16.667,A
75,-0.190,0.475,0.085,122.222,80.556,358.333,730.556,8.333,A
76,-0.200,0.510,0.045,141.667,63.889,327.778,722.222,8.333,A
77,-0.210,0.500,0.005,197.222,86.111,341.667,1763.889,1041.667,R
78,-0.240,0.480,0.035,197.222,63.889,347.222,688.889,1075.000,A
79,-0.245,0.325,0.160,136.111,77.778,344.444,727.778,38.889,A
80,-0.145,0.390,0.030,77.778,86.111,355.556,722.222,5.556,A
81,-0.130,0.405,0.025,177.778,75.000,333.333,1430.556,708.333,R
82,-0.180,0.435,0.035,150.000,58.333,325.000,669.444,761.111,A
83,-0.210,0.165,0.025,97.222,72.222,330.556,719.444,50.000,A
84,-0.090,0.550,0.080,197.222,80.556,352.778,1900.000,1180.556,R
85,-0.135,0.625,0.095,152.778,63.889,308.333,694.444,1205.556,A
86,-0.185,0.490,0.085,61.111,72.222,352.778,736.111,41.667,A
87,-0.175,0.490,0.075,188.889,72.222,336.111,719.444,16.667,A
88,-0.195,0.460,0.090,130.556,66.667,341.667,719.444,0.000,A
89,-0.205,0.395,0.105,111.111,50.000,319.444,716.667,2.778,A
90,-0.145,0.360,0.045,197.222,77.778,358.333,1488.889,772.222,R
91,-0.175,0.535,0.100,130.556,66.667,338.889,697.222,791.667,A
92,-0.215,0.520,0.135,77.778,69.444,330.556,747.222,50.000,A
93,-0.135,0.455,0.055,188.889,83.333,375.000,1905.556,1158.333,R
94,-0.150,0.505,0.090,138.889,52.778,327.778,663.889,1241.667,A
95,-0.225,0.275,0.040,197.222,69.444,350.000,750.000,86.111,A
96,-0.175,0.355,0.070,197.222,75.000,361.111,733.333,16.667,A
97,-0.080,0.130,-0.025,194.444,69.444,352.778,1908.333,1175.000,R
98,-0.180,0.195,0.105,144.444,75.000,355.556,666.667,1241.667,A
99,-0.205,0.405,0.040,138.889,75.000,347.222,763.889,97.222,A
100,-0.080,0.370,0.065,197.222,66.667,347.222,1963.889,1200.000,R
101,-0.090,0.275,0.100,133.333,66.667,325.000,675.000,1288.889,A
102,-0.125,0.240,0.120,141.667,83.333,358.333,736.111,61.111,A
103,-0.150,0.495,0.095,91.667,52.778,333.333,722.222,13.889,A
104,-0.050,0.335,0.065,191.667,66.667,352.778,1961.111,1238.889,R
105,-0.105,0.335,0.100,133.333,66.667,350.000,672.222,1288.889,A
106,-0.140,0.190,0.090,50.000,55.556,322.222,716.667,44.444,A
107,0.030,0.595,0.160,180.556,80.556,380.556,1961.111,1244.444,R
108,-0.025,0.600,0.230,150.000,80.556,347.222,700.000,1261.111,A
109,-0.045,0.520,0.175,61.111,69.444,325.000,716.667,16.667,A
110,0.055,0.480,0.200,197.222,77.778,355.556,1902.778,1186.111,R
111,0.035,0.475,0.235,175.000,50.000,322.222,683.333,1219.444,A
112,-0.005,0.350,0.170,38.889,55.556,338.889,730.556,47.222,A
113,0.075,0.595,0.220,166.667,69.444,336.111,1866.667,1136.111,R
114,0.045,0.625,0.270,194.444,61.111,338.889,686.111,1180.556,A
115,0.005,0.460,0.205,138.889,83.333,375.000,750.000,63.889,A
116,0.055,0.580,0.180,180.556,63.889,338.889,1875.000,1125.000,R
117,0.025,0.570,0.230,150.000,58.333,338.889,675.000,1200.000,A
118,-0.030,0.410,0.175,52.778,66.667,355.556,725.000,50.000,A
119,-0.020,0.350,0.180,158.333,55.556,333.333,705.556,19.444,A
120,-0.060,0.285,0.150,144.444,83.333,347.222,725.000,19.444,A
121,-0.050,0.325,0.120,197.222,72.222,341.667,716.667,8.333,A
122,-0.010,0.620,0.125,172.222,75.000,366.667,1877.778,1161.111,R
123,-0.035,0.580,0.210,152.778,69.444,322.222,680.556,1197.222,A
124,-0.070,0.550,0.190,77.778,80.556,350.000,747.222,66.667,A
125,-0.070,0.500,0.195,177.778,55.556,325.000,741.667,5.556,A
126,-0.060,0.505,0.230,80.556,83.333,352.778,733.333,8.333,A
127,0.080,0.575,0.205,58.333,66.667,311.111,716.667,16.667,A
128,0.010,0.495,0.255,47.222,61.111,325.000,716.667,0.000,A
129,0.130,0.535,0.270,52.778,61.111,338.889,719.444,2.778,A
130,-0.020,0.490,0.230,58.333,72.222,355.556,727.778,8.333,A
131,0.000,0.435,0.270,91.667,80.556,358.333,730.556,2.778,A
132,-0.010,0.500,0.230,166.667,75.000,350.000,744.444,13.889,A
133,0.005,0.710,0.200,194.444,75.000,358.333,2400.000,1655.556,R
134,0.070,0.675,0.285,180.556,61.111,316.667,1380.556,1019.444,R
135,0.050,0.755,0.325,152.778,75.000,352.778,688.889,691.667,A
136,0.025,0.550,0.300,136.111,77.778,350.000,733.333,44.444,A
137,0.040,0.545,0.325,66.667,77.778,344.444,705.556,27.778,A
138,0.045,0.560,0.295,175.000,75.000,344.444,733.333,27.778,A
139,0.015,0.655,0.185,188.889,72.222,352.778,1688.889,955.556,R
140,-0.020,0.640,0.240,155.556,77.778,327.778,708.333,980.556,A
141,-0.020,0.465,0.230,197.222,69.444,341.667,730.556,22.222,A
142,0.060,0.680,0.190,194.444,66.667,352.778,1822.222,1091.667,R
143,0.020,0.685,0.285,183.333,63.889,322.222,702.778,1119.444,A
144,-0.025,0.505,0.215,102.778,66.667,330.556,719.444,16.667,A
145,-0.010,0.645,0.145,194.444,80.556,358.333,1855.556,1136.111,R
146,-0.045,0.510,0.195,180.556,61.111,322.222,680.556,1175.000,A
147,-0.100,0.415,0.135,197.222,69.444,344.444,716.667,36.111,A
148,-0.060,0.335,0.125,172.222,77.778,352.778,1908.333,1191.667,R
149,-0.060,0.500,0.165,152.778,63.889,341.667,688.889,1219.444,A
150,-0.120,0.495,0.135,197.222,77.778,358.333,733.333,44.444,A
151,-0.015,0.415,0.135,191.667,63.889,352.778,1902.778,1169.444,R
152,-0.050,0.520,0.175,141.667,80.556,347.222,677.778,1225.000,A
153,-0.110,0.405,0.120,188.889,58.333,338.889,713.889,36.111,A
154,-0.095,0.440,0.165,194.444,75.000,352.778,716.667,2.778,A
155,-0.120,0.505,0.140,100.000,63.889,336.111,727.778,11.111,A
156,-0.110,0.545,0.215,55.556,66.667,333.333,719.444,8.333,A
157,0.040,0.490,0.190,183.333,61.111,352.778,2530.556,1811.111,R
158,0.020,0.390,0.160,186.111,58.333,350.000,1436.111,1094.444,R
159,-0.060,0.435,0.155,150.000,63.889,341.667,677.778,758.333,A
160,-0.095,0.245,0.135,191.667,83.333,361.111,722.222,44.444,A
161,-0.005,0.595,0.130,197.222,69.444,358.333,1886.111,1163.889,R
162,-0.040,0.605,0.200,158.333,80.556,352.778,702.778,1183.333,A
163,-0.095,0.565,0.170,197.222,83.333,366.667,733.333,30.556,A
164,-0.120,0.745,0.180,133.333,80.556,361.111,733.333,0.000,A
165,-0.105,0.655,0.160,197.222,77.778,347.222,733.333,0.000,A
166,-0.165,0.590,0.155,55.556,72.222,352.778,722.222,11.111,A
167,-0.040,0.520,0.165,188.889,69.444,355.556,1897.222,1175.000,R
168,-0.050,0.570,0.165,147.222,72.222,347.222,683.333,1213.889,A
169,-0.030,0.240,0.060,166.667,69.444,344.444,1727.778,1044.444,R
170,-0.090,0.280,0.070,136.111,66.667,316.667,661.111,1066.667,A
171,-0.115,0.305,0.025,180.556,66.667,352.778,1658.333,997.222,R
172,-0.125,0.370,0.055,197.222,72.222,344.444,680.556,977.778,A
173,-0.185,0.515,-0.045,191.667,61.111,347.222,1652.778,972.222,R
174,-0.195,0.515,0.015,130.556,80.556,347.222,677.778,975.000,A
175,-0.245,0.430,0.010,191.667,77.778,338.889,719.444,41.667,A
176,-0.155,0.420,-0.005,188.889,66.667,352.778,1808.333,1088.889,R
177,-0.205,0.555,0.045,141.667,80.556,344.444,688.889,1119.444,A
178,-0.210,0.390,0.035,188.889,63.889,347.222,711.111,22.222,A
179,-0.180,0.515,-0.050,186.111,69.444,352.778,1766.667,1055.556,R
180,-0.230,0.495,0.025,138.889,77.778,347.222,683.333,1083.333,A
181,-0.265,0.435,0.030,133.333,69.444,344.444,730.556,47.222,A
182,-0.200,0.260,-0.055,172.222,75.000,369.444,1772.222,1041.667,R
183,-0.225,0.320,-0.050,127.778,66.667,347.222,652.778,1119.444,A
184,-0.250,0.345,-0.115,177.778,86.111,352.778,1655.556,1002.778,R
185,-0.275,0.385,-0.050,66.667,69.444,344.444,686.111,969.444,A
186,-0.330,0.300,-0.090,186.111,61.111,325.000,711.111,25.000,A
187,-0.210,0.255,-0.080,169.444,72.222,355.556,1783.333,1072.222,R
188,-0.220,0.285,0.035,141.667,77.778,350.000,675.000,1108.333,A
189,-0.250,0.465,-0.015,197.222,80.556,366.667,738.889,63.889,A
190,-0.225,0.500,0.010,194.444,72.222,327.778,719.444,19.444,A
191,-0.095,0.460,0.100,191.667,72.222,361.111,1800.000,1080.556,R
192,-0.105,0.375,0.110,141.667,75.000,355.556,675.000,1125.000,A
193,-0.020,0.310,0.100,188.889,63.889,344.444,1716.667,1041.667,R
194,-0.040,0.295,0.145,130.556,72.222,355.556,644.444,1072.222,A
195,-0.055,0.200,0.130,180.556,88.889,355.556,711.111,66.667,A
196,-0.015,0.260,0.180,77.778,97.222,347.222,702.778,8.333,A
197,-0.035,0.250,0.185,197.222,100.000,347.222,719.444,16.667,A
198,0.010,0.420,0.185,172.222,80.556,350.000,1813.889,1094.444,R
199,0.040,0.245,0.190,175.000,100.000,383.333,1933.333,119.444,R
200,0.020,0.345,0.240,150.000,91.667,366.667,677.778,1255.556,A
201,-0.030,0.510,0.235,177.778,88.889,347.222,722.222,44.444,A
202,0.060,0.565,0.215,177.778,83.333,352.778,1866.667,1144.444,R
203,0.055,0.580,0.245,197.222,80.556,363.889,655.556,1211.111,A
204,-0.045,0.595,0.170,58.333,69.444,319.444,733.333,77.778,A
205,0.015,0.555,0.170,172.222,72.222,375.000,1872.222,1138.889,R
206,0.015,0.440,0.180,133.333,55.556,344.444,661.111,1211.111,A
207,-0.015,0.315,0.110,188.889,58.333,311.111,722.222,61.111,A
208,-0.025,0.570,0.115,197.222,75.000,377.778,1852.778,1130.556,R
209,-0.060,0.585,0.170,197.222,69.444,350.000,691.667,1161.111,A
210,-0.090,0.575,0.140,191.667,69.444,341.667,733.333,41.667,A
211,-0.080,0.485,0.155,186.111,63.889,344.444,688.889,44.444,A
212,-0.085,0.430,0.125,183.333,66.667,327.778,700.000,11.111,A
213,-0.090,0.400,0.155,127.778,83.333,350.000,713.889,13.889,A
214,-0.050,0.380,0.080,191.667,66.667,355.556,1927.778,1213.889,R
215,-0.040,0.470,0.180,138.889,69.444,325.000,672.222,1255.556,A
216,-0.075,0.325,0.145,122.222,55.556,316.667,719.444,47.222,A
217,-0.040,0.370,0.155,52.778,63.889,350.000,705.556,13.889,A
218,-0.070,0.370,0.175,58.333,66.667,344.444,719.444,13.889,A
219,-0.065,0.315,0.130,183.333,58.333,338.889,738.889,19.444,A
220,-0.125,0.255,0.090,136.111,63.889,319.444,713.889,25.000,A
221,-0.165,0.280,0.090,197.222,72.222,341.667,744.444,30.556,A
222,-0.185,0.275,0.055,141.667,66.667,325.000,719.444,25.000,A
223,-0.220,0.275,0.075,111.111,83.333,347.222,730.556,11.111,A
224,-0.195,0.190,0.070,41.667,58.333,316.667,730.556,0.000,A
225,-0.200,0.145,0.000,88.889,77.778,350.000,741.667,11.111,A
226,-0.270,0.255,0.010,50.000,63.889,341.667,730.556,11.111,A
227,-0.285,0.275,0.000,191.667,72.222,338.889,744.444,13.889,A
228,-0.255,0.280,0.015,97.222,69.444,341.667,733.333,11.111,A
229,-0.255,0.145,0.000,47.222,58.333,316.667,716.667,16.667,A
230,-0.160,0.310,0.080,183.333,86.111,369.444,1597.222,880.556,R
231,-0.175,0.430,0.125,177.778,80.556,338.889,697.222,900.000,A
232,-0.195,0.560,0.070,194.444,75.000,333.333,758.333,61.111,A
233,-0.190,0.495,0.120,58.333,75.000,325.000,727.778,30.556,A
234,-0.155,0.455,0.165,55.556,66.667,350.000,730.556,2.778,A
235,0.045,0.520,0.210,172.222,66.667,344.444,2805.556,2075.000,R
236,0.050,0.420,0.220,183.333,83.333,375.000,1316.667,1488.889,R
237,-0.020,0.605,0.255,58.333,63.889,338.889,683.333,633.333,A
238,-0.050,0.485,0.170,197.222,80.556,372.222,744.444,61.111,A
239,-0.090,0.400,0.145,136.111,58.333,333.333,727.778,16.667,A
240,-0.100,0.400,0.150,61.111,72.222,325.000,725.000,2.778,A
241,-0.080,0.355,0.175,191.667,58.333,330.556,697.222,27.778,A
242,-0.105,0.420,0.180,52.778,69.444,330.556,730.556,33.333,A
243,-0.100,0.505,0.190,61.111,69.444,344.444,744.444,13.889,A
244,-0.050,0.440,0.240,94.444,66.667,344.444,727.778,16.667,A
245,0.035,0.535,0.175,186.111,72.222,366.667,2011.111,1283.333,R
246,-0.025,0.505,0.225,136.111,83.333,352.778,702.778,1308.333,A
247,-0.065,0.415,0.235,138.889,83.333,347.222,738.889,36.111,A
248,0.005,0.510,0.150,175.000,61.111,347.222,1938.889,1200.000,R
249,-0.010,0.575,0.300,177.778,77.778,341.667,697.222,1241.667,A
250,-0.005,0.590,0.125,191.667,61.111,319.444,1744.444,1047.222,R
251,-0.040,0.550,0.175,136.111,77.778,347.222,677.778,1066.667,A
252,-0.065,0.345,0.155,75.000,83.333,369.444,744.444,66.667,A
253,-0.095,0.475,0.140,147.222,83.333,355.556,727.778,16.667,A
254,-0.070,0.430,0.210,66.667,77.778,350.000,727.778,0.000,A
255,0.000,0.385,0.155,180.556,80.556,377.778,1711.111,983.333,R
256,-0.055,0.500,0.180,147.222,80.556,352.778,700.000,1011.111,A
257,-0.055,0.530,0.180,77.778,77.778,350.000,763.889,63.889,A
258,0.070,0.415,0.195,197.222,77.778,355.556,1925.000,1161.111,R
259,0.010,0.400,0.190,150.000,77.778,352.778,675.000,1250.000,A
260,-0.055,0.335,0.170,194.444,80.556,344.444,730.556,55.556,A
261,-0.090,0.490,0.150,83.333,80.556,347.222,741.667,11.111,A
262,-0.095,0.435,0.145,52.778,63.889,344.444,744.444,2.778,A
263,-0.095,0.350,0.125,191.667,69.444,347.222,730.556,13.889,A
264,-0.025,0.340,0.125,183.333,83.333,352.778,1983.333,1252.778,R
265,-0.040,0.310,0.150,130.556,77.778,355.556,691.667,1291.667,A
266,-0.065,0.120,-0.005,180.556,66.667,347.222,1825.000,1133.333,R
267,-0.185,0.330,0.080,144.444,77.778,347.222,686.111,1138.889,A
268,-0.175,0.345,0.070,50.000,61.111,322.222,747.222,61.111,A
269,-0.120,0.350,0.135,138.889,72.222,333.333,716.667,30.556,A
270,-0.025,0.335,0.195,69.444,88.889,355.556,747.222,30.556,A
271,0.060,0.445,0.220,194.444,80.556,363.889,1736.111,988.889,R
272,0.040,0.635,0.275,111.111,52.778,313.889,686.111,1050.000,A
273,-0.010,0.625,0.250,41.667,58.333,338.889,727.778,41.667,A
274,0.045,0.635,0.255,188.889,83.333,355.556,1886.111,1158.333,R
275,0.060,0.760,0.265,141.667,69.444,322.222,683.333,1202.778,A
276,-0.005,0.580,0.250,111.111,77.778,338.889,722.222,38.889,A
277,-0.020,0.475,0.195,175.000,52.778,333.333,711.111,11.111,A
278,-0.065,0.220,0.040,191.667,83.333,397.222,2658.333,1947.222,R
279,-0.160,0.420,0.055,194.444,63.889,347.222,1130.556,1527.778,R
280,-0.165,0.555,0.140,141.667,66.667,341.667,688.889,441.667,A
281,-0.180,0.490,0.100,144.444,66.667,338.889,738.889,50.000,A
282,-0.045,0.660,0.125,169.444,75.000,336.111,1925.000,1186.111,R
283,-0.070,0.635,0.140,169.444,50.000,322.222,658.333,1266.667,A
284,-0.140,0.495,0.125,197.222,80.556,355.556,730.556,72.222,A
285,-0.110,0.375,0.030,186.111,63.889,344.444,1994.444,1263.889,R
286,-0.105,0.445,0.050,194.444,80.556,383.333,1450.000,544.444,R
287,-0.150,0.360,0.075,191.667,58.333,341.667,683.333,766.667,A
288,-0.195,0.275,0.025,194.444,83.333,352.778,719.444,36.111,A
289,-0.170,0.305,0.065,197.222,80.556,358.333,727.778,8.333,A
290,-0.180,0.345,0.085,183.333,55.556,319.444,741.667,13.889,A
291,-0.195,0.400,0.055,141.667,80.556,344.444,730.556,11.111,A
292,-0.200,0.445,0.080,141.667,69.444,330.556,730.556,0.000,A
293,-0.185,0.520,0.115,180.556,83.333,347.222,738.889,8.333,A
294,-0.090,0.460,0.075,197.222,75.000,375.000,1891.667,1152.778,R
295,-0.060,0.340,0.120,188.889,58.333,344.444,1416.667,475.000,R
296,-0.140,0.590,0.135,127.778,66.667,344.444,677.778,738.889,A
297,-0.205,0.510,0.085,136.111,75.000,347.222,738.889,61.111,A
298,-0.190,0.420,0.060,94.444,63.889,344.444,722.222,16.667,A
299,-0.180,0.420,0.100,158.333,66.667,352.778,736.111,13.889,A
300,-0.190,0.220,-0.050,183.333,61.111,347.222,1894.444,1158.333,R
301,-0.260,0.205,-0.040,155.556,66.667,319.444,672.222,1222.222,A
302,-0.340,0.240,-0.080,197.222,69.444,347.222,738.889,66.667,A
303,-0.345,0.365,-0.050,197.222,72.222,352.778,730.556,8.333,A
304,-0.305,0.395,-0.015,47.222,52.778,319.444,744.444,13.889,A
305,-0.320,0.355,-0.015,113.889,77.778,355.556,741.667,2.778,A
306,-0.190,0.610,0.015,197.222,69.444,375.000,2780.556,2038.889,R
307,-0.090,0.510,0.095,191.667,72.222,355.556,1394.444,1386.111,R
308,-0.135,0.530,0.140,100.000,77.778,350.000,677.778,716.667,A
309,-0.110,0.340,0.045,180.556,80.556,383.333,1675.000,997.222,R
310,-0.145,0.260,0.065,97.222,69.444,338.889,658.333,1016.667,A
311,-0.165,0.270,0.090,197.222,75.000,350.000,730.556,72.222,A
312,-0.080,0.375,0.070,191.667,58.333,355.556,725.000,5.556,A
313,-0.130,0.240,0.065,188.889,75.000,341.667,719.444,5.556,A
314,-0.180,0.415,0.090,58.333,83.333,347.222,705.556,13.889,A
315,-0.185,0.240,0.055,194.444,69.444,336.111,716.667,11.111,A
316,-0.180,0.250,0.025,188.889,75.000,358.333,722.222,5.556,A
317,-0.265,0.300,0.030,77.778,80.556,350.000,750.000,27.778,A
318,-0.145,0.270,0.005,191.667,69.444,350.000,1855.556,1105.556,R
319,-0.220,0.325,0.020,197.222,69.444,344.444,675.000,1180.556,A
320,-0.155,0.175,-0.015,188.889,66.667,352.778,1755.556,1080.556,R
321,-0.185,0.325,-0.005,152.778,83.333,350.000,694.444,1061.111,A
322,-0.275,0.220,-0.040,194.444,66.667,344.444,747.222,52.778,A
323,-0.200,0.105,-0.070,172.222,80.556,377.778,1811.111,1063.889,R
324,-0.265,0.095,-0.065,147.222,52.778,344.444,675.000,1136.111,A
325,-0.325,0.030,-0.075,66.667,75.000,352.778,747.222,72.222,A
326,-0.335,0.085,-0.105,136.111,66.667,344.444,702.778,44.444,A
327,-0.340,0.205,-0.065,138.889,80.556,350.000,738.889,36.111,A
328,-0.310,0.195,-0.055,52.778,63.889,336.111,716.667,22.222,A
329,-0.210,0.380,-0.015,194.444,77.778,358.333,1847.222,1130.556,R
330,-0.230,0.350,0.035,55.556,58.333,333.333,686.111,1161.111,A
331,-0.225,0.370,0.065,94.444,83.333,361.111,744.444,58.333,A
332,-0.240,0.415,0.045,147.222,66.667,330.556,719.444,25.000,A
333,-0.200,0.270,0.135,119.444,66.667,341.667,738.889,19.444,A
334,-0.120,0.165,0.065,191.667,63.889,350.000,1652.778,913.889,R
335,-0.100,0.250,0.060,122.222,55.556,327.778,669.444,983.333,A
336,-0.160,0.330,0.070,108.333,77.778,355.556,719.444,50.000,A
337,-0.170,0.335,0.060,44.444,52.778,327.778,711.111,8.333,A
338,-0.130,0.280,0.055,188.889,69.444,311.111,716.667,5.556,A
339,-0.130,0.220,0.010,188.889,83.333,391.667,1602.778,886.111,R
340,-0.110,0.245,0.080,136.111,52.778,327.778,672.222,930.556,A
341,-0.165,0.315,0.110,108.333,83.333,355.556,738.889,66.667,A
342,-0.155,0.325,0.090,80.556,83.333,377.778,705.556,33.333,A
343,-0.105,0.300,0.095,133.333,66.667,330.556,725.000,19.444,A
344,-0.085,0.530,0.060,175.000,102.778,338.889,1969.444,1244.444,R
345,-0.130,0.410,0.085,166.667,75.000,355.556,688.889,1280.556,A
346,-0.125,0.360,0.085,197.222,72.222,322.222,733.333,44.444,A
347,0.010,0.510,0.165,172.222,77.778,350.000,1944.444,1211.111,R
348,0.065,0.480,0.200,183.333,69.444,347.222,2561.111,616.667,R
349,0.080,0.390,0.220,188.889,63.889,347.222,1388.889,1172.222,R
350,-0.010,0.480,0.265,147.222,75.000,366.667,686.111,702.778,A
351,-0.005,0.575,0.250,197.222,83.333,361.111,758.333,72.222,A
352,-0.030,0.595,0.200,197.222,72.222,355.556,730.556,27.778,A
353,-0.070,0.490,0.185,138.889,77.778,338.889,738.889,8.333,A
354,-0.080,0.465,0.160,116.667,63.889,327.778,711.111,27.778,A
355,-0.090,0.410,0.170,75.000,55.556,330.556,727.778,16.667,A
356,-0.085,0.415,0.235,186.111,83.333,350.000,738.889,11.111,A
357,0.040,0.495,0.170,194.444,61.111,363.889,2761.111,2022.222,R
358,0.025,0.370,0.155,191.667,69.444,358.333,1283.333,1477.778,R
359,-0.065,0.385,0.175,147.222,83.333,355.556,686.111,597.222,A
360,-0.145,0.455,0.070,52.778,58.333,341.667,741.667,55.556,A
361,-0.145,0.345,0.090,72.222,80.556,352.778,716.667,25.000,A
362,-0.130,0.330,0.100,55.556,69.444,352.778,719.444,2.778,A
363,-0.060,0.495,0.100,183.333,66.667,347.222,1669.444,950.000,R
364,-0.095,0.655,0.165,155.556,83.333,380.556,691.667,977.778,A
365,-0.075,0.405,0.150,197.222,77.778,350.000,752.778,61.111,A
366,-0.015,0.610,0.165,183.333,66.667,350.000,1891.667,1138.889,R
367,-0.035,0.640,0.255,138.889,61.111,333.333,677.778,1213.889,A
368,-0.060,0.580,0.205,141.667,61.111,352.778,744.444,66.667,A
369,-0.045,0.535,0.185,197.222,66.667,333.333,747.222,2.778,A
370,-0.040,0.385,0.195,75.000,83.333,350.000,716.667,30.556,A
371,-0.040,0.405,0.135,197.222,66.667,316.667,716.667,0.000,A
372,-0.130,0.420,0.115,111.111,58.333,330.556,719.444,2.778,A
373,0.080,0.450,0.195,177.778,83.333,383.333,2700.000,1980.556,R
374,0.105,0.260,0.285,150.000,66.667,344.444,1333.333,1366.667,R
375,0.080,0.495,0.280,152.778,77.778,336.111,675.000,658.333,A
376,0.080,0.345,0.255,66.667,77.778,338.889,733.333,58.333,A
377,0.070,0.430,0.275,88.889,80.556,361.111,738.889,5.556,A
378,0.085,0.340,0.240,188.889,77.778,327.778,730.556,8.333,A
379,0.005,0.360,0.195,180.556,83.333,333.333,727.778,2.778,A
380,-0.040,0.455,0.210,194.444,52.778,322.222,705.556,22.222,A
381,-0.035,0.460,0.255,175.000,55.556,325.000,1616.667,911.111,R
382,-0.025,0.730,0.240,155.556,66.667,336.111,686.111,930.556,A
383,-0.105,0.935,0.240,138.889,86.111,355.556,747.222,61.111,A
384,-0.125,0.985,0.350,197.222,61.111,316.667,752.778,5.556,A
385,0.080,0.845,0.315,188.889,69.444,338.889,733.333,19.444,A
386,-0.020,0.805,0.305,83.333,83.333,341.667,725.000,8.333,A
387,-0.040,0.690,0.285,77.778,61.111,336.111,733.333,8.333,A
388,-0.035,0.665,0.265,141.667,80.556,352.778,752.778,19.444,A
389,0.020,0.705,0.180,186.111,63.889,350.000,2847.222,2094.444,R
390,-0.090,0.660,0.185,186.111,66.667,352.778,1136.111,1711.111,R
391,-0.110,0.765,0.215,44.444,63.889,322.222,700.000,436.111,A
392,-0.155,0.665,0.190,44.444,66.667,352.778,733.333,33.333,A
393,-0.110,0.695,0.205,72.222,83.333,344.444,722.222,11.111,A
394,-0.025,0.710,0.170,191.667,72.222,355.556,1919.444,1197.222,R
395,-0.090,0.600,0.075,152.778,69.444,352.778,697.222,1222.222,A
396,-0.235,0.400,0.040,69.444,77.778,350.000,747.222,50.000,A
397,-0.060,0.480,0.100,186.111,61.111,350.000,1811.111,1063.889,R
398,-0.085,0.475,0.100,141.667,63.889,325.000,669.444,1141.667,A
399,-0.155,0.420,0.055,188.889,83.333,372.222,730.556,61.111,A
400,-0.155,0.365,-0.040,194.444,44.444,275.000,744.444,13.889,A
401,-0.165,0.520,0.170,97.222,80.556,355.556,763.889,19.444,A
402,-0.090,0.420,0.165,111.111,55.556,347.222,725.000,38.889,A
403,-0.030,0.370,0.110,61.111,66.667,322.222,733.333,8.333,A
404,-0.165,0.500,0.095,80.556,80.556,350.000,722.222,11.111,A
405,-0.165,0.420,0.085,80.556,52.778,336.111,741.667,19.444,A
406,-0.195,0.450,0.070,136.111,75.000,333.333,752.778,11.111,A
407,-0.215,0.445,0.120,66.667,66.667,344.444,736.111,16.667,A
408,-0.080,0.470,0.080,191.667,63.889,355.556,1916.667,1180.556,R
409,-0.145,0.470,0.085,172.222,80.556,352.778,683.333,1233.333,A
410,-0.170,0.305,0.055,197.222,75.000,350.000,733.333,50.000,A
411,-0.060,0.460,0.080,186.111,66.667,341.667,1991.667,1258.333,R
412,-0.070,0.460,0.125,177.778,77.778,355.556,680.556,1311.111,A
413,-0.115,0.440,0.125,147.222,77.778,341.667,736.111,55.556,A
414,-0.135,0.500,0.150,197.222,83.333,361.111,750.000,13.889,A
415,-0.100,0.550,0.210,72.222,80.556,338.889,750.000,0.000,A
416,-0.090,0.445,0.165,97.222,83.333,361.111,727.778,22.222,A
417,-0.035,0.610,0.130,163.889,75.000,352.778,2594.444,1866.667,R
418,-0.030,0.550,0.185,197.222,77.778,358.333,1230.556,1363.889,R
419,-0.055,0.590,0.225,58.333,63.889,311.111,694.444,536.111,A
420,-0.045,0.555,0.240,66.667,69.444,347.222,722.222,27.778,A
421,0.090,0.640,0.290,175.000,72.222,372.222,1861.111,1138.889,R
422,0.055,0.790,0.315,150.000,72.222,341.667,711.111,1150.000,A
423,0.040,0.745,0.330,197.222,72.222,336.111,741.667,30.556,A
424,0.070,0.665,0.360,191.667,61.111,322.222,722.222,19.444,A
425,0.095,0.690,0.350,47.222,55.556,325.000,727.778,5.556,A
426,0.095,0.795,0.340,188.889,66.667,344.444,1852.778,1125.000,R
427,0.115,0.815,0.405,88.889,63.889,350.000,691.667,1161.111,A
428,0.095,0.630,0.345,197.222,75.000,350.000,750.000,58.333,A
429,0.120,0.645,0.370,172.222,55.556,344.444,1838.889,1088.889,R
430,0.150,0.720,0.395,86.111,58.333,322.222,675.000,1163.889,A
431,0.140,0.645,0.360,55.556,63.889,355.556,741.667,66.667,A
432,0.075,0.685,0.350,191.667,83.333,363.889,727.778,13.889,A
433,0.015,0.650,0.300,72.222,83.333,341.667,727.778,0.000,A
434,0.085,0.740,0.335,36.111,52.778,316.667,722.222,5.556,A
435,0.125,0.655,0.355,61.111,66.667,338.889,722.222,0.000,A
436,0.150,0.640,0.345,197.222,50.000,322.222,1480.556,758.333,R
437,0.070,0.835,0.415,94.444,69.444,330.556,700.000,780.556,A
438,0.055,0.775,0.345,136.111,83.333,333.333,755.556,55.556,A
439,0.045,0.805,0.310,197.222,86.111,344.444,730.556,25.000,A
440,0.030,0.670,0.285,141.667,86.111,358.333,722.222,8.333,A
441,0.015,0.620,0.305,144.444,58.333,344.444,736.111,13.889,A
442,0.120,0.700,0.290,194.444,69.444,347.222,2077.778,1341.667,R
443,0.050,0.710,0.310,119.444,61.111,316.667,663.889,1413.889,A
444,0.000,0.730,0.280,191.667,61.111,336.111,738.889,75.000,A
445,-0.005,0.690,0.250,194.444,72.222,347.222,733.333,5.556,A
446,-0.025,0.640,0.250,61.111,72.222,347.222,733.333,0.000,A
447,0.075,0.645,0.245,183.333,61.111,333.333,1755.556,1022.222,R
448,0.020,0.695,0.355,177.778,83.333,344.444,694.444,1061.111,A
449,0.010,0.630,0.280,194.444,83.333,358.333,725.000,30.556,A
450,0.005,0.635,0.290,141.667,80.556,344.444,736.111,11.111,A
451,-0.020,0.650,0.285,69.444,75.000,350.000,763.889,27.778,A
452,-0.020,0.745,0.380,111.111,75.000,338.889,736.111,27.778,A
453,-0.035,0.630,0.260,141.667,80.556,344.444,738.889,2.778,A
454,0.055,0.705,0.290,197.222,75.000,347.222,1788.889,1050.000,R
455,0.020,0.685,0.360,80.556,83.333,366.667,677.778,1111.111,A
456,0.035,0.680,0.340,75.000,80.556,355.556,763.889,86.111,A
457,0.025,0.630,0.295,141.667,86.111,341.667,741.667,22.222,A
458,0.025,0.745,0.165,175.000,83.333,380.556,2719.444,1977.778,R
459,-0.030,0.680,0.230,194.444,75.000,355.556,1333.333,1386.111,R
460,-0.005,0.675,0.275,141.667,75.000,347.222,697.222,636.111,A
461,-0.045,0.520,0.225,63.889,61.111,350.000,722.222,25.000,A
462,0.005,0.710,0.205,169.444,83.333,361.111,1844.444,1122.222,R
463,-0.005,0.790,0.290,152.778,69.444,338.889,702.778,1141.667,A
464,-0.020,0.575,0.245,197.222,72.222,344.444,763.889,61.111,A
465,0.070,0.720,0.255,188.889,80.556,355.556,1838.889,1075.000,R
466,0.040,0.760,0.295,66.667,75.000,344.444,691.667,1147.222,A
467,-0.040,0.640,0.210,52.778,58.333,333.333,752.778,61.111,A
468,-0.055,0.570,0.230,197.222,77.778,350.000,719.444,33.333,A
469,-0.020,0.445,0.155,186.111,61.111,325.000,1713.889,994.444,R
470,-0.065,0.620,0.215,152.778,66.667,347.222,675.000,1038.889,A
471,-0.105,0.535,0.160,194.444,75.000,355.556,733.333,58.333,A
472,-0.145,0.475,0.115,80.556,61.111,336.111,730.556,2.778,A
473,-0.125,0.580,0.065,180.556,72.222,350.000,2011.111,1280.556,R
474,-0.165,0.615,0.160,144.444,83.333,341.667,680.556,1330.556,A
475,-0.180,0.620,0.115,72.222,77.778,355.556,744.444,63.889,A
476,-0.185,0.620,0.125,194.444,77.778,350.000,750.000,5.556,A
477,-0.210,0.560,0.090,150.000,58.333,316.667,738.889,11.111,A
478,-0.230,0.420,0.060,61.111,69.444,338.889,719.444,19.444,A
479,-0.200,0.370,0.010,186.111,83.333,369.444,1950.000,1230.556,R
480,-0.215,0.375,0.030,141.667,75.000,338.889,652.778,1297.222,A
481,-0.245,0.365,0.000,144.444,72.222,330.556,747.222,94.444,A
482,-0.250,0.420,0.035,141.667,80.556,344.444,730.556,16.667,A
483,-0.215,0.630,0.130,144.444,83.333,341.667,727.778,2.778,A
484,-0.250,0.615,-0.015,138.889,77.778,330.556,730.556,2.778,A
485,-0.245,0.510,0.000,55.556,58.333,313.889,713.889,16.667,A
486,-0.220,0.465,0.010,183.333,55.556,341.667,1833.333,1119.444,R
487,-0.190,0.425,0.040,141.667,61.111,341.667,672.222,1161.111,A
488,-0.235,0.260,-0.020,127.778,66.667,344.444,697.222,25.000,A
489,-0.200,0.715,0.010,175.000,83.333,352.778,1822.222,1125.000,R
490,-0.185,0.635,0.070,155.556,80.556,355.556,683.333,1138.889,A
491,-0.285,0.460,-0.025,102.778,72.222,350.000,741.667,58.333,A
492,-0.285,0.370,0.025,169.444,72.222,341.667,702.778,38.889,A
493,-0.325,0.560,0.005,52.778,69.444,316.667,719.444,16.667,A
494,-0.305,0.605,0.000,191.667,69.444,327.778,700.000,19.444,A
495,-0.335,0.645,-0.015,150.000,83.333,344.444,727.778,27.778,A
496,-0.370,0.535,-0.050,58.333,66.667,325.000,736.111,8.333,A
497,-0.370,0.445,-0.025,144.444,80.556,350.000,725.000,11.111,A
498,-0.230,0.520,0.025,177.778,75.000,366.667,1958.333,1233.333,R
499,-0.215,0.565,0.065,130.556,63.889,316.667,688.889,1269.444,A
500,-0.215,0.390,0.045,138.889,72.222,338.889,713.889,25.000,A
501,-0.225,0.560,0.090,197.222,80.556,352.778,727.778,13.889,A
502,-0.235,0.720,0.100,55.556,72.222,322.222,758.333,30.556,A
503,-0.195,0.700,0.135,150.000,83.333,347.222,719.444,38.889,A
504,-0.215,0.580,0.145,138.889,80.556,347.222,722.222,2.778,A
505,-0.215,0.610,0.120,197.222,72.222,338.889,725.000,2.778,A
506,-0.130,0.715,0.130,180.556,83.333,344.444,1652.778,927.778,R
507,-0.140,0.745,0.195,155.556,83.333,347.222,697.222,955.556,A
508,-0.150,0.730,0.180,150.000,80.556,336.111,736.111,38.889,A
509,-0.180,0.755,0.170,66.667,80.556,350.000,722.222,13.889,A
510,-0.195,0.540,0.160,44.444,66.667,325.000,738.889,16.667,A
511,-0.110,0.820,0.155,188.889,83.333,344.444,1808.333,1069.444,R
512,-0.100,0.760,0.200,158.333,58.333,325.000,677.778,1130.556,A
513,-0.160,0.580,0.120,141.667,77.778,341.667,750.000,72.222,A
514,-0.130,0.555,0.090,191.667,88.889,375.000,1966.667,1216.667,R
515,-0.135,0.425,0.085,150.000,66.667,325.000,680.556,1286.111,A
516,-0.150,0.680,0.075,169.444,69.444,347.222,1775.000,1094.444,R
517,-0.160,0.785,0.230,152.778,75.000,350.000,702.778,1072.222,A
518,-0.145,0.635,0.165,133.333,69.444,341.667,727.778,25.000,A
519,-0.175,0.655,0.150,55.556,63.889,319.444,730.556,2.778,A
520,-0.200,0.745,0.165,66.667,77.778,344.444,744.444,13.889,A
521,-0.145,0.820,0.185,197.222,80.556,325.000,727.778,16.667,A
522,-0.140,0.795,0.235,91.667,72.222,319.444,727.778,0.000,A
523,-0.070,0.790,0.215,191.667,66.667,347.222,1519.444,791.667,R
524,-0.080,0.640,0.260,147.222,80.556,347.222,694.444,825.000,A
525,-0.085,0.635,0.210,55.556,69.444,344.444,752.778,58.333,A
526,-0.005,0.505,0.190,183.333,80.556,383.333,1883.333,1130.556,R
527,-0.035,0.565,0.205,150.000,72.222,319.444,686.111,1197.222,A
528,-0.010,0.695,0.155,197.222,86.111,361.111,1711.111,1025.000,R
529,-0.050,0.755,0.200,138.889,66.667,336.111,691.667,1019.444,A
530,-0.125,0.545,0.115,194.444,77.778,347.222,736.111,44.444,A
531,-0.195,0.565,0.130,141.667,83.333,347.222,702.778,33.333,A
532,-0.210,0.630,0.140,63.889,75.000,347.222,730.556,27.778,A
533,-0.180,0.575,0.155,144.444,83.333,347.222,744.444,13.889,A
534,-0.165,0.565,0.165,197.222,72.222,338.889,719.444,25.000,A
535,-0.135,0.450,0.085,183.333,66.667,327.778,1480.556,761.111,R
536,-0.160,0.485,0.130,183.333,80.556,344.444,669.444,811.111,A
537,-0.180,0.420,0.090,52.778,63.889,319.444,736.111,66.667,A
538,-0.085,0.705,0.120,197.222,77.778,352.778,1847.222,1111.111,R
539,-0.105,0.565,0.155,152.778,61.111,336.111,686.111,1161.111,A
540,-0.165,0.445,0.090,197.222,75.000,322.222,744.444,58.333,A
541,-0.125,0.645,0.135,191.667,66.667,350.000,1955.556,1211.111,R
542,-0.140,0.570,0.165,147.222,83.333,347.222,694.444,1261.111,A
543,-0.190,0.485,0.105,52.778,61.111,319.444,736.111,41.667,A
544,-0.195,0.490,0.090,144.444,77.778,336.111,725.000,11.111,A
545,-0.205,0.315,0.080,61.111,77.778,347.222,725.000,0.000,A
546,-0.175,0.620,0.100,180.556,61.111,352.778,1783.333,1058.333,R
547,-0.170,0.655,0.170,161.111,69.444,336.111,716.667,1066.667,A
548,-0.180,0.595,0.180,102.778,58.333,322.222,741.667,25.000,A
549,-0.175,0.605,0.130,77.778,77.778,344.444,733.333,8.333,A
550,-0.210,0.445,0.125,147.222,83.333,347.222,733.333,0.000,A
551,-0.125,0.465,0.140,183.333,80.556,375.000,1838.889,1105.556,R
552,-0.155,0.575,0.130,152.778,61.111,322.222,705.556,1133.333,A
553,-0.255,0.405,0.030,52.778,61.111,319.444,730.556,25.000,A
554,-0.275,0.370,0.050,144.444,83.333,355.556,722.222,8.333,A
555,-0.185,0.255,0.015,197.222,83.333,347.222,1502.778,780.556,R
556,-0.245,0.245,0.035,50.000,63.889,347.222,677.778,825.000,A
557,-0.245,0.370,0.060,197.222,83.333,352.778,747.222,69.444,A
558,-0.235,0.470,0.065,61.111,77.778,338.889,736.111,11.111,A
559,-0.255,0.420,0.055,194.444,72.222,327.778,719.444,16.667,A
560,-0.270,0.345,0.025,52.778,61.111,316.667,733.333,13.889,A
561,-0.120,0.580,0.145,197.222,66.667,344.444,2141.667,1408.333,R
562,-0.125,0.580,0.165,150.000,58.333,330.556,683.333,1458.333,A
563,-0.220,0.570,0.110,69.444,75.000,350.000,752.778,69.444,A
564,-0.220,0.540,0.110,144.444,80.556,336.111,747.222,5.556,A
565,-0.215,0.410,0.100,150.000,66.667,327.778,741.667,5.556,A
566,-0.225,0.375,0.105,63.889,75.000,352.778,738.889,2.778,A
567,-0.145,0.535,0.100,166.667,72.222,344.444,1969.444,1230.556,R
568,-0.140,0.495,0.145,144.444,52.778,325.000,677.778,1291.667,A
569,-0.215,0.420,0.070,66.667,75.000,338.889,758.333,80.556,A
570,-0.175,0.470,0.070,169.444,77.778,347.222,1969.444,1211.111,R
571,-0.205,0.520,0.120,161.111,75.000,330.556,697.222,1272.222,A
572,-0.215,0.485,0.095,144.444,80.556,352.778,741.667,44.444,A
573,-0.225,0.425,0.080,61.111,66.667,338.889,725.000,16.667,A
574,-0.240,0.395,0.085,100.000,75.000,341.667,738.889,13.889,A
575,-0.130,0.540,0.115,186.111,80.556,347.222,1872.222,1133.333,R
576,-0.170,0.595,0.160,150.000,77.778,341.667,691.667,1180.556,R
577,-0.185,0.550,0.135,58.333,66.667,325.000,752.778,61.111,A
578,-0.160,0.440,0.130,61.111,72.222,358.333,738.889,13.889,A
579,-0.090,0.400,0.120,188.889,61.111,327.778,1558.333,819.444,R
580,-0.140,0.515,0.215,150.000,63.889,325.000,666.667,891.667,A
581,-0.170,0.640,0.170,100.000,83.333,350.000,755.556,88.889,A
582,-0.155,0.540,0.170,147.222,80.556,336.111,736.111,19.444,A
583,-0.035,0.535,0.185,194.444,75.000,352.778,1913.889,1177.778,R
584,-0.090,0.700,0.200,150.000,52.778,313.889,691.667,1222.222,A
585,-0.195,0.475,0.090,197.222,83.333,352.778,750.000,58.333,A
586,-0.205,0.350,0.080,144.444,80.556,347.222,711.111,38.889,A
587,-0.245,0.325,0.045,58.333,69.444,352.778,744.444,33.333,A
588,-0.260,0.305,0.015,197.222,75.000,341.667,752.778,8.333,A
589,-0.310,0.235,0.005,38.889,61.111,319.444,741.667,11.111,A
590,-0.290,0.445,0.030,72.222,77.778,338.889,755.556,13.889,A
591,-0.280,0.480,0.060,55.556,72.222,330.556,752.778,2.778,A
592,-0.260,0.435,0.080,72.222,86.111,344.444,755.556,2.778,A
593,-0.260,0.440,0.055,197.222,83.333,347.222,747.222,8.333,A
594,-0.135,0.410,0.070,180.556,91.667,347.222,2019.444,1272.222,R
595,-0.210,0.485,0.120,116.667,83.333,341.667,697.222,1322.222,A
596,-0.220,0.455,0.075,197.222,72.222,347.222,752.778,55.556,A
597,-0.225,0.485,0.080,72.222,83.333,355.556,747.222,5.556,A
598,-0.205,0.385,0.105,86.111,80.556,336.111,777.778,30.556,A
599,-0.035,0.630,0.165,194.444,69.444,347.222,1844.444,1066.667,R
600,-0.115,0.665,0.205,150.000,66.667,322.222,722.222,1122.222,A
601,-0.140,0.595,0.165,61.111,75.000,338.889,777.778,55.556,A
602,-0.145,0.495,0.155,177.778,83.333,352.778,738.889,38.889,A
603,-0.130,0.490,0.115,180.556,86.111,350.000,1575.000,836.111,R
604,-0.150,0.495,0.150,161.111,75.000,350.000,686.111,888.889,A
605,-0.195,0.575,0.095,58.333,72.222,350.000,758.333,72.222,A
606,-0.215,0.500,0.115,72.222,83.333,355.556,750.000,8.333,A
607,-0.200,0.530,0.120,61.111,66.667,341.667,758.333,8.333,A
608,-0.120,0.425,0.115,197.222,77.778,350.000,1541.667,783.333,R
609,-0.170,0.470,0.105,152.778,83.333,336.111,677.778,863.889,A
610,-0.220,0.480,0.060,55.556,66.667,344.444,769.444,91.667,A
611,-0.265,0.435,0.035,66.667,80.556,350.000,750.000,19.444,A
612,-0.265,0.380,0.035,63.889,63.889,311.111,758.333,8.333,A
613,-0.185,0.440,0.035,191.667,69.444,350.000,1894.444,1136.111,R
614,-0.245,0.485,0.085,66.667,69.444,330.556,708.333,1186.111,A
615,-0.265,0.425,0.035,58.333,77.778,344.444,763.889,55.556,A
616,-0.265,0.390,0.030,88.889,63.889,344.444,758.333,5.556,A
617,-0.150,0.465,0.125,197.222,72.222,344.444,1580.556,822.222,R
618,-0.125,0.550,0.195,150.000,58.333,316.667,686.111,894.444,A
619,-0.135,0.590,0.175,111.111,80.556,344.444,761.111,75.000,A
620,-0.135,0.460,0.175,72.222,83.333,344.444,758.333,2.778,A
621,-0.155,0.375,0.130,180.556,63.889,322.222,747.222,11.111,A
622,-0.180,0.525,0.170,138.889,83.333,347.222,752.778,5.556,A
623,-0.140,0.580,0.210,88.889,80.556,341.667,772.222,19.444,A
624,-0.045,0.610,0.215,194.444,75.000,355.556,2080.556,1308.333,R
625,-0.050,0.680,0.260,158.333,61.111,322.222,725.000,1355.556,A
626,-0.095,0.540,0.165,47.222,58.333,316.667,766.667,41.667,A
627,-0.010,0.720,0.215,188.889,72.222,347.222,1911.111,1144.444,R
628,-0.055,0.805,0.250,161.111,63.889,336.111,702.778,1208.333,A
629,-0.135,0.675,0.195,141.667,80.556,352.778,744.444,41.667,A
630,-0.075,0.535,0.115,188.889,66.667,347.222,1916.667,1172.222,R
631,-0.120,0.535,0.135,150.000,75.000,341.667,677.778,1238.889,A
632,-0.190,0.400,0.080,197.222,69.444,347.222,725.000,47.222,A
633,-0.060,0.455,0.120,191.667,66.667,347.222,1897.222,1172.222,R
634,-0.120,0.495,0.190,75.000,52.778,325.000,683.333,1213.889,A
635,-0.165,0.520,0.120,136.111,77.778,336.111,738.889,55.556,A
636,-0.150,0.520,0.125,138.889,83.333,352.778,722.222,16.667,A
637,-0.150,0.405,0.110,55.556,66.667,322.222,752.778,30.556,A
638,-0.065,0.625,0.120,194.444,80.556,377.778,3083.333,2330.556,R
639,-0.055,0.565,0.150,197.222,77.778,358.333,1394.444,1688.889,R
640,-0.105,0.510,0.175,155.556,66.667,352.778,722.222,672.222,A
641,-0.155,0.385,0.105,188.889,66.667,352.778,766.667,44.444,A
642,-0.180,0.410,0.085,75.000,83.333,344.444,755.556,11.111,A
643,-0.225,0.445,0.040,47.222,66.667,330.556,736.111,19.444,A
644,-0.245,0.535,0.070,197.222,69.444,344.444,755.556,19.444,A
645,-0.235,0.455,0.065,66.667,72.222,330.556,761.111,5.556,A
646,-0.215,0.360,0.125,50.000,61.111,325.000,752.778,8.333,A
647,-0.120,0.580,0.075,188.889,83.333,363.889,3088.889,2336.111,R
648,-0.070,0.565,0.130,197.222,75.000,352.778,1358.333,1730.556,R
649,-0.125,0.490,0.145,136.111,77.778,347.222,705.556,652.778,A
650,-0.160,0.450,0.115,44.444,66.667,322.222,755.556,50.000,A
651,-0.105,0.540,0.060,191.667,66.667,350.000,1905.556,1150.000,R
652,-0.160,0.470,0.080,144.444,86.111,347.222,686.111,1219.444,A
653,-0.230,0.345,0.045,41.667,58.333,330.556,763.889,77.778,A
654,-0.210,0.430,0.055,69.444,72.222,350.000,755.556,8.333,A
655,-0.220,0.355,0.050,197.222,75.000,347.222,733.333,22.222,A
656,-0.115,0.565,0.095,194.444,75.000,358.333,1763.889,1030.556,R
657,-0.125,0.575,0.170,155.556,61.111,350.000,722.222,1041.667,A
658,-0.165,0.545,0.070,52.778,66.667,344.444,769.444,47.222,A
659,-0.215,0.415,0.050,169.444,75.000,330.556,744.444,25.000,A
660,-0.125,0.435,0.095,191.667,72.222,355.556,1488.889,744.444,R
661,-0.155,0.545,0.110,144.444,61.111,322.222,697.222,791.667,A
662,-0.180,0.480,0.085,47.222,58.333,319.444,763.889,66.667,A
663,-0.200,0.455,0.095,66.667,72.222,341.667,752.778,11.111,A
664,-0.185,0.345,0.070,144.444,86.111,344.444,744.444,8.333,A
665,-0.140,0.505,0.095,194.444,63.889,350.000,1811.111,1066.667,R
666,-0.175,0.585,0.150,138.889,77.778,347.222,711.111,1100.000,A
667,-0.190,0.495,0.095,66.667,75.000,338.889,769.444,58.333,A
668,-0.190,0.485,0.100,150.000,80.556,361.111,733.333,36.111,A
669,-0.195,0.380,0.095,69.444,75.000,347.222,730.556,2.778,A
670,-0.170,0.425,0.055,180.556,83.333,347.222,1775.000,1044.444,R
671,-0.205,0.500,0.110,188.889,66.667,341.667,722.222,1052.778,A
672,-0.260,0.410,0.055,69.444,77.778,347.222,769.444,47.222,A
673,-0.250,0.325,0.055,50.000,61.111,316.667,747.222,22.222,A
674,-0.260,0.345,0.035,138.889,80.556,350.000,752.778,5.556,A
675,-0.250,0.320,0.150,75.000,77.778,344.444,738.889,13.889,A
676,-0.145,0.475,0.180,94.444,66.667,336.111,752.778,13.889,A
677,-0.110,0.345,0.050,94.444,72.222,347.222,766.667,13.889,A
678,-0.020,0.915,0.270,183.333,80.556,375.000,1883.333,1116.667,R
679,0.205,0.710,0.235,119.444,66.667,344.444,686.111,1197.222,A
680,-0.225,0.485,0.010,116.667,61.111,313.889,761.111,75.000,A
681,-0.175,0.260,0.090,197.222,47.222,338.889,716.667,44.444,A
682,-0.115,0.165,0.070,197.222,58.333,350.000,744.444,27.778,A
683,-0.145,0.065,-0.205,166.667,61.111,361.111,733.333,11.111,A
684,0.015,0.315,0.035,138.889,50.000,222.222,725.000,8.333,A
685,-0.605,0.330,0.160,175.000,80.556,366.667,738.889,13.889,A
686,-0.210,0.155,0.335,108.333,105.556,352.778,725.000,13.889,A
687,0.200,-0.490,-0.240,27.778,8.333,127.778,772.222,47.222,A
688,0.055,0.575,0.090,108.333,105.556,313.889,722.222,50.000,A
689,-0.055,-1.060,0.110,30.556,8.333,238.889,775.000,52.778,A
690,0.145,0.190,0.240,186.111,61.111,325.000,675.000,100.000,A
691,-0.040,0.280,0.045,144.444,83.333,350.000,730.556,55.556,A
692,-0.025,0.225,-0.070,177.778,50.000,302.778,733.333,2.778,A
693,-0.315,0.150,-0.035,63.889,66.667,319.444,716.667,16.667,A
694,-0.275,0.335,0.110,177.778,58.333,347.222,722.222,5.556,A
695,-0.160,0.225,0.140,44.444,55.556,313.889,733.333,11.111,A
696,-0.110,0.320,0.120,55.556,63.889,341.667,700.000,33.333,A
697,-0.070,0.205,0.150,61.111,61.111,316.667,708.333,8.333,A
698,-0.100,0.300,0.165,44.444,55.556,316.667,727.778,19.444,A
699,-0.145,0.550,0.145,138.889,63.889,311.111,763.889,36.111,A
700,-0.135,0.525,0.090,72.222,75.000,330.556,755.556,8.333,A
701,-0.145,0.315,0.075,144.444,91.667,336.111,733.333,22.222,A
702,-0.180,0.475,0.130,188.889,77.778,338.889,722.222,11.111,A
703,-0.195,0.375,0.085,127.778,66.667,311.111,727.778,5.556,A
704,-0.140,0.355,0.155,69.444,77.778,350.000,744.444,16.667,A
705,-0.100,0.360,0.125,177.778,72.222,319.444,730.556,13.889,A
706,-0.150,0.190,0.155,172.222,80.556,355.556,738.889,8.333,A
707,-0.165,0.605,0.145,52.778,86.111,327.778,758.333,19.444,A
708,-0.280,0.585,-0.015,136.111,83.333,352.778,750.000,8.333,A
709,-0.310,0.625,0.055,61.111,69.444,322.222,744.444,5.556,A
710,-0.215,0.595,0.115,141.667,75.000,347.222,744.444,0.000,A
711,-0.185,0.610,0.135,91.667,69.444,347.222,766.667,22.222,A
712,-0.185,0.445,0.035,163.889,80.556,338.889,755.556,11.111,A
713,-0.125,0.565,0.130,44.444,55.556,316.667,752.778,2.778,A
714,-0.150,0.455,0.105,197.222,83.333,344.444,741.667,11.111,A
715,-0.040,0.325,0.060,186.111,66.667,350.000,1638.889,897.222,R
716,-0.070,0.460,0.045,119.444,77.778,311.111,688.889,950.000,A
717,-0.105,0.295,0.030,175.000,63.889,352.778,1580.556,891.667,R
718,-0.125,0.315,-0.010,97.222,77.778,347.222,686.111,894.444,A
719,-0.070,0.485,-0.015,194.444,61.111,286.111,744.444,58.333,A
720,-0.275,0.480,0.045,88.889,75.000,352.778,736.111,8.333,A
721,-0.200,0.480,0.075,44.444,50.000,291.667,758.333,22.222,A
722,-0.065,0.715,0.200,58.333,86.111,316.667,727.778,30.556,A
723,-0.135,0.405,0.115,138.889,83.333,322.222,741.667,13.889,A
724,-0.095,0.430,0.190,183.333,52.778,313.889,1769.444,1027.778,R
725,-0.120,0.570,0.105,188.889,63.889,325.000,666.667,1102.778,A
726,-0.170,0.200,0.040,180.556,80.556,377.778,752.778,86.111,A
727,-0.390,0.010,0.285,77.778,63.889,327.778,744.444,8.333,A
728,0.295,0.570,0.325,108.333,58.333,286.111,730.556,13.889,A
729,-0.060,0.500,0.150,130.556,94.444,363.889,750.000,19.444,A
730,-0.175,0.490,0.125,172.222,80.556,372.222,730.556,19.444,A
731,-0.075,0.455,0.180,150.000,77.778,325.000,752.778,22.222,A
732,-0.030,0.725,0.150,105.556,58.333,316.667,772.222,19.444,A
733,-0.160,0.485,0.015,197.222,77.778,352.778,747.222,25.000,A
734,-0.030,0.540,0.220,127.778,83.333,333.333,750.000,2.778,A
735,-0.145,0.315,0.080,191.667,61.111,316.667,738.889,11.111,A
736,-0.190,0.435,0.100,136.111,77.778,319.444,763.889,25.000,A
737,0.015,0.560,0.270,180.556,83.333,341.667,1797.222,1033.333,R
738,-0.165,0.350,0.095,38.889,50.000,300.000,677.778,1119.444,A
739,-0.080,0.330,0.125,125.000,63.889,316.667,730.556,52.778,A
740,-0.070,0.350,0.105,180.556,75.000,377.778,1780.556,1050.000,R
741,-0.095,0.635,0.135,50.000,63.889,302.778,713.889,1066.667,A
742,-0.235,0.590,0.145,69.444,77.778,336.111,744.444,30.556,A
743,-0.180,0.470,0.095,125.000,83.333,341.667,722.222,22.222,A
744,-0.075,0.280,0.080,175.000,61.111,341.667,1825.000,1102.778,R
745,-0.105,0.235,0.075,141.667,69.444,330.556,666.667,1158.333,A
746,-0.205,0.195,0.130,186.111,83.333,355.556,741.667,75.000,A
747,-0.250,0.480,0.005,136.111,77.778,319.444,747.222,5.556,A
748,-0.230,0.490,0.120,63.889,75.000,352.778,727.778,19.444,A
749,-0.225,0.650,0.105,63.889,72.222,316.667,738.889,11.111,A
750,-0.205,0.540,0.145,38.889,50.000,313.889,736.111,2.778,A
751,-0.130,0.595,0.110,172.222,83.333,350.000,1808.333,1072.222,R
752,-0.110,0.540,0.165,141.667,72.222,316.667,686.111,1122.222,A
753,-0.165,0.390,0.140,69.444,75.000,341.667,741.667,55.556,A
754,-0.035,0.570,0.180,197.222,75.000,355.556,1727.778,986.111,R
755,-0.075,0.560,0.175,186.111,69.444,319.444,694.444,1033.333,A
756,-0.110,0.560,0.055,197.222,77.778,344.444,1780.556,1086.111,R
757,-0.175,0.680,0.160,152.778,61.111,316.667,688.889,1091.667,A
758,-0.200,0.505,0.125,197.222,88.889,350.000,744.444,55.556,A
759,-0.185,0.570,0.020,175.000,86.111,377.778,1833.333,1088.889,R
760,-0.185,0.480,0.045,150.000,52.778,305.556,672.222,1161.111,A
761,-0.215,0.430,0.080,138.889,77.778,344.444,727.778,55.556,A
762,-0.150,0.395,0.075,183.333,75.000,352.778,1844.444,1116.667,R
763,-0.155,0.645,0.085,175.000,80.556,355.556,688.889,1155.556,A
764,-0.205,0.590,0.070,141.667,75.000,341.667,758.333,69.444,A
765,-0.195,0.525,0.095,141.667,77.778,333.333,711.111,47.222,A
766,-0.175,0.475,0.105,197.222,66.667,319.444,719.444,8.333,A
767,-0.155,0.440,0.015,197.222,83.333,352.778,1975.000,1255.556,R
768,-0.205,0.425,0.065,150.000,80.556,344.444,672.222,1302.778,A
769,-0.230,0.315,0.015,197.222,80.556,347.222,730.556,58.333,A
770,-0.235,0.260,0.000,55.556,61.111,311.111,719.444,11.111,A
771,-0.295,0.480,-0.020,150.000,55.556,316.667,719.444,0.000,A
772,-0.275,0.470,0.045,197.222,66.667,341.667,722.222,2.778,A
773,-0.255,0.525,0.045,69.444,77.778,341.667,741.667,19.444,A
774,-0.255,0.550,0.070,63.889,75.000,327.778,752.778,11.111,A
775,-0.245,0.470,0.090,147.222,63.889,316.667,722.222,30.556,A
776,-0.150,0.545,0.090,188.889,58.333,344.444,1902.778,1180.556,R
777,-0.155,0.570,0.115,158.333,61.111,327.778,702.778,1200.000,A
778,-0.175,0.445,0.110,138.889,77.778,347.222,747.222,44.444,A
779,-0.160,0.645,0.035,191.667,83.333,358.333,1830.556,1083.333,R
780,-0.175,0.600,0.100,161.111,69.444,327.778,697.222,1133.333,A
781,-0.220,0.465,0.075,197.222,69.444,350.000,733.333,36.111,A
782,-0.230,0.485,0.065,197.222,80.556,350.000,741.667,8.333,A
783,-0.160,0.520,0.080,186.111,61.111,338.889,2147.222,1405.556,R
784,-0.175,0.655,0.115,155.556,77.778,350.000,683.333,1463.889,A
785,-0.205,0.565,0.120,147.222,83.333,344.444,747.222,63.889,A
786,-0.130,0.550,0.055,191.667,66.667,338.889,1808.333,1061.111,R
787,-0.160,0.525,0.140,147.222,63.889,322.222,661.111,1147.222,A
788,-0.175,0.480,0.120,194.444,63.889,316.667,741.667,80.556,A
789,-0.140,0.575,0.060,194.444,66.667,341.667,1833.333,1091.667,R
790,-0.170,0.520,0.070,150.000,58.333,319.444,688.889,1144.444,A
791,-0.220,0.380,0.055,58.333,69.444,333.333,744.444,55.556,A
792,-0.135,0.355,0.035,197.222,77.778,377.778,1880.556,1136.111,R
793,-0.215,0.380,0.040,105.556,75.000,358.333,694.444,1186.111,A
794,-0.230,0.410,0.030,188.889,63.889,319.444,758.333,63.889,A
795,-0.260,0.495,0.050,61.111,75.000,327.778,738.889,19.444,A
796,-0.110,0.555,0.100,191.667,63.889,350.000,1897.222,1158.333,R
797,-0.150,0.765,0.165,147.222,77.778,347.222,680.556,1216.667,A
798,-0.175,0.655,0.130,191.667,66.667,313.889,752.778,72.222,A
799,-0.055,0.685,0.195,188.889,61.111,341.667,1827.778,1075.000,R
800,-0.070,0.770,0.215,127.778,72.222,322.222,672.222,1155.556,A
801,-0.115,0.540,0.165,75.000,75.000,338.889,719.444,47.222,A
802,-0.060,0.500,0.120,194.444,83.333,383.333,1888.889,1169.444,R
803,-0.125,0.500,0.185,141.667,52.778,308.333,680.556,1208.333,A
804,-0.150,0.485,0.125,52.778,63.889,316.667,738.889,58.333,A
805,-0.170,0.465,0.050,180.556,80.556,375.000,1855.556,1116.667,R
806,-0.195,0.445,0.125,161.111,66.667,338.889,688.889,1166.667,A
807,-0.185,0.325,0.095,136.111,83.333,347.222,744.444,55.556,A
808,-0.180,0.225,0.055,52.778,63.889,327.778,713.889,30.556,A
809,-0.205,0.095,-0.145,197.222,83.333,358.333,713.889,0.000,A
810,-0.340,0.265,0.025,55.556,58.333,336.111,722.222,8.333,A
811,-0.230,0.645,0.150,66.667,77.778,333.333,744.444,22.222,A
812,-0.235,0.750,0.140,72.222,61.111,316.667,750.000,5.556,A
813,-0.255,0.570,0.085,63.889,72.222,338.889,741.667,8.333,A
814,-0.235,0.660,0.140,52.778,66.667,325.000,722.222,19.444,A
815,-0.190,0.630,0.125,150.000,63.889,325.000,738.889,16.667,A
816,-0.210,0.620,0.095,69.444,61.111,330.556,752.778,13.889,A
817,-0.215,0.600,0.095,152.778,83.333,347.222,741.667,11.111,A
818,-0.210,0.525,0.090,94.444,83.333,344.444,741.667,0.000,A
819,-0.220,0.510,0.065,58.333,69.444,316.667,766.667,25.000,A
820,-0.225,0.645,0.045,188.889,69.444,344.444,1897.222,1130.556,R
821,-0.165,0.680,0.140,152.778,66.667,333.333,705.556,1191.667,A
822,-0.190,0.755,0.105,94.444,77.778,352.778,772.222,66.667,A
823,-0.240,0.635,0.095,77.778,75.000,347.222,738.889,33.333,A
824,-0.225,0.575,0.075,144.444,83.333,347.222,738.889,0.000,A
825,-0.205,0.435,0.035,175.000,75.000,350.000,1863.889,1125.000,R
826,-0.205,0.485,0.075,155.556,72.222,352.778,694.444,1169.444,A
827,-0.260,0.285,-0.015,47.222,61.111,322.222,755.556,61.111,A
828,-0.180,0.285,-0.055,186.111,83.333,366.667,2030.556,1275.000,R
829,-0.250,0.255,-0.035,163.889,72.222,341.667,683.333,1347.222,A
830,-0.280,0.195,-0.045,108.333,75.000,380.556,769.444,86.111,A
831,-0.300,0.290,-0.105,186.111,55.556,313.889,1983.333,1213.889,R
832,-0.305,0.385,-0.055,155.556,55.556,313.889,694.444,1288.889,A
833,-0.355,0.400,-0.040,138.889,77.778,352.778,755.556,61.111,A
834,-0.215,0.430,-0.010,180.556,86.111,338.889,1913.889,1158.333,R
835,-0.225,0.375,-0.070,147.222,63.889,311.111,686.111,1227.778,A
836,-0.475,0.190,-0.165,194.444,77.778,344.444,741.667,55.556,A
837,-0.250,0.495,0.020,188.889,72.222,347.222,1883.333,1141.667,R
838,-0.180,0.675,0.260,105.556,75.000,338.889,716.667,1166.667,A
839,-0.105,0.680,0.220,47.222,58.333,344.444,744.444,27.778,A
840,-0.080,0.650,0.260,138.889,58.333,325.000,719.444,25.000,A
841,-0.065,0.670,0.065,186.111,72.222,375.000,2255.556,1536.111,R
842,-0.175,0.545,0.070,47.222,63.889,350.000,686.111,1569.444,A
843,-0.265,0.320,-0.005,75.000,86.111,352.778,758.333,72.222,A
844,-0.225,0.580,-0.065,197.222,77.778,350.000,1894.444,1136.111,R
845,-0.235,0.560,0.010,47.222,58.333,325.000,680.556,1213.889,A
846,-0.280,0.540,0.030,69.444,83.333,352.778,758.333,77.778,A
847,-0.245,0.600,0.040,188.889,83.333,366.667,1875.000,1116.667,R
848,-0.210,0.635,0.145,58.333,66.667,347.222,683.333,1191.667,A
849,-0.235,0.345,0.000,69.444,77.778,347.222,730.556,47.222,A
850,-0.350,0.260,-0.065,194.444,83.333,347.222,713.889,16.667,A
851,-0.245,0.425,-0.090,183.333,61.111,352.778,1808.333,1094.444,R
852,-0.215,0.530,0.040,152.778,80.556,355.556,688.889,1119.444,A
853,-0.255,0.310,-0.025,141.667,83.333,347.222,738.889,50.000,A
854,-0.200,0.375,0.015,194.444,77.778,344.444,1866.667,1127.778,R
855,-0.145,0.520,0.060,83.333,80.556,344.444,672.222,1194.444,A
856,-0.210,0.335,0.065,55.556,63.889,316.667,736.111,63.889,A
857,-0.165,0.200,-0.080,183.333,80.556,344.444,1961.111,1225.000,R
858,-0.195,0.195,-0.010,191.667,77.778,330.556,677.778,1283.333,A
859,-0.270,0.355,-0.045,61.111,75.000,352.778,741.667,63.889,A
860,-0.240,0.475,0.035,197.222,75.000,336.111,736.111,5.556,A
861,-0.235,0.415,0.065,61.111,69.444,325.000,725.000,11.111,A
862,-0.150,0.395,0.035,186.111,69.444,361.111,1827.778,1102.778,R
863,-0.165,0.390,0.040,147.222,80.556,344.444,691.667,1136.111,A
864,-0.255,0.485,0.035,63.889,72.222,347.222,755.556,63.889,A
865,-0.220,0.550,0.085,138.889,75.000,344.444,733.333,22.222,A
866,-0.210,0.485,0.100,50.000,69.444,336.111,727.778,5.556,A
867,-0.200,0.405,0.055,127.778,77.778,355.556,738.889,11.111,A
868,-0.215,0.495,0.075,55.556,63.889,344.444,725.000,13.889,A
869,-0.240,0.370,0.055,147.222,52.778,325.000,750.000,25.000,A
870,-0.205,0.390,0.055,180.556,69.444,341.667,1391.667,641.667,R
871,-0.220,0.465,0.050,175.000,80.556,347.222,675.000,716.667,A
872,-0.230,0.300,0.015,147.222,80.556,355.556,736.111,61.111,A
873,-0.150,0.435,0.005,169.444,61.111,336.111,1880.556,1144.444,R
874,-0.185,0.540,0.070,152.778,80.556,344.444,700.000,1180.556,A
875,-0.180,0.410,-0.015,197.222,105.556,369.444,1847.222,1147.222,R
876,-0.160,0.350,0.055,152.778,55.556,344.444,686.111,1161.111,A
877,-0.190,0.295,0.030,83.333,80.556,347.222,758.333,72.222,A
878,-0.225,0.490,-0.055,188.889,83.333,377.778,1938.889,1180.556,R
879,-0.225,0.455,0.040,197.222,63.889,330.556,680.556,1258.333,A
880,-0.215,0.240,-0.060,172.222,72.222,355.556,736.111,55.556,A
881,-0.210,0.300,-0.015,58.333,80.556,338.889,747.222,11.111,A
882,-0.240,0.400,-0.085,197.222,75.000,338.889,736.111,11.111,A
883,-0.230,0.440,0.100,44.444,52.778,316.667,733.333,2.778,A
884,-0.160,0.535,0.115,52.778,63.889,344.444,711.111,22.222,A
885,-0.035,0.590,0.135,188.889,69.444,355.556,2030.556,1319.444,R
886,-0.040,0.425,0.125,177.778,58.333,327.778,2716.667,686.111,R
887,-0.030,0.685,0.205,188.889,63.889,338.889,1111.111,1605.556,R
888,-0.040,0.620,0.055,136.111,75.000,350.000,716.667,394.444,A
889,-0.090,0.600,0.125,52.778,50.000,311.111,580.556,136.111,A
890,-0.135,0.520,0.110,50.000,63.889,330.556,836.111,255.556,A
891,-0.115,0.565,0.180,191.667,72.222,355.556,702.778,133.333,A
892,-0.135,0.400,0.075,175.000,63.889,325.000,719.444,16.667,A
893,-0.105,0.385,0.055,166.667,83.333,380.556,1933.333,1213.889,R
894,-0.115,0.380,0.090,163.889,61.111,316.667,686.111,1247.222,A
895,-0.045,0.295,0.110,191.667,63.889,352.778,725.000,38.889,A
896,-0.075,0.280,0.125,58.333,69.444,319.444,716.667,8.333,A
897,-0.090,0.390,-0.020,194.444,69.444,361.111,2488.889,1772.222,R
898,-0.190,0.395,-0.005,191.667,72.222,333.333,1355.556,1133.333,R
899,-0.270,0.635,0.060,144.444,75.000,341.667,694.444,661.111,A
900,-0.245,0.555,0.070,83.333,80.556,344.444,741.667,47.222,A
901,-0.175,0.705,0.105,197.222,80.556,363.889,716.667,25.000,A
902,-0.180,0.570,0.095,197.222,83.333,350.000,738.889,22.222,A
903,-0.180,0.585,0.105,50.000,58.333,302.778,750.000,11.111,A
904,-0.170,0.625,0.140,119.444,63.889,338.889,730.556,19.444,A
905,-0.145,0.580,0.170,55.556,63.889,316.667,736.111,5.556,A
906,-0.135,0.540,0.160,80.556,83.333,350.000,722.222,13.889,A
907,-0.160,0.665,0.195,63.889,75.000,347.222,752.778,30.556,A
908,-0.060,0.630,0.080,183.333,83.333,366.667,3158.333,2405.556,R
909,-0.095,0.505,0.125,188.889,58.333,361.111,1233.333,1925.000,R
910,-0.140,0.675,0.170,144.444,69.444,341.667,713.889,519.444,A
911,-0.120,0.715,0.130,141.667,72.222,352.778,761.111,47.222,A
912,-0.125,0.510,0.120,194.444,66.667,338.889,727.778,33.333,A
913,-0.150,0.485,0.120,188.889,66.667,319.444,730.556,2.778,A
914,-0.155,0.490,0.080,86.111,69.444,327.778,733.333,2.778,A
915,-0.190,0.365,0.085,172.222,72.222,344.444,747.222,13.889,A
916,-0.160,0.635,0.045,183.333,80.556,338.889,1750.000,1002.778,R
917,-0.135,0.660,0.125,147.222,83.333,344.444,666.667,1083.333,A
918,-0.180,0.490,0.060,197.222,66.667,350.000,744.444,77.778,A
919,-0.110,0.640,0.100,191.667,86.111,363.889,1933.333,1188.889,R
920,-0.110,0.640,0.200,175.000,77.778,347.222,713.889,1219.444,A
921,-0.160,0.595,0.130,52.778,61.111,325.000,747.222,33.333,A
922,-0.145,0.645,0.180,147.222,77.778,336.111,736.111,11.111,A
923,-0.035,0.710,0.145,180.556,86.111,383.333,2688.889,1952.778,R
924,-0.040,0.755,0.140,191.667,69.444,350.000,1444.444,1244.444,R
925,-0.130,0.775,0.190,108.333,86.111,350.000,688.889,755.556,A
926,-0.145,0.600,0.135,188.889,58.333,338.889,741.667,52.778,A
927,-0.170,0.590,0.115,50.000,61.111,316.667,736.111,5.556,A
928,-0.185,0.480,0.110,50.000,61.111,344.444,730.556,5.556,A
929,-0.155,0.490,0.110,197.222,83.333,338.889,733.333,2.778,A
930,-0.140,0.555,0.140,147.222,58.333,316.667,730.556,2.778,A
931,-0.110,0.700,0.080,194.444,75.000,369.444,1886.111,1155.556,R
932,-0.110,0.665,0.175,152.778,66.667,341.667,694.444,1191.667,A
933,-0.155,0.620,0.135,108.333,80.556,347.222,744.444,50.000,A
934,-0.105,0.690,0.120,188.889,69.444,347.222,1919.444,1175.000,R
935,-0.120,0.745,0.165,141.667,75.000,347.222,677.778,1241.667,A
936,-0.135,0.605,0.105,147.222,63.889,319.444,747.222,69.444,A
937,-0.075,0.550,0.105,127.778,77.778,352.778,747.222,0.000,A
938,-0.185,0.395,0.055,194.444,63.889,325.000,722.222,25.000,A
939,-0.195,0.320,0.060,150.000,69.444,327.778,736.111,13.889,A
940,-0.155,0.480,0.025,191.667,80.556,388.889,1844.444,1108.333,R
941,-0.170,0.535,0.125,144.444,77.778,344.444,708.333,1136.111,A
942,-0.170,0.655,0.150,105.556,80.556,358.333,761.111,52.778,A
943,-0.145,0.705,0.175,194.444,72.222,330.556,727.778,33.333,A
944,-0.135,0.725,0.185,88.889,80.556,358.333,730.556,2.778,A
945,-0.150,0.610,0.160,144.444,83.333,341.667,752.778,22.222,A
946,-0.180,0.535,0.120,47.222,66.667,330.556,738.889,13.889,A
947,-0.125,0.585,0.080,186.111,83.333,347.222,1630.556,891.667,R
948,-0.175,0.585,0.115,94.444,77.778,350.000,680.556,950.000,A
949,-0.200,0.365,0.075,197.222,77.778,350.000,738.889,58.333,A
950,-0.120,0.405,0.075,147.222,77.778,341.667,741.667,2.778,A
951,-0.070,0.470,0.045,183.333,61.111,347.222,2677.778,1936.111,R
952,-0.125,0.645,0.125,197.222,80.556,372.222,1161.111,1516.667,R
953,-0.120,0.640,0.210,141.667,61.111,325.000,700.000,461.111,A
954,-0.130,0.645,0.160,197.222,80.556,350.000,747.222,47.222,A
955,-0.065,0.500,0.115,191.667,63.889,341.667,1933.333,1186.111,R
956,-0.150,0.505,0.115,147.222,77.778,347.222,677.778,1255.556,A
957,-0.190,0.500,0.115,138.889,80.556,372.222,741.667,63.889,A
958,-0.165,0.735,0.135,147.222,83.333,347.222,761.111,19.444,A
959,-0.160,0.720,0.160,197.222,69.444,341.667,755.556,5.556,A
960,-0.180,0.565,0.155,63.889,77.778,347.222,738.889,16.667,A
961,-0.185,0.545,0.185,197.222,72.222,341.667,730.556,8.333,A
962,-0.190,0.725,0.130,75.000,77.778,341.667,738.889,8.333,A
963,-0.215,0.595,0.100,58.333,69.444,319.444,752.778,13.889,A
964,-0.190,0.665,-0.025,188.889,72.222,355.556,4202.778,3450.000,R
965,-0.205,0.630,0.080,194.444,80.556,355.556,1272.222,2930.556,R
966,-0.180,0.600,0.165,147.222,63.889,355.556,686.111,586.111,A
967,-0.145,0.700,0.230,197.222,75.000,338.889,744.444,58.333,A
968,-0.060,0.755,0.250,144.444,69.444,325.000,727.778,16.667,A
969,-0.090,0.760,0.185,55.556,66.667,344.444,736.111,8.333,A
970,-0.135,0.590,0.110,194.444,80.556,355.556,738.889,2.778,A
971,-0.210,0.525,0.055,150.000,66.667,322.222,752.778,13.889,A
972,-0.270,0.495,0.005,100.000,80.556,352.778,755.556,2.778,A
973,-0.160,0.700,0.015,188.889,80.556,383.333,3094.444,2338.889,R
974,-0.085,0.675,0.165,186.111,69.444,355.556,1252.778,1841.667,R
975,-0.095,0.690,0.205,147.222,80.556,336.111,697.222,555.556,A
976,-0.105,0.685,0.185,138.889,83.333,347.222,727.778,30.556,A
977,-0.045,0.675,0.120,191.667,83.333,377.778,1958.333,1230.556,R
978,-0.100,0.685,0.140,152.778,66.667,341.667,694.444,1263.889,A
979,-0.175,0.455,0.060,138.889,61.111,350.000,752.778,58.333,A
980,-0.165,0.515,0.100,147.222,61.111,347.222,736.111,16.667,A
981,-0.160,0.785,0.145,197.222,66.667,347.222,747.222,11.111,A
982,-0.205,0.850,0.085,194.444,83.333,347.222,755.556,8.333,A
983,-0.215,0.780,0.155,150.000,86.111,372.222,761.111,5.556,A
984,-0.185,0.810,0.155,58.333,69.444,319.444,752.778,8.333,A
985,-0.130,0.775,0.185,144.444,83.333,352.778,744.444,8.333,A
986,0.005,0.910,0.225,188.889,66.667,344.444,2180.556,1436.111,R
987,0.010,0.795,0.165,188.889,63.889,350.000,4100.000,1919.444,R
988,0.000,0.595,0.225,197.222,66.667,363.889,1241.667,2858.333,R
989,-0.015,0.640,0.195,58.333,61.111,338.889,700.000,541.667,A
990,-0.005,0.650,0.265,91.667,83.333,341.667,730.556,30.556,A
991,0.025,0.830,0.275,175.000,77.778,352.778,722.222,8.333,A
992,-0.025,0.880,0.270,197.222,77.778,358.333,747.222,25.000,A
993,-0.025,0.805,0.225,63.889,72.222,344.444,730.556,16.667,A
994,-0.050,0.780,0.180,141.667,83.333,352.778,741.667,11.111,A
995,-0.120,0.720,0.135,144.444,58.333,319.444,747.222,5.556,A
996,-0.150,0.710,0.115,191.667,69.444,347.222,744.444,2.778,A
997,-0.160,0.625,0.130,58.333,66.667,325.000,736.111,8.333,A
998,-0.185,0.610,0.120,50.000,63.889,316.667,725.000,11.111,A
999,-0.070,0.820,0.150,172.222,83.333,352.778,3283.333,2558.333,R
1000,-0.030,0.740,0.195,194.444,83.333,366.667,1244.444,2038.889,R
1001,-0.065,0.760,0.200,150.000,69.444,341.667,688.889,555.556,A
1002,-0.095,0.565,0.155,191.667,63.889,347.222,750.000,61.111,A
1003,-0.060,0.615,0.140,191.667,80.556,355.556,1822.222,1072.222,R
1004,-0.060,0.595,0.175,141.667,80.556,347.222,672.222,1150.000,A
1005,-0.115,0.360,0.070,116.667,58.333,355.556,736.111,63.889,A
1006,-0.100,0.455,0.095,58.333,80.556,372.222,744.444,8.333,A
1007,-0.060,0.210,0.120,191.667,69.444,350.000,730.556,13.889,A
1008,-0.120,0.495,0.100,47.222,55.556,313.889,730.556,0.000,A
1009,-0.135,0.490,0.140,77.778,83.333,352.778,722.222,8.333,A
1010,-0.035,0.430,0.130,194.444,63.889,341.667,1758.333,1036.111,R
1011,-0.065,0.485,0.130,61.111,66.667,338.889,697.222,1061.111,A
1012,-0.115,0.385,0.150,108.333,83.333,372.222,747.222,50.000,A
1013,-0.110,0.565,0.175,69.444,66.667,336.111,747.222,0.000,A
1014,-0.095,0.550,0.155,172.222,80.556,344.444,750.000,2.778,A
1015,-0.040,0.460,0.085,183.333,72.222,341.667,2111.111,1361.111,R
1016,-0.115,0.260,0.035,180.556,75.000,333.333,1463.889,647.222,R
1017,-0.185,0.380,0.065,152.778,69.444,352.778,675.000,788.889,A
1018,-0.235,0.480,0.030,50.000,55.556,322.222,755.556,80.556,A
1019,-0.220,0.545,0.085,172.222,83.333,344.444,733.333,22.222,A
1020,-0.205,0.550,0.080,55.556,66.667,338.889,733.333,0.000,A
1021,-0.170,0.495,0.120,197.222,69.444,355.556,747.222,13.889,A
1022,-0.150,0.545,0.110,191.667,66.667,336.111,741.667,5.556,A
1023,-0.050,0.705,0.140,197.222,69.444,372.222,2891.667,2150.000,R
1024,-0.015,0.835,0.235,197.222,80.556,355.556,1144.444,1747.222,R
1025,-0.025,0.810,0.285,138.889,80.556,347.222,705.556,438.889,A
1026,-0.060,0.655,0.235,86.111,83.333,350.000,741.667,36.111,A
1027,-0.040,0.645,0.255,197.222,75.000,341.667,750.000,8.333,A
1028,-0.045,0.680,0.215,166.667,72.222,344.444,733.333,16.667,A
1029,-0.070,0.740,0.205,141.667,63.889,336.111,747.222,13.889,A
1030,-0.085,0.705,0.205,105.556,61.111,327.778,761.111,13.889,A
1031,-0.115,0.635,0.200,75.000,80.556,350.000,733.333,27.778,A
1032,-0.055,0.825,0.140,188.889,86.111,355.556,2405.556,1672.222,R
1033,-0.005,0.855,0.185,177.778,55.556,319.444,2702.778,297.222,R
1034,0.020,0.805,0.275,191.667,66.667,363.889,1275.000,1427.778,R
1035,-0.005,0.895,0.300,88.889,75.000,350.000,708.333,566.667,A
1036,-0.020,0.740,0.240,58.333,66.667,347.222,761.111,52.778,A
1037,-0.025,0.655,0.240,197.222,69.444,361.111,722.222,38.889,A
1038,-0.040,0.660,0.225,194.444,66.667,322.222,738.889,16.667,A
1039,-0.070,0.530,0.200,172.222,80.556,372.222,725.000,13.889,A
1040,-0.065,0.485,0.210,58.333,66.667,352.778,744.444,19.444,A
1041,-0.040,0.585,0.170,186.111,80.556,372.222,1491.667,747.222,R
1042,-0.060,0.695,0.190,191.667,61.111,311.111,677.778,813.889,A
1043,-0.115,0.565,0.185,130.556,72.222,344.444,738.889,61.111,A
1044,-0.070,0.830,0.150,197.222,83.333,380.556,1813.889,1075.000,R
1045,-0.025,0.760,0.255,177.778,83.333,377.778,700.000,1113.889,A
1046,-0.075,0.760,0.215,102.778,66.667,336.111,758.333,58.333,A
1047,-0.065,0.675,0.215,194.444,69.444,327.778,722.222,36.111,A
1048,-0.120,0.675,0.080,152.778,61.111,355.556,1897.222,1175.000,R
1049,-0.130,0.760,0.110,150.000,66.667,347.222,705.556,1191.667,A
1050,-0.175,0.595,0.070,141.667,83.333,350.000,755.556,50.000,A
1051,-0.190,0.610,0.100,186.111,80.556,352.778,730.556,25.000,A
1052,-0.170,0.615,0.140,180.556,83.333,347.222,736.111,5.556,A
1053,-0.180,0.620,0.120,150.000,66.667,325.000,750.000,13.889,A
1054,-0.185,0.480,0.090,58.333,61.111,322.222,727.778,22.222,A
1055,-0.235,0.670,0.100,83.333,83.333,344.444,755.556,27.778,A
1056,-0.210,0.695,0.110,144.444,83.333,347.222,763.889,8.333,A
1057,0.050,0.780,0.315,177.778,58.333,352.778,5872.222,5108.333,R
1058,0.165,0.765,0.365,175.000,83.333,383.333,1191.667,4680.556,R
1059,0.115,0.805,0.330,152.778,61.111,344.444,719.444,472.222,A
1060,-0.005,0.745,0.220,144.444,61.111,350.000,766.667,47.222,A
1061,-0.075,0.585,0.100,183.333,83.333,344.444,727.778,38.889,A
1062,-0.185,0.470,0.000,197.222,63.889,325.000,741.667,13.889,A
1063,-0.280,0.450,-0.030,72.222,77.778,369.444,722.222,19.444,A
1064,-0.320,0.490,-0.050,197.222,77.778,350.000,755.556,33.333,A
1065,-0.305,0.555,-0.035,63.889,72.222,341.667,766.667,11.111,A
1066,-0.295,0.460,-0.005,141.667,83.333,358.333,736.111,30.556,A
1067,-0.235,0.470,0.060,75.000,83.333,347.222,736.111,0.000,A
1068,-0.205,0.465,0.075,52.778,61.111,319.444,744.444,8.333,A
1069,-0.160,0.445,0.070,66.667,69.444,344.444,747.222,2.778,A
1070,-0.015,0.690,0.120,197.222,69.444,347.222,2766.667,2019.444,R
1071,-0.160,0.660,0.005,172.222,77.778,358.333,1497.222,1269.444,R
1072,-0.235,0.685,0.065,144.444,77.778,363.889,708.333,788.889,A
1073,-0.245,0.415,-0.010,191.667,75.000,344.444,758.333,50.000,A
1074,-0.310,0.635,0.000,69.444,75.000,350.000,741.667,16.667,A
1075,-0.280,0.530,0.005,83.333,80.556,347.222,741.667,0.000,A
1076,-0.260,0.545,0.035,63.889,66.667,316.667,719.444,22.222,A
1077,-0.225,0.545,0.110,50.000,63.889,350.000,725.000,5.556,A
1078,-0.220,0.565,0.075,94.444,69.444,341.667,741.667,16.667,A
1079,-0.215,0.495,0.035,80.556,77.778,330.556,755.556,13.889,A
1080,-0.160,0.545,0.055,180.556,80.556,372.222,1994.444,1238.889,R
1081,0.010,0.600,0.115,66.667,77.778,391.667,1422.222,572.222,R
1082,-0.110,0.430,0.145,105.556,83.333,355.556,702.778,719.444,A
1083,-0.190,0.385,0.055,127.778,83.333,338.889,750.000,47.222,A
1084,-0.175,0.455,0.145,169.444,72.222,347.222,744.444,5.556,A
1085,-0.050,0.545,0.110,136.111,66.667,355.556,1950.000,1205.556,R
1086,-0.090,0.455,0.080,86.111,69.444,347.222,683.333,1266.667,A
1087,-0.185,0.205,0.010,186.111,80.556,347.222,750.000,66.667,A
1088,-0.175,0.535,0.005,188.889,66.667,361.111,1908.333,1158.333,R
1089,-0.180,0.540,0.120,136.111,83.333,347.222,691.667,1216.667,A
1090,-0.210,0.505,0.065,133.333,72.222,347.222,752.778,61.111,A
1091,-0.220,0.440,0.025,150.000,66.667,341.667,755.556,2.778,A
1092,-0.230,0.275,0.035,188.889,72.222,352.778,736.111,19.444,A
1093,-0.245,0.470,0.050,97.222,69.444,341.667,741.667,5.556,A
1094,-0.195,0.590,0.115,63.889,75.000,341.667,741.667,0.000,A
1095,-0.055,0.580,0.125,188.889,61.111,344.444,2552.778,1811.111,R
1096,-0.070,0.570,0.125,177.778,83.333,372.222,2655.556,102.778,R
1097,-0.055,0.625,0.195,197.222,83.333,383.333,1161.111,1494.444,R
1098,-0.090,0.615,0.185,136.111,75.000,347.222,702.778,458.333,A
1099,-0.170,0.480,0.120,133.333,83.333,350.000,738.889,36.111,A
1100,-0.165,0.450,0.095,194.444,72.222,350.000,716.667,22.222,A
1101,-0.160,0.315,0.090,194.444,69.444,352.778,727.778,11.111,A
1102,-0.170,0.395,-0.005,169.444,69.444,369.444,4411.111,3683.333,R
1103,-0.020,0.615,0.265,180.556,77.778,375.000,1216.667,3194.444,R
1104,0.050,0.755,0.310,50.000,58.333,341.667,736.111,480.556,A
1105,0.020,0.615,0.230,58.333,66.667,347.222,738.889,2.778,A
1106,-0.040,0.620,0.155,194.444,69.444,350.000,736.111,2.778,A
1107,-0.125,0.560,0.080,197.222,75.000,344.444,736.111,0.000,A
1108,-0.200,0.465,0.025,197.222,75.000,344.444,736.111,0.000,A
1109,-0.280,0.335,-0.020,183.333,83.333,372.222,716.667,19.444,A
1110,-0.285,0.395,-0.020,141.667,83.333,350.000,758.333,41.667,A
1111,-0.345,0.335,-0.045,152.778,58.333,333.333,747.222,11.111,A
1112,-0.315,0.515,0.040,61.111,75.000,350.000,744.444,2.778,A
1113,-0.170,0.605,0.015,194.444,69.444,355.556,2197.222,1452.778,R
1114,-0.135,0.505,-0.050,180.556,77.778,375.000,2786.111,588.889,R
1115,-0.165,0.630,0.090,177.778,77.778,375.000,1227.778,1558.333,R
1116,-0.180,0.665,0.115,152.778,72.222,350.000,688.889,538.889,A
1117,-0.215,0.540,0.075,138.889,80.556,377.778,744.444,55.556,A
1118,-0.195,0.490,0.030,136.111,77.778,341.667,733.333,11.111,A
1119,-0.210,0.540,0.055,197.222,72.222,347.222,722.222,11.111,A
1120,-0.225,0.560,0.070,194.444,83.333,344.444,716.667,5.556,A
1121,-0.200,0.525,0.085,150.000,80.556,369.444,736.111,19.444,A
1122,-0.175,0.515,0.080,197.222,80.556,361.111,747.222,11.111,A
1123,-0.190,0.455,0.060,194.444,72.222,350.000,738.889,8.333,A
1124,-0.140,0.365,0.005,180.556,86.111,375.000,1880.556,1141.667,R
1125,-0.195,0.380,0.015,150.000,80.556,350.000,691.667,1188.889,A
1126,-0.225,0.225,-0.040,191.667,69.444,352.778,722.222,30.556,A
1127,-0.245,0.365,0.040,133.333,66.667,341.667,738.889,16.667,A
1128,-0.210,0.415,0.025,147.222,61.111,336.111,758.333,19.444,A
1129,-0.215,0.370,0.055,52.778,58.333,322.222,727.778,30.556,A
1130,-0.105,0.455,0.045,175.000,69.444,355.556,3480.556,2752.778,R
1131,-0.130,0.500,0.125,194.444,83.333,366.667,1363.889,2116.667,R
1132,-0.135,0.750,0.095,197.222,83.333,375.000,677.778,686.111,A
1133,-0.225,0.615,0.025,130.556,61.111,327.778,733.333,55.556,A
1134,-0.210,0.565,0.070,136.111,77.778,350.000,730.556,2.778,A
1135,-0.175,0.575,0.105,63.889,69.444,347.222,727.778,2.778,A
1136,-0.135,0.535,0.135,86.111,83.333,358.333,719.444,8.333,A
1137,-0.110,0.490,0.145,41.667,58.333,325.000,733.333,13.889,A
1138,-0.130,0.550,0.140,138.889,75.000,347.222,719.444,13.889,A
1139,-0.150,0.485,0.180,133.333,66.667,344.444,725.000,5.556,A
1140,-0.140,0.775,0.200,147.222,83.333,347.222,752.778,27.778,A
1141,-0.125,0.770,0.170,50.000,58.333,325.000,733.333,19.444,A
1142,-0.110,0.745,0.250,83.333,66.667,330.556,741.667,8.333,A
1143,-0.035,0.450,0.050,197.222,72.222,375.000,2716.667,1975.000,R
1144,-0.075,0.625,0.100,183.333,77.778,361.111,2016.667,700.000,R
1145,-0.130,0.515,0.150,138.889,55.556,325.000,691.667,1325.000,A
1146,-0.160,0.415,0.075,80.556,83.333,375.000,733.333,41.667,A
1147,-0.215,0.400,0.045,161.111,83.333,366.667,744.444,11.111,A
1148,-0.220,0.255,0.055,138.889,77.778,352.778,747.222,2.778,A
1149,-0.205,0.355,0.040,72.222,83.333,352.778,741.667,5.556,A
1150,-0.200,0.375,0.045,111.111,83.333,375.000,730.556,11.111,A
1151,-0.190,0.370,0.105,83.333,83.333,341.667,738.889,8.333,A
1152,-0.095,0.645,0.135,194.444,69.444,355.556,2080.556,1341.667,R
1153,-0.125,0.640,0.075,177.778,80.556,377.778,4016.667,1936.111,R
1154,-0.135,0.575,0.100,188.889,80.556,350.000,1202.778,2813.889,R
1155,-0.170,0.610,0.140,136.111,69.444,350.000,683.333,519.444,A
1156,-0.200,0.560,0.085,136.111,80.556,350.000,744.444,61.111,A
1157,-0.205,0.585,0.095,50.000,61.111,319.444,741.667,2.778,A
1158,-0.160,0.570,0.120,144.444,77.778,372.222,730.556,11.111,A
1159,-0.185,0.470,0.055,61.111,61.111,341.667,747.222,16.667,A
1160,-0.250,0.430,-0.045,147.222,58.333,311.111,761.111,13.889,A
1161,-0.360,0.465,-0.040,97.222,72.222,347.222,744.444,16.667,A
1162,-0.300,0.520,0.020,86.111,83.333,341.667,755.556,11.111,A
1163,-0.215,0.575,0.070,66.667,75.000,347.222,747.222,8.333,A
1164,-0.220,0.485,0.045,58.333,66.667,358.333,761.111,13.889,A
1165,-0.240,0.485,0.005,94.444,61.111,316.667,766.667,5.556,A
1166,-0.235,0.465,-0.040,183.333,66.667,347.222,2769.444,2002.778,R
1167,-0.200,0.585,0.020,188.889,61.111,344.444,1225.000,1544.444,R
1168,-0.220,0.630,0.090,141.667,83.333,375.000,719.444,505.556,A
1169,-0.220,0.465,0.085,61.111,69.444,350.000,755.556,36.111,A
1170,-0.190,0.575,0.055,47.222,66.667,344.444,733.333,22.222,A
1171,-0.245,0.335,0.035,119.444,63.889,344.444,730.556,2.778,A
1172,-0.280,0.480,0.030,155.556,83.333,375.000,755.556,25.000,A
1173,-0.245,0.600,0.050,52.778,69.444,322.222,777.778,22.222,A
1174,-0.205,0.580,0.110,69.444,83.333,372.222,755.556,22.222,A
1175,-0.220,0.550,0.075,197.222,75.000,330.556,747.222,8.333,A
1176,-0.135,0.835,0.080,175.000,83.333,380.556,2980.556,2233.333,R
1177,-0.095,0.665,0.135,177.778,86.111,377.778,1205.556,1775.000,R
1178,-0.145,0.680,0.155,147.222,80.556,341.667,702.778,502.778,A
1179,-0.180,0.525,0.105,136.111,80.556,355.556,730.556,27.778,A
1180,-0.185,0.510,0.060,55.556,63.889,347.222,744.444,13.889,A
1181,-0.205,0.400,0.025,152.778,80.556,363.889,766.667,22.222,A
1182,-0.250,0.260,-0.005,116.667,63.889,330.556,733.333,33.333,A
1183,-0.225,0.305,0.045,136.111,66.667,338.889,744.444,11.111,A
1184,-0.045,0.705,0.430,188.889,69.444,361.111,3225.000,2480.556,R
1185,0.160,0.800,0.335,183.333,63.889,350.000,1261.111,1963.889,R
1186,0.025,0.720,0.270,147.222,61.111,319.444,700.000,561.111,A
1187,-0.050,0.695,0.210,138.889,80.556,355.556,725.000,25.000,A
1188,-0.085,0.745,0.185,61.111,69.444,344.444,755.556,30.556,A
1189,-0.100,0.735,0.260,66.667,77.778,355.556,766.667,11.111,A
1190,-0.035,0.775,0.290,63.889,80.556,350.000,741.667,25.000,A
1191,-0.015,0.740,0.280,144.444,83.333,347.222,738.889,2.778,A
1192,-0.035,0.730,0.225,61.111,69.444,338.889,752.778,13.889,A
1193,-0.035,0.600,0.260,141.667,83.333,352.778,741.667,11.111,A
1194,-0.055,0.575,0.245,75.000,86.111,375.000,744.444,2.778,A
1195,0.080,0.910,0.250,191.667,66.667,352.778,3138.889,2394.444,R
1196,0.105,0.760,0.325,188.889,66.667,352.778,1602.778,1536.111,R
1197,0.045,0.730,0.350,150.000,66.667,352.778,700.000,902.778,A
1198,0.000,0.770,0.305,58.333,72.222,347.222,772.222,72.222,A
1199,0.015,0.850,0.295,47.222,58.333,344.444,719.444,52.778,A
1200,-0.005,0.810,0.320,55.556,69.444,350.000,744.444,25.000,A
1201,0.035,0.765,0.310,144.444,83.333,350.000,750.000,5.556,A
1202,0.000,0.760,0.285,55.556,63.889,350.000,744.444,5.556,A
1203,-0.010,0.825,0.320,58.333,80.556,369.444,755.556,11.111,A
1204,-0.005,0.645,0.285,77.778,80.556,344.444,769.444,13.889,A
1205,0.000,0.670,0.275,155.556,63.889,338.889,747.222,22.222,A
1206,0.015,0.845,0.195,188.889,72.222,352.778,3000.000,2252.778,R
1207,0.040,0.845,0.275,197.222,72.222,347.222,1505.556,1494.444,R
1208,-0.010,0.775,0.280,147.222,61.111,347.222,688.889,816.667,A
1209,-0.045,0.745,0.265,111.111,77.778,341.667,758.333,69.444,A
1210,-0.030,0.820,0.255,130.556,75.000,350.000,752.778,5.556,A
1211,-0.025,0.745,0.290,141.667,80.556,352.778,744.444,8.333,A
1212,0.000,0.880,0.330,86.111,77.778,341.667,744.444,0.000,A
1213,-0.020,0.860,0.285,58.333,75.000,347.222,747.222,2.778,A
1214,-0.050,0.830,0.245,63.889,75.000,341.667,733.333,13.889,A
1215,-0.065,0.690,0.200,152.778,80.556,369.444,747.222,13.889,A
1216,-0.070,0.630,0.170,100.000,63.889,322.222,783.333,36.111,A
1217,-0.100,0.515,0.170,75.000,80.556,347.222,744.444,38.889,A
1218,-0.045,0.725,0.270,186.111,80.556,380.556,1766.667,1022.222,R
1219,0.015,0.930,0.325,158.333,77.778,336.111,716.667,1050.000,A
1220,-0.025,0.840,0.255,58.333,63.889,350.000,736.111,19.444,A
1221,-0.075,0.890,0.200,197.222,72.222,352.778,1872.222,1136.111,R
1222,-0.080,0.920,0.245,152.778,83.333,338.889,694.444,1177.778,A
1223,-0.110,0.795,0.215,52.778,63.889,347.222,733.333,38.889,A
1224,-0.090,0.765,0.240,197.222,63.889,338.889,738.889,5.556,A
1225,-0.065,0.810,0.240,58.333,72.222,344.444,766.667,27.778,A
1226,-0.050,0.665,0.210,197.222,77.778,352.778,736.111,30.556,A
1227,-0.100,0.795,0.210,55.556,58.333,319.444,755.556,19.444,A
1228,-0.130,0.880,0.205,147.222,80.556,347.222,758.333,2.778,A
1229,-0.065,0.800,0.170,197.222,77.778,350.000,2094.444,1336.111,R
1230,0.040,0.870,0.220,183.333,69.444,358.333,4144.444,2050.000,R
1231,0.045,0.935,0.390,175.000,80.556,352.778,850.000,3294.444,A
1232,0.325,0.925,0.300,197.222,102.778,344.444,505.556,344.444,A
1233,0.300,1.175,0.285,161.111,69.444,313.889,458.333,47.222,A
1234,-0.075,0.840,0.150,91.667,41.667,319.444,566.667,108.333,A
1235,-0.080,0.775,0.145,197.222,63.889,344.444,630.556,63.889,A
1236,-0.005,0.825,0.195,38.889,44.444,283.333,736.111,105.556,A
1237,-0.025,0.720,0.215,55.556,55.556,325.000,622.222,113.889,A
1238,-0.125,0.840,0.195,61.111,80.556,369.444,647.222,25.000,A
1239,-0.135,0.635,0.150,147.222,83.333,347.222,680.556,33.333,A
1240,0.010,0.810,0.180,186.111,69.444,352.778,2144.444,1463.889,R
1241,0.035,0.820,0.245,194.444,63.889,347.222,1133.333,1011.111,R
1242,-0.040,0.730,0.225,144.444,55.556,338.889,691.667,441.667,A
1243,-0.105,0.590,0.160,197.222,77.778,319.444,752.778,61.111,A
1244,-0.130,0.705,0.155,63.889,72.222,344.444,727.778,25.000,A
1245,-0.140,0.735,0.185,63.889,69.444,347.222,733.333,5.556,A
1246,-0.085,0.985,0.155,58.333,88.889,380.556,5616.667,4883.333,j
1247,0.050,1.020,0.335,186.111,69.444,361.111,1311.111,4305.556,R
1248,0.135,1.170,0.545,41.667,55.556,327.778,691.667,619.444,A
1249,0.275,1.155,0.550,136.111,75.000,347.222,725.000,33.333,A
1250,0.240,1.045,0.430,144.444,83.333,347.222,738.889,13.889,A
1251,0.120,0.860,0.325,191.667,69.444,350.000,713.889,25.000,A
1252,0.035,0.865,0.265,141.667,58.333,327.778,747.222,33.333,A
1253,-0.050,0.820,0.190,61.111,72.222,330.556,755.556,8.333,A
1254,-0.105,0.665,0.155,144.444,86.111,369.444,722.222,33.333,A
1255,-0.170,0.610,0.135,141.667,75.000,341.667,725.000,2.778,A
1256,-0.175,0.570,0.155,197.222,77.778,352.778,725.000,0.000,A
1257,-0.145,0.605,0.135,180.556,77.778,350.000,744.444,19.444,A
1258,-0.060,0.555,0.075,188.889,77.778,383.333,2591.667,1847.222,R
1259,-0.010,0.430,0.050,180.556,52.778,341.667,1213.889,1377.778,R
1260,-0.185,0.385,0.015,150.000,58.333,338.889,675.000,538.889,A
1261,-0.310,0.475,0.000,197.222,80.556,358.333,747.222,72.222,A
1262,-0.240,0.555,-0.025,158.333,63.889,319.444,727.778,19.444,A
1263,-0.370,0.505,-0.065,47.222,58.333,327.778,716.667,11.111,A
1264,-0.365,0.705,0.025,138.889,83.333,352.778,733.333,16.667,A
1265,-0.260,0.830,0.110,141.667,86.111,355.556,730.556,2.778,A
1266,-0.215,0.830,0.160,58.333,72.222,355.556,755.556,25.000,A
1267,-0.170,0.845,0.190,119.444,83.333,341.667,752.778,2.778,A
1268,-0.125,0.805,0.210,152.778,69.444,316.667,747.222,5.556,A
1269,-0.110,0.800,0.250,166.667,69.444,338.889,733.333,13.889,A
1270,-0.200,0.735,0.015,175.000,83.333,380.556,3111.111,2377.778,R
1271,-0.055,0.915,0.220,188.889,66.667,350.000,2286.111,825.000,R
1272,-0.020,0.985,0.240,161.111,75.000,358.333,2600.000,313.889,R
1273,0.020,0.765,0.220,166.667,63.889,350.000,2505.556,94.444,R
1274,-0.140,0.780,0.210,175.000,86.111,383.333,1475.000,1030.556,R
1275,-0.110,0.710,0.160,141.667,41.667,319.444,672.222,802.778,A
1276,-0.165,0.670,0.090,136.111,80.556,341.667,730.556,58.333,A
1277,-0.175,0.665,0.105,133.333,72.222,344.444,691.667,38.889,A
1278,-0.170,0.560,0.120,138.889,66.667,336.111,713.889,22.222,A
1279,-0.165,0.580,0.145,138.889,80.556,355.556,725.000,11.111,A
1280,-0.155,0.700,0.155,52.778,75.000,350.000,725.000,0.000,A
1281,-0.100,0.685,0.200,52.778,61.111,325.000,722.222,2.778,A
1282,-0.060,0.710,0.245,175.000,77.778,347.222,722.222,0.000,A
1283,0.105,0.815,0.230,186.111,75.000,372.222,4377.778,3655.556,R
1284,0.075,1.010,0.380,172.222,83.333,377.778,1161.111,3216.667,R
1285,0.145,1.025,0.415,147.222,55.556,344.444,705.556,455.556,A
1286,0.095,0.915,0.365,194.444,69.444,350.000,744.444,38.889,A
1287,0.065,0.955,0.335,50.000,63.889,344.444,727.778,16.667,A
1288,0.060,0.895,0.340,188.889,80.556,375.000,694.444,33.333,A
1289,0.080,0.815,0.280,194.444,61.111,333.333,713.889,19.444,A
1290,0.000,0.680,0.225,72.222,83.333,355.556,719.444,5.556,A
1291,-0.050,0.605,0.185,191.667,63.889,355.556,705.556,13.889,A
1292,-0.060,0.535,0.175,141.667,80.556,344.444,727.778,22.222,A
1293,-0.040,0.635,0.225,150.000,55.556,330.556,738.889,11.111,A
1294,-0.025,0.755,0.265,141.667,80.556,350.000,722.222,16.667,A
1295,0.035,0.820,0.250,177.778,80.556,372.222,1941.667,1219.444,R
1296,0.095,0.980,0.355,197.222,72.222,350.000,1522.222,419.444,R
1297,0.100,0.950,0.420,152.778,63.889,319.444,688.889,833.333,A
1298,0.080,0.905,0.345,147.222,61.111,344.444,730.556,41.667,A
1299,0.060,0.850,0.325,147.222,66.667,355.556,727.778,2.778,A
1300,0.055,0.820,0.305,191.667,83.333,369.444,736.111,8.333,A
1301,0.025,0.790,0.295,197.222,72.222,327.778,741.667,5.556,A
1302,0.030,0.720,0.320,55.556,63.889,341.667,733.333,8.333,A
1303,0.030,0.980,0.220,172.222,75.000,369.444,4150.000,3416.667,R
1304,0.075,0.895,0.405,186.111,66.667,355.556,1113.889,3036.111,R
1305,0.110,1.085,0.435,136.111,77.778,352.778,686.111,427.778,A
1306,0.140,0.940,0.375,197.222,72.222,347.222,725.000,38.889,A
1307,0.110,0.905,0.315,191.667,80.556,372.222,713.889,11.111,A
1308,0.050,0.785,0.280,141.667,80.556,350.000,733.333,19.444,A
1309,0.025,0.720,0.225,166.667,72.222,350.000,722.222,11.111,A
1310,0.010,0.700,0.220,133.333,69.444,350.000,725.000,2.778,A
1311,-0.040,0.475,0.145,197.222,83.333,347.222,722.222,2.778,A
1312,-0.130,0.710,0.135,197.222,69.444,344.444,716.667,5.556,A
1313,-0.130,0.785,0.185,61.111,75.000,350.000,733.333,16.667,A
1314,-0.085,0.910,0.250,180.556,83.333,350.000,755.556,22.222,A
1315,-0.080,0.920,0.245,197.222,86.111,355.556,719.444,36.111,A
1316,-0.085,0.850,0.225,52.778,61.111,316.667,744.444,25.000,A
1317,-0.105,0.855,0.215,147.222,83.333,344.444,727.778,16.667,A
1318,-0.095,0.960,0.220,91.667,77.778,361.111,4447.222,3719.444,R
1319,0.105,0.995,0.295,197.222,72.222,344.444,1113.889,3333.333,R
1320,-0.020,0.780,0.245,138.889,80.556,380.556,700.000,413.889,A
1321,-0.015,0.495,0.115,186.111,63.889,341.667,750.000,50.000,A
1322,-0.200,0.735,0.085,55.556,69.444,352.778,738.889,11.111,A
1323,-0.155,0.765,0.155,197.222,80.556,350.000,713.889,25.000,A
1324,-0.145,0.695,0.115,188.889,58.333,341.667,713.889,0.000,A
1325,-0.175,0.595,0.115,144.444,80.556,338.889,727.778,13.889,A
1326,-0.160,0.545,0.140,197.222,66.667,350.000,713.889,13.889,A
1327,-0.170,0.535,0.135,150.000,63.889,341.667,727.778,13.889,A
1328,-0.125,0.780,0.095,172.222,69.444,347.222,1980.556,1252.778,R
1329,-0.070,0.815,0.230,197.222,75.000,325.000,1469.444,511.111,R
1330,0.050,0.690,0.215,183.333,80.556,361.111,694.444,775.000,A
1331,0.030,0.490,0.160,186.111,77.778,358.333,1791.667,1097.222,R
1332,-0.060,0.640,0.200,191.667,72.222,352.778,705.556,1086.111,A
1333,-0.080,0.495,0.145,83.333,77.778,344.444,752.778,47.222,A
1334,-0.125,0.495,-0.010,194.444,75.000,363.889,1888.889,1136.111,R
1335,-0.210,0.395,-0.035,138.889,50.000,322.222,677.778,1211.111,A
1336,-0.315,0.370,-0.105,197.222,66.667,316.667,747.222,69.444,A
1337,-0.355,0.400,-0.070,136.111,80.556,344.444,716.667,30.556,A
1338,-0.320,0.310,-0.045,141.667,77.778,369.444,730.556,13.889,A
1339,-0.325,0.555,0.020,102.778,86.111,344.444,772.222,41.667,A
1340,-0.255,0.610,0.085,141.667,75.000,341.667,727.778,44.444,A
1341,-0.205,0.510,0.130,144.444,83.333,344.444,738.889,11.111,A
1342,-0.060,0.685,0.130,197.222,75.000,358.333,2122.222,1383.333,R
1343,0.000,0.805,0.180,191.667,63.889,344.444,4158.333,2036.111,R
1344,0.000,0.660,0.250,186.111,86.111,366.667,1236.111,2922.222,R
1345,-0.010,0.755,0.290,144.444,72.222,319.444,683.333,552.778,A
1346,-0.010,0.600,0.275,180.556,83.333,366.667,713.889,30.556,A
1347,0.010,0.560,0.220,163.889,75.000,352.778,708.333,5.556,A
1348,-0.075,0.635,0.145,100.000,77.778,344.444,741.667,33.333,A
1349,-0.150,0.705,0.145,197.222,80.556,361.111,725.000,16.667,A
1350,-0.135,0.735,0.155,197.222,75.000,347.222,738.889,13.889,A
1351,-0.170,0.750,0.140,58.333,75.000,330.556,755.556,16.667,A
1352,-0.185,0.650,0.100,186.111,86.111,341.667,727.778,27.778,A
1353,-0.185,0.450,0.155,141.667,80.556,352.778,727.778,0.000,A
1354,-0.125,0.820,0.100,183.333,63.889,361.111,2936.111,2208.333,R
1355,-0.010,0.770,0.185,186.111,72.222,350.000,2519.444,416.667,R
1356,-0.065,0.725,0.120,188.889,69.444,361.111,2494.444,25.000,R
1357,-0.070,0.815,0.305,188.889,61.111,350.000,1400.000,1094.444,R
1358,-0.005,0.715,0.245,122.222,63.889,341.667,694.444,705.556,A
1359,-0.090,0.645,0.155,197.222,75.000,361.111,750.000,55.556,A
1360,-0.135,0.600,0.100,197.222,80.556,363.889,722.222,27.778,A
1361,-0.180,0.675,0.145,72.222,80.556,375.000,722.222,0.000,A
1362,-0.105,0.655,0.200,141.667,80.556,347.222,727.778,5.556,A
1363,-0.105,0.575,0.180,141.667,69.444,352.778,719.444,8.333,A
1364,-0.105,0.550,0.405,136.111,83.333,375.000,713.889,5.556,A
1365,0.000,0.480,0.195,141.667,75.000,355.556,741.667,27.778,A
1366,-0.030,0.590,0.155,91.667,58.333,341.667,738.889,2.778,A
1367,-0.090,0.510,0.195,188.889,77.778,341.667,730.556,8.333,A
1368,-0.040,0.480,0.130,175.000,83.333,383.333,1922.222,1191.667,R
1369,-0.125,0.700,0.115,177.778,58.333,350.000,2577.778,655.556,R
1370,-0.040,0.760,0.205,194.444,80.556,380.556,1452.778,1125.000,R
1371,-0.065,0.715,0.160,144.444,80.556,363.889,672.222,780.556,A
1372,-0.185,0.795,0.120,186.111,52.778,347.222,741.667,69.444,A
1373,-0.170,0.815,0.155,69.444,77.778,350.000,750.000,8.333,A
1374,-0.110,0.720,0.160,183.333,83.333,369.444,716.667,33.333,A
1375,-0.145,0.670,0.155,136.111,80.556,350.000,716.667,0.000,A
1376,-0.145,0.615,0.155,144.444,83.333,355.556,711.111,5.556,A
1377,-0.170,0.435,0.100,175.000,83.333,372.222,736.111,25.000,A
1378,-0.180,0.595,0.125,83.333,66.667,347.222,744.444,8.333,A
1379,-0.150,0.565,0.145,144.444,83.333,358.333,725.000,19.444,A
1380,-0.155,0.610,0.165,138.889,83.333,350.000,727.778,2.778,A
1381,-0.150,0.680,0.170,58.333,72.222,347.222,722.222,5.556,A
1382,-0.140,0.580,0.150,63.889,72.222,341.667,733.333,11.111,A
1383,-0.120,0.660,0.165,147.222,83.333,350.000,722.222,11.111,A
1384,-0.125,0.620,0.190,197.222,63.889,347.222,738.889,16.667,A
1385,-0.125,0.580,0.235,141.667,83.333,347.222,747.222,8.333,A
1386,-0.055,0.665,-0.005,194.444,66.667,366.667,2394.444,1647.222,R
1387,-0.210,0.785,0.010,161.111,72.222,386.111,3997.222,1602.778,R
1388,-0.165,0.565,0.075,194.444,80.556,361.111,1138.889,2858.333,R
1389,-0.140,0.565,0.155,144.444,72.222,347.222,700.000,438.889,A
1390,-0.150,0.510,0.130,136.111,80.556,350.000,738.889,38.889,A
1391,-0.140,0.430,0.050,194.444,66.667,350.000,713.889,25.000,A
1392,-0.165,0.460,0.075,141.667,55.556,330.556,722.222,8.333,A
1393,-0.205,0.520,0.090,75.000,72.222,350.000,730.556,8.333,A
1394,-0.135,0.555,0.120,94.444,75.000,355.556,727.778,2.778,A
1395,-0.095,0.580,0.145,194.444,77.778,352.778,733.333,5.556,A
1396,-0.200,0.700,0.070,147.222,80.556,350.000,744.444,11.111,A
1397,-0.205,0.575,0.120,197.222,66.667,338.889,719.444,25.000,A
1398,-0.190,0.610,0.100,197.222,66.667,347.222,733.333,13.889,A
1399,-0.220,0.510,0.065,108.333,77.778,341.667,747.222,13.889,A
1400,-0.060,0.880,0.130,166.667,77.778,383.333,5694.444,4947.222,R
1401,-0.040,0.820,0.215,197.222,75.000,347.222,1175.000,4519.444,R
1402,-0.030,0.770,0.270,91.667,69.444,344.444,683.333,491.667,A
1403,-0.050,0.640,0.220,141.667,83.333,377.778,719.444,36.111,A
1404,-0.035,0.635,0.205,130.556,72.222,347.222,716.667,2.778,A
1405,-0.085,0.575,0.100,55.556,61.111,347.222,725.000,8.333,A
1406,-0.135,0.440,0.100,141.667,83.333,377.778,725.000,0.000,A
1407,-0.175,0.585,0.080,47.222,55.556,341.667,738.889,13.889,A
1408,-0.225,0.695,0.050,91.667,66.667,347.222,741.667,2.778,A
1409,-0.200,0.690,0.165,141.667,75.000,341.667,716.667,25.000,A
1410,-0.125,0.900,0.090,172.222,72.222,344.444,2927.778,2211.111,R
1411,-0.065,0.880,0.145,166.667,69.444,347.222,2327.778,600.000,R
1412,-0.005,0.870,0.180,169.444,72.222,355.556,2566.667,238.889,R
1413,-0.035,0.870,0.155,186.111,83.333,380.556,2516.667,50.000,R
1414,-0.085,0.815,0.155,177.778,80.556,375.000,2500.000,16.667,R
1415,-0.080,0.795,0.140,186.111,86.111,377.778,1405.556,1094.444,R
1416,-0.200,0.600,0.090,33.333,38.889,322.222,683.333,722.222,A
1417,-0.220,0.675,0.260,66.667,72.222,347.222,733.333,50.000,A
1418,-0.210,0.690,0.050,191.667,80.556,366.667,725.000,8.333,A
1419,-0.190,0.455,0.040,133.333,80.556,355.556,713.889,11.111,A
1420,-0.190,0.480,-0.020,197.222,80.556,380.556,705.556,8.333,A
1421,-0.205,0.355,0.035,58.333,66.667,352.778,719.444,13.889,A
1422,-0.190,0.385,-0.030,58.333,63.889,347.222,730.556,11.111,A
1423,-0.255,0.335,0.005,197.222,61.111,338.889,708.333,22.222,A
1424,-0.235,0.335,0.090,138.889,80.556,344.444,716.667,8.333,A
1425,-0.220,0.345,0.150,50.000,63.889,325.000,705.556,11.111,A
1426,-0.185,0.395,0.015,50.000,63.889,341.667,702.778,2.778,A
1427,-0.245,0.430,-0.005,197.222,80.556,394.444,1947.222,1244.444,R
1428,-0.280,0.330,-0.005,177.778,86.111,383.333,1405.556,541.667,R
1429,-0.270,0.590,0.055,141.667,75.000,352.778,686.111,719.444,A
1430,-0.275,0.515,0.010,88.889,66.667,350.000,733.333,47.222,A
1431,-0.275,0.630,0.050,83.333,66.667,358.333,727.778,5.556,A
1432,-0.270,0.560,0.015,197.222,77.778,350.000,744.444,16.667,A
1433,-0.245,0.465,0.040,144.444,86.111,363.889,716.667,27.778,A
1434,-0.200,0.480,0.025,66.667,72.222,350.000,716.667,0.000,A
1435,-0.260,0.410,0.095,119.444,72.222,355.556,722.222,5.556,A
1436,-0.190,0.650,0.105,194.444,69.444,338.889,744.444,22.222,A
1437,-0.190,0.515,0.105,47.222,61.111,347.222,719.444,25.000,A
1438,-0.175,0.570,0.120,197.222,75.000,355.556,744.444,25.000,A
1439,-0.215,0.375,0.060,80.556,80.556,341.667,752.778,8.333,A
1440,-0.160,0.470,0.125,197.222,63.889,341.667,719.444,33.333,A
1441,-0.120,0.365,0.005,183.333,66.667,380.556,2119.444,1400.000,R
1442,-0.110,0.300,0.050,197.222,72.222,355.556,1441.667,677.778,R
1443,-0.040,0.715,0.200,58.333,66.667,344.444,669.444,772.222,A
1444,-0.130,0.610,0.105,197.222,55.556,327.778,738.889,69.444,A
1445,-0.145,0.685,0.130,61.111,55.556,313.889,725.000,13.889,A
1446,-0.190,0.625,0.135,72.222,66.667,336.111,708.333,16.667,A
1447,-0.160,0.635,0.155,197.222,77.778,355.556,733.333,25.000,A
1448,-0.170,0.535,0.165,141.667,80.556,350.000,736.111,2.778,A
1449,-0.130,0.745,0.185,88.889,69.444,347.222,722.222,13.889,A
1450,-0.125,0.705,0.220,127.778,83.333,344.444,719.444,2.778,A
1451,-0.095,0.715,0.225,97.222,83.333,350.000,725.000,5.556,A
1452,-0.125,0.725,0.230,58.333,80.556,347.222,744.444,19.444,A
1453,-0.060,0.625,0.225,55.556,69.444,347.222,747.222,2.778,A
1454,-0.045,0.800,0.290,152.778,80.556,352.778,750.000,2.778,A
1455,0.060,0.865,0.285,180.556,58.333,350.000,1736.111,986.111,R
1456,0.025,0.805,0.415,111.111,83.333,347.222,697.222,1038.889,A
1457,0.020,0.860,0.275,150.000,83.333,352.778,763.889,66.667,A
1458,-0.005,0.775,0.295,113.889,83.333,369.444,738.889,25.000,A
1459,-0.020,0.585,0.265,72.222,77.778,344.444,758.333,19.444,A
1460,0.095,1.000,0.275,169.444,77.778,375.000,4305.556,3547.222,R
1461,0.080,0.855,0.310,175.000,83.333,369.444,1233.333,3072.222,R
1462,0.030,0.815,0.295,150.000,52.778,341.667,708.333,525.000,A
1463,-0.040,0.745,0.285,133.333,63.889,347.222,736.111,27.778,A
1464,0.060,0.860,0.380,63.889,75.000,344.444,752.778,16.667,A
1465,0.025,0.730,0.300,191.667,72.222,350.000,758.333,5.556,A
1466,-0.025,0.630,0.200,61.111,63.889,311.111,730.556,27.778,A
1467,-0.065,0.515,0.130,188.889,69.444,352.778,727.778,2.778,A
1468,-0.085,0.570,0.215,80.556,75.000,355.556,730.556,2.778,A
1469,-0.105,0.705,0.175,152.778,83.333,366.667,772.222,41.667,A
1470,-0.125,0.525,0.170,138.889,80.556,338.889,755.556,16.667,A
1471,-0.140,0.590,0.160,122.222,63.889,322.222,744.444,11.111,A
1472,-0.130,0.605,0.095,177.778,61.111,355.556,3061.111,2316.667,R
1473,-0.095,0.775,0.180,194.444,83.333,338.889,1202.778,1858.333,R
1474,-0.125,0.830,0.225,141.667,77.778,358.333,686.111,516.667,A
1475,-0.135,0.575,0.150,47.222,66.667,319.444,747.222,61.111,A
1476,-0.150,0.600,0.140,86.111,83.333,366.667,733.333,13.889,A
1477,-0.155,0.660,0.105,75.000,83.333,363.889,755.556,22.222,A
1478,-0.195,0.520,0.140,172.222,77.778,350.000,761.111,5.556,A
1479,-0.160,0.470,0.145,197.222,69.444,355.556,725.000,36.111,A
1480,-0.040,0.805,0.145,172.222,72.222,358.333,2741.667,2016.667,R
1481,-0.040,0.640,0.160,188.889,66.667,350.000,1586.111,1155.556,R
1482,-0.075,0.570,0.200,155.556,66.667,344.444,672.222,913.889,A
1483,-0.105,0.520,0.120,188.889,80.556,341.667,730.556,58.333,A
1484,-0.115,0.490,0.120,133.333,72.222,352.778,708.333,22.222,A
1485,-0.130,0.465,0.125,55.556,66.667,338.889,736.111,27.778,A
1486,-0.115,0.420,0.105,197.222,80.556,347.222,744.444,8.333,A
1487,-0.130,0.365,0.100,138.889,72.222,344.444,727.778,16.667,A
1488,-0.140,0.435,0.125,136.111,69.444,338.889,730.556,2.778,A
1489,-0.125,0.670,0.175,88.889,66.667,344.444,758.333,27.778,A
1490,-0.065,0.660,0.200,150.000,80.556,338.889,758.333,0.000,A
1491,0.005,0.700,0.195,197.222,72.222,355.556,2044.444,1286.111,R
1492,0.070,0.880,0.225,194.444,75.000,350.000,2741.667,697.222,R
1493,0.005,0.635,0.200,191.667,86.111,369.444,1350.000,1391.667,R
1494,-0.070,0.685,0.240,144.444,58.333,322.222,697.222,652.778,A
1495,-0.090,0.725,0.225,141.667,80.556,363.889,727.778,30.556,A
1496,-0.040,0.850,0.270,50.000,61.111,341.667,738.889,11.111,A
1497,-0.025,0.805,0.265,58.333,58.333,322.222,744.444,5.556,A
1498,-0.035,0.725,0.300,75.000,77.778,350.000,744.444,0.000,A
1499,0.015,0.690,0.335,113.889,61.111,347.222,744.444,0.000,A
1500,0.040,0.750,0.360,66.667,75.000,350.000,752.778,8.333,A
1501,0.055,0.695,0.330,186.111,83.333,350.000,744.444,8.333,A
1502,0.045,0.660,0.340,138.889,80.556,338.889,730.556,13.889,A
1503,0.060,0.640,0.315,155.556,77.778,355.556,750.000,19.444,A
1504,-0.010,0.650,0.270,158.333,69.444,344.444,769.444,19.444,A
1505,-0.010,0.700,0.330,111.111,77.778,347.222,747.222,22.222,A
1506,0.000,0.755,0.300,69.444,83.333,336.111,758.333,11.111,A
1507,0.090,0.890,0.275,186.111,80.556,372.222,3188.889,2430.556,R
1508,0.050,0.780,0.315,183.333,61.111,344.444,1266.667,1922.222,R
1509,0.040,0.810,0.305,152.778,58.333,316.667,700.000,566.667,A
1510,-0.030,0.645,0.240,55.556,69.444,352.778,733.333,33.333,A
1511,-0.045,0.610,0.235,44.444,66.667,341.667,738.889,5.556,A
1512,-0.020,0.590,0.275,116.667,63.889,350.000,761.111,22.222,A
1513,0.015,0.490,0.240,194.444,63.889,341.667,727.778,33.333,A
1514,0.010,0.475,0.230,141.667,52.778,319.444,727.778,0.000,A
1515,-0.015,0.470,0.240,141.667,66.667,338.889,725.000,2.778,A
1516,-0.010,0.635,0.255,83.333,77.778,347.222,747.222,22.222,A
1517,0.010,0.705,0.325,77.778,58.333,327.778,730.556,16.667,A
1518,0.045,0.825,0.350,83.333,80.556,344.444,769.444,38.889,A
1519,0.130,0.780,0.300,191.667,77.778,355.556,2644.444,1875.000,R
1520,0.085,0.715,0.310,191.667,58.333,344.444,1475.000,1169.444,R
1521,0.065,0.880,0.385,150.000,58.333,338.889,713.889,761.111,A
1522,0.035,0.815,0.345,138.889,75.000,341.667,761.111,47.222,A
1523,0.045,0.770,0.345,197.222,69.444,350.000,725.000,36.111,A
1524,0.015,0.845,0.340,136.111,83.333,355.556,744.444,19.444,A
1525,0.045,0.775,0.355,136.111,75.000,347.222,755.556,11.111,A
1526,0.060,0.760,0.330,147.222,63.889,325.000,750.000,5.556,A
1527,0.010,0.655,0.290,152.778,80.556,344.444,761.111,11.111,A
1528,-0.035,0.600,0.260,97.222,80.556,358.333,752.778,8.333,A
1529,0.020,0.815,0.350,108.333,83.333,350.000,741.667,11.111,A
1530,0.090,0.575,0.250,63.889,72.222,341.667,733.333,8.333,A
1531,-0.005,0.385,0.205,52.778,69.444,355.556,747.222,13.889,A
1532,-0.045,0.885,0.290,66.667,75.000,347.222,777.778,30.556,A
1533,0.090,0.875,0.270,177.778,86.111,377.778,3050.000,2272.222,R
1534,0.065,0.810,0.305,194.444,66.667,347.222,1238.889,1811.111,R
1535,0.070,0.810,0.365,152.778,66.667,352.778,705.556,533.333,A
1536,-0.015,0.765,0.275,172.222,80.556,363.889,758.333,52.778,A
1537,0.005,0.920,0.295,111.111,80.556,350.000,758.333,0.000,A
1538,-0.010,0.715,0.275,66.667,80.556,350.000,733.333,25.000,A
1539,-0.050,0.625,0.235,152.778,72.222,344.444,752.778,19.444,A
1540,-0.065,0.585,0.195,58.333,72.222,352.778,772.222,19.444,A
1541,-0.075,0.550,0.200,138.889,75.000,350.000,738.889,33.333,A
1542,-0.065,0.675,0.255,91.667,72.222,347.222,761.111,22.222,A
1543,-0.035,0.700,0.275,86.111,69.444,327.778,755.556,5.556,A
1544,-0.025,0.740,0.295,69.444,83.333,347.222,758.333,2.778,A
1545,-0.015,0.715,0.295,197.222,63.889,327.778,744.444,13.889,A
1546,0.030,0.760,0.260,191.667,72.222,350.000,1938.889,1194.444,R
1547,0.010,0.685,0.230,191.667,72.222,347.222,1402.778,536.111,R
1548,-0.075,0.700,0.255,125.000,66.667,347.222,694.444,708.333,A
1549,-0.130,0.730,0.205,66.667,77.778,358.333,780.556,86.111,A
1550,-0.100,0.800,0.235,61.111,66.667,350.000,755.556,25.000,A
1551,-0.065,0.840,0.265,61.111,58.333,311.111,766.667,11.111,A
1552,-0.050,0.695,0.265,66.667,69.444,338.889,738.889,27.778,A
1553,-0.050,0.625,0.250,144.444,80.556,338.889,747.222,8.333,A
1554,-0.075,0.520,0.230,141.667,77.778,336.111,761.111,13.889,A
1555,-0.085,0.590,0.215,63.889,66.667,333.333,763.889,2.778,A
1556,-0.115,0.570,0.195,55.556,72.222,330.556,783.333,19.444,A
1557,-0.065,0.625,0.225,58.333,69.444,341.667,775.000,8.333,A
1558,-0.090,0.630,0.210,55.556,66.667,308.333,772.222,2.778,A
1559,-0.105,0.665,0.200,155.556,80.556,361.111,761.111,11.111,A
1560,-0.110,0.645,0.190,80.556,69.444,347.222,791.667,30.556,A
1561,-0.095,0.595,0.100,186.111,83.333,350.000,2466.667,1675.000,R
1562,-0.045,0.745,0.195,183.333,66.667,327.778,1530.556,936.111,R
1563,-0.080,0.635,0.215,97.222,58.333,330.556,713.889,816.667,A
1564,-0.110,0.635,0.190,63.889,77.778,352.778,772.222,58.333,A
1565,-0.130,0.545,0.190,61.111,66.667,338.889,763.889,8.333,A
1566,-0.135,0.595,0.140,61.111,72.222,350.000,763.889,0.000,A
1567,-0.185,0.635,0.150,141.667,77.778,341.667,747.222,16.667,A
1568,-0.200,0.700,0.145,105.556,83.333,347.222,769.444,22.222,A
1569,-0.060,0.805,0.140,186.111,80.556,361.111,3547.222,2777.778,R
1570,-0.065,0.685,0.140,197.222,77.778,355.556,1677.778,1869.444,R
1571,-0.140,0.665,0.250,138.889,72.222,350.000,702.778,975.000,A
1572,-0.125,0.645,0.215,138.889,72.222,347.222,761.111,58.333,A
1573,-0.115,0.715,0.205,147.222,66.667,327.778,752.778,8.333,A
1574,-0.125,0.720,0.170,58.333,69.444,347.222,744.444,8.333,A
1575,-0.140,0.565,0.195,141.667,72.222,350.000,755.556,11.111,A
1576,-0.150,0.675,0.195,197.222,75.000,347.222,783.333,27.778,A
1577,-0.145,0.720,0.195,80.556,77.778,338.889,750.000,33.333,A
1578,-0.165,0.595,0.180,63.889,69.444,338.889,747.222,2.778,A
1579,-0.145,0.625,0.175,150.000,72.222,327.778,755.556,8.333,A
1580,-0.105,0.835,0.100,186.111,80.556,344.444,3091.667,2336.111,R
1581,-0.125,0.730,0.105,188.889,61.111,327.778,1241.667,1850.000,R
1582,-0.210,0.635,0.100,152.778,69.444,330.556,700.000,541.667,A
1583,-0.250,0.665,0.050,66.667,72.222,350.000,780.556,80.556,A
1584,-0.275,0.625,0.080,69.444,72.222,338.889,772.222,8.333,A
1585,-0.245,0.610,0.055,55.556,66.667,352.778,755.556,16.667,A
1586,-0.245,0.515,0.060,50.000,63.889,322.222,755.556,0.000,A
1587,-0.245,0.570,0.035,52.778,66.667,341.667,747.222,8.333,A
1588,-0.245,0.505,0.110,61.111,72.222,350.000,766.667,19.444,A
1589,-0.185,0.515,0.075,191.667,72.222,347.222,750.000,16.667,A
1590,-0.250,0.720,0.090,83.333,83.333,363.889,780.556,30.556,A
1591,-0.205,0.665,0.125,44.444,61.111,330.556,777.778,2.778,A
1592,-0.220,0.690,0.120,80.556,83.333,336.111,750.000,27.778,A
1593,-0.085,0.605,0.035,197.222,80.556,358.333,2686.111,1936.111,R
1594,-0.175,0.620,0.105,197.222,77.778,347.222,1091.667,1594.444,R
1595,-0.210,0.750,0.160,86.111,72.222,350.000,694.444,397.222,A
1596,-0.190,0.560,0.115,72.222,75.000,352.778,747.222,52.778,A
1597,-0.185,0.560,0.085,188.889,61.111,316.667,747.222,0.000,A
1598,-0.240,0.460,0.060,97.222,80.556,358.333,752.778,5.556,A
1599,-0.245,0.615,0.050,158.333,63.889,350.000,755.556,2.778,A
1600,-0.250,0.650,0.050,194.444,80.556,338.889,763.889,8.333,A
1601,-0.195,0.685,0.070,197.222,83.333,372.222,1950.000,1186.111,R
1602,-0.130,0.745,0.055,194.444,72.222,347.222,2791.667,841.667,R
1603,-0.145,0.730,0.165,191.667,66.667,355.556,1155.556,1636.111,R
1604,-0.175,0.620,0.165,141.667,80.556,372.222,694.444,461.111,A
1605,-0.165,0.570,0.090,197.222,72.222,352.778,755.556,61.111,A
1606,-0.205,0.545,0.075,197.222,80.556,363.889,730.556,25.000,A
1607,-0.165,0.470,0.050,194.444,72.222,341.667,727.778,2.778,A
1608,-0.245,0.430,0.025,52.778,61.111,316.667,730.556,2.778,A
1609,-0.280,0.335,-0.060,144.444,80.556,350.000,719.444,11.111,A
1610,-0.205,0.665,0.035,180.556,86.111,380.556,2238.889,1519.444,R
1611,-0.160,0.615,0.050,197.222,77.778,344.444,1386.111,852.778,R
1612,-0.225,0.695,0.130,147.222,66.667,355.556,694.444,691.667,A
1613,-0.200,0.580,0.115,80.556,86.111,355.556,755.556,61.111,A
1614,-0.180,0.635,0.125,138.889,66.667,327.778,752.778,2.778,A
1615,-0.200,0.595,0.095,125.000,66.667,341.667,761.111,8.333,A
1616,-0.250,0.400,0.000,197.222,66.667,338.889,733.333,27.778,A
1617,-0.265,0.420,-0.005,147.222,55.556,316.667,755.556,22.222,A
1618,-0.285,0.520,-0.005,102.778,75.000,333.333,747.222,8.333,A
1619,-0.285,0.635,0.055,66.667,83.333,358.333,772.222,25.000,A
1620,-0.260,0.555,0.090,150.000,61.111,316.667,777.778,5.556,A
1621,-0.225,0.640,0.115,155.556,72.222,341.667,752.778,25.000,A
1622,-0.150,0.610,0.070,141.667,80.556,352.778,2441.667,1688.889,R
1623,-0.140,0.520,0.080,188.889,72.222,355.556,1513.889,927.778,R
1624,-0.180,0.630,0.135,147.222,75.000,341.667,719.444,794.444,A
1625,-0.210,0.565,0.090,122.222,77.778,352.778,755.556,36.111,A
1626,-0.215,0.420,0.075,197.222,75.000,352.778,733.333,22.222,A
1627,-0.210,0.595,0.090,119.444,83.333,361.111,755.556,22.222,A
1628,-0.145,0.685,0.185,50.000,55.556,333.333,772.222,16.667,A
1629,-0.125,0.750,0.200,147.222,83.333,344.444,752.778,19.444,A
1630,-0.135,0.665,0.195,52.778,66.667,341.667,752.778,0.000,A
1631,-0.090,0.560,0.185,91.667,63.889,333.333,736.111,16.667,A
1632,-0.135,0.440,0.095,141.667,75.000,347.222,738.889,2.778,A
1633,-0.225,0.465,0.060,63.889,66.667,336.111,761.111,22.222,A
1634,-0.215,0.600,0.095,66.667,75.000,344.444,769.444,8.333,A
1635,-0.065,0.795,0.135,186.111,72.222,352.778,3230.556,2461.111,R
1636,-0.035,0.585,0.125,183.333,83.333,347.222,2683.333,547.222,R
1637,-0.065,0.785,0.290,197.222,83.333,355.556,1497.222,1186.111,R
1638,-0.005,0.905,0.275,102.778,69.444,347.222,683.333,813.889,A
1639,-0.070,0.685,0.175,113.889,83.333,363.889,752.778,69.444,A
1640,-0.135,0.590,0.100,122.222,72.222,352.778,747.222,5.556,A
1641,-0.175,0.315,0.070,147.222,63.889,333.333,727.778,19.444,A
1642,-0.195,0.400,0.055,63.889,75.000,350.000,747.222,19.444,A
1643,-0.215,0.460,0.065,50.000,58.333,333.333,719.444,27.778,A
1644,-0.240,0.420,0.055,105.556,77.778,361.111,750.000,30.556,A
1645,-0.230,0.315,0.070,63.889,66.667,338.889,763.889,13.889,A
1646,-0.195,0.285,0.085,180.556,80.556,347.222,741.667,22.222,A
1647,-0.190,0.305,0.115,197.222,75.000,338.889,730.556,11.111,A
1648,-0.280,0.545,0.030,144.444,77.778,347.222,736.111,5.556,A
1649,-0.230,0.505,0.080,58.333,69.444,347.222,752.778,16.667,A
1650,-0.195,0.570,0.135,94.444,66.667,338.889,736.111,16.667,A
1651,-0.055,0.550,0.075,177.778,83.333,372.222,2447.222,1711.111,R
1652,-0.130,0.410,0.090,183.333,63.889,350.000,1344.444,1102.778,R
1653,-0.155,0.365,0.120,150.000,58.333,350.000,700.000,644.444,A
1654,-0.185,0.380,0.085,197.222,80.556,352.778,755.556,55.556,A
1655,-0.205,0.490,0.110,141.667,77.778,341.667,738.889,16.667,A
1656,-0.170,0.545,0.155,197.222,75.000,350.000,725.000,13.889,A
1657,-0.130,0.500,0.160,75.000,83.333,350.000,733.333,8.333,A
1658,-0.140,0.495,0.115,55.556,61.111,319.444,750.000,16.667,A
1659,-0.115,0.505,0.060,194.444,66.667,344.444,1875.000,1125.000,R
1660,-0.040,0.735,0.145,186.111,83.333,366.667,2586.111,711.111,R
1661,-0.020,0.675,0.160,180.556,80.556,352.778,1255.556,1330.556,R
1662,-0.135,0.650,0.165,155.556,47.222,327.778,691.667,563.889,A
1663,-0.150,0.585,0.115,191.667,66.667,327.778,722.222,30.556,A
1664,-0.185,0.555,0.070,55.556,66.667,338.889,722.222,0.000,A
1665,-0.225,0.480,0.055,194.444,72.222,350.000,730.556,8.333,A
1666,-0.235,0.465,0.020,88.889,66.667,352.778,716.667,13.889,A
1667,-0.185,0.435,0.085,55.556,69.444,341.667,738.889,22.222,A
1668,-0.190,0.380,0.105,136.111,83.333,366.667,727.778,11.111,A
1669,-0.200,0.285,0.070,183.333,83.333,344.444,727.778,0.000,A
1670,-0.225,0.235,0.015,113.889,83.333,344.444,733.333,5.556,A
1671,-0.240,0.330,-0.010,141.667,72.222,347.222,719.444,13.889,A
1672,-0.310,0.420,0.005,155.556,75.000,361.111,752.778,33.333,A
1673,-0.160,0.725,0.085,197.222,72.222,344.444,1777.778,1025.000,R
1674,-0.190,0.760,0.225,144.444,61.111,341.667,686.111,1091.667,A
1675,-0.185,0.720,0.070,197.222,66.667,322.222,772.222,86.111,A
1676,-0.235,0.605,0.115,80.556,77.778,333.333,763.889,8.333,A
1677,-0.220,0.520,0.120,77.778,75.000,350.000,758.333,5.556,A
1678,-0.055,0.515,0.060,186.111,75.000,383.333,4450.000,3691.667,R
1679,-0.230,0.630,0.070,188.889,63.889,347.222,1194.444,3255.556,R
1680,-0.170,0.745,0.200,172.222,72.222,347.222,713.889,480.556,A
1681,-0.220,0.770,0.150,55.556,75.000,358.333,822.222,108.333,A
1682,-0.160,0.775,0.130,72.222,77.778,338.889,788.889,33.333,A
1683,-0.100,0.570,0.065,194.444,61.111,341.667,2013.889,1225.000,R
1684,-0.140,0.705,0.070,194.444,77.778,377.778,2513.889,500.000,R
1685,-0.100,0.900,0.165,188.889,63.889,350.000,2416.667,97.222,R
1686,-0.045,0.855,0.180,197.222,72.222,380.556,2344.444,72.222,R
1687,-0.055,0.770,0.165,161.111,63.889,358.333,2327.778,16.667,R
1688,-0.095,0.625,0.125,172.222,80.556,380.556,2313.889,13.889,R
1689,-0.120,0.495,0.175,144.444,58.333,350.000,683.333,1630.556,A
1690,-0.115,0.740,0.140,133.333,69.444,350.000,711.111,27.778,A
1691,-0.125,0.620,0.120,44.444,52.778,341.667,683.333,27.778,A
1692,-0.155,0.590,0.040,119.444,58.333,336.111,705.556,22.222,A
1693,-0.195,0.515,0.075,138.889,80.556,352.778,716.667,11.111,A
1694,-0.180,0.595,0.080,105.556,69.444,347.222,697.222,19.444,A
1695,-0.210,0.635,0.065,197.222,80.556,372.222,730.556,33.333,A
1696,-0.220,0.650,0.065,194.444,69.444,350.000,733.333,2.778,A
1697,-0.245,0.625,0.060,63.889,66.667,352.778,700.000,33.333,A
1698,-0.230,0.595,0.050,150.000,58.333,316.667,722.222,22.222,A
1699,-0.245,0.630,0.040,61.111,66.667,341.667,713.889,8.333,A
1700,-0.105,0.480,0.135,33.333,63.889,341.667,744.444,30.556,A
1701,-0.055,0.410,0.150,175.000,66.667,333.333,744.444,0.000,A
1702,0.000,0.500,0.190,77.778,66.667,333.333,733.333,11.111,A
1703,-0.090,0.575,0.010,188.889,77.778,377.778,1791.667,1058.333,R
1704,-0.175,0.440,-0.030,186.111,61.111,355.556,1372.222,419.444,R
1705,-0.205,0.365,-0.020,147.222,72.222,347.222,688.889,683.333,A
1706,-0.260,0.165,-0.070,133.333,69.444,355.556,758.333,69.444,A
1707,-0.215,0.285,-0.070,75.000,83.333,375.000,711.111,47.222,A
1708,-0.195,0.255,-0.055,191.667,75.000,325.000,713.889,2.778,A
1709,-0.255,0.425,-0.005,147.222,66.667,347.222,738.889,25.000,A
1710,-0.265,0.430,-0.030,58.333,80.556,369.444,755.556,16.667,A
1711,-0.305,0.300,-0.070,69.444,80.556,344.444,727.778,27.778,A
1712,-0.250,0.485,-0.060,80.556,58.333,341.667,741.667,13.889,A
1713,-0.310,0.380,-0.080,97.222,75.000,355.556,741.667,0.000,A
1714,-0.305,0.310,-0.070,197.222,66.667,344.444,733.333,8.333,A
1715,-0.315,0.270,-0.055,197.222,75.000,352.778,736.111,2.778,A
1716,-0.325,0.280,0.000,80.556,75.000,347.222,736.111,0.000,A
1717,-0.260,0.345,0.005,147.222,63.889,347.222,747.222,11.111,A
1718,-0.270,0.400,-0.005,191.667,58.333,344.444,744.444,2.778,A
1719,-0.235,0.345,0.005,63.889,63.889,336.111,738.889,5.556,A
1720,-0.185,0.480,-0.030,177.778,58.333,347.222,1952.778,1213.889,R
1721,-0.135,0.505,-0.020,183.333,83.333,361.111,2566.667,613.889,R
1722,-0.145,0.610,0.085,180.556,77.778,350.000,1397.222,1169.444,R
1723,-0.195,0.585,0.085,38.889,44.444,316.667,691.667,705.556,A
1724,-0.235,0.415,0.020,136.111,77.778,358.333,736.111,44.444,A
1725,-0.250,0.430,-0.035,63.889,69.444,350.000,719.444,16.667,A
1726,-0.270,0.335,-0.015,80.556,77.778,350.000,719.444,0.000,A
1727,-0.235,0.355,-0.035,197.222,69.444,347.222,716.667,2.778,A
1728,-0.285,0.220,-0.045,41.667,58.333,358.333,719.444,2.778,A
1729,-0.320,0.415,-0.045,133.333,72.222,350.000,758.333,38.889,A
1730,-0.315,0.365,-0.030,55.556,66.667,350.000,755.556,2.778,A
1731,-0.300,0.360,-0.015,197.222,80.556,341.667,747.222,8.333,A
1732,-0.155,0.580,0.045,191.667,66.667,350.000,2016.667,1269.444,R
1733,-0.130,0.655,0.075,183.333,86.111,369.444,2930.556,913.889,R
1734,-0.090,0.710,0.165,197.222,72.222,347.222,1211.111,1719.444,R
1735,-0.140,0.720,0.145,152.778,47.222,322.222,711.111,500.000,A
1736,-0.215,0.475,0.040,141.667,72.222,341.667,761.111,50.000,A
1737,-0.255,0.465,0.030,61.111,72.222,350.000,736.111,25.000,A
1738,-0.250,0.395,0.010,194.444,72.222,350.000,727.778,8.333,A
1739,-0.250,0.295,0.025,194.444,66.667,350.000,725.000,2.778,A
1740,-0.220,0.435,0.030,150.000,77.778,344.444,750.000,25.000,A
1741,-0.250,0.450,0.045,158.333,72.222,355.556,752.778,2.778,A
1742,-0.215,0.380,0.105,97.222,80.556,355.556,744.444,8.333,A
1743,-0.175,0.520,0.135,150.000,80.556,338.889,752.778,8.333,A
1744,-0.190,0.535,0.145,69.444,83.333,350.000,752.778,0.000,A
1745,-0.145,0.600,0.180,52.778,61.111,316.667,741.667,11.111,A
1746,-0.055,0.740,0.110,186.111,61.111,344.444,2636.111,1894.444,R
1747,-0.130,0.590,0.105,186.111,63.889,344.444,1400.000,1236.111,R
1748,-0.170,0.655,0.115,163.889,75.000,347.222,716.667,683.333,A
1749,-0.240,0.695,0.090,66.667,63.889,344.444,755.556,38.889,A
1750,-0.225,0.650,0.110,194.444,75.000,352.778,747.222,8.333,A
1751,-0.225,0.540,0.090,61.111,66.667,347.222,755.556,8.333,A
1752,-0.210,0.510,0.095,61.111,66.667,338.889,738.889,16.667,A
1753,-0.260,0.465,0.055,144.444,80.556,352.778,744.444,5.556,A
1754,-0.245,0.485,0.065,77.778,80.556,341.667,738.889,5.556,A
1755,-0.260,0.520,0.040,158.333,61.111,325.000,761.111,22.222,A
1756,-0.290,0.685,0.055,147.222,72.222,322.222,777.778,16.667,A
1757,-0.260,0.670,0.110,77.778,80.556,347.222,755.556,22.222,A
1758,-0.080,0.590,0.130,186.111,66.667,341.667,3108.333,2352.778,R
1759,-0.070,0.575,0.135,177.778,83.333,352.778,1591.667,1516.667,R
1760,-0.135,0.560,0.175,36.111,47.222,322.222,697.222,894.444,A
1761,-0.185,0.630,0.120,177.778,86.111,344.444,738.889,41.667,A
1762,-0.140,0.730,0.135,63.889,72.222,347.222,755.556,16.667,A
1763,-0.175,0.520,0.160,52.778,66.667,347.222,758.333,2.778,A
1764,-0.155,0.705,0.125,152.778,63.889,322.222,763.889,5.556,A
1765,-0.165,0.620,0.150,144.444,80.556,341.667,755.556,8.333,A
1766,-0.175,0.580,0.155,80.556,61.111,322.222,741.667,13.889,A
1767,-0.200,0.575,0.135,152.778,66.667,333.333,738.889,2.778,A
1768,-0.200,0.595,0.140,169.444,72.222,344.444,744.444,5.556,A
1769,-0.195,0.620,0.140,161.111,69.444,341.667,763.889,19.444,A
1770,-0.040,0.550,0.080,163.889,58.333,325.000,1780.556,1016.667,R
1771,-0.140,0.635,0.195,77.778,83.333,352.778,697.222,1083.333,A
1772,-0.125,0.690,0.235,47.222,63.889,347.222,750.000,52.778,A
1773,-0.075,0.730,0.230,52.778,63.889,347.222,763.889,13.889,A
1774,-0.080,0.550,0.150,147.222,77.778,341.667,758.333,5.556,A
1775,-0.030,0.745,0.185,188.889,83.333,366.667,1713.889,955.556,R
1776,-0.020,0.780,0.245,188.889,69.444,352.778,700.000,1013.889,A