id,Pamp,Ramp,Tamp,PR,QRS,QT,RRI,dRRI,label
1,-0.740,0.700,-0.870,158.333,100.000,322.222,658.333,5.556,N
2,-0.745,0.680,-0.865,133.333,97.222,308.333,608.333,50.000,N
3,-0.750,0.630,-0.905,155.556,100.000,297.222,655.556,47.222,N
4,-0.765,0.685,-0.885,163.889,97.222,297.222,652.778,2.778,N
5,-0.745,0.725,-0.825,155.556,97.222,300.000,672.222,19.444,N
6,-0.700,0.770,-0.810,155.556,100.000,311.111,658.333,13.889,N
7,-0.690,0.735,-0.795,161.111,100.000,305.556,669.444,11.111,N
8,-0.670,0.795,-0.775,147.222,94.444,302.778,666.667,2.778,N
9,-0.665,0.750,-0.815,144.444,100.000,302.778,677.778,11.111,N
10,-0.675,0.760,-0.840,147.222,100.000,291.667,675.000,2.778,N
11,-0.690,0.730,-0.865,152.778,97.222,294.444,691.667,16.667,N
12,-0.750,0.695,-0.880,144.444,100.000,302.778,697.222,5.556,N
13,-0.730,0.675,-0.885,163.889,100.000,305.556,697.222,0.000,N
14,-0.750,0.695,-0.910,158.333,97.222,311.111,691.667,5.556,N
15,-0.750,0.640,-0.900,147.222,97.222,291.667,686.111,5.556,N
16,-0.725,0.755,-0.855,150.000,100.000,288.889,680.556,5.556,N
17,-0.705,0.730,-0.870,166.667,100.000,305.556,708.333,27.778,N
18,-0.770,0.705,-0.930,155.556,100.000,286.111,697.222,11.111,N
19,-0.765,0.685,-0.915,150.000,100.000,291.667,694.444,2.778,N
20,-0.765,0.700,-0.875,147.222,100.000,313.889,672.222,22.222,N
21,-0.735,0.740,-0.850,155.556,100.000,308.333,702.778,30.556,N
22,-0.715,0.775,-0.840,161.111,102.778,291.667,697.222,5.556,N
23,-0.660,0.710,-0.815,152.778,97.222,291.667,691.667,5.556,N
24,-0.635,0.690,-0.720,144.444,72.222,83.333,663.889,27.778,N
25,-0.695,0.710,-0.880,172.222,102.778,300.000,730.556,66.667,N
26,-0.755,0.670,-0.930,161.111,97.222,380.556,683.333,47.222,N
27,-0.775,0.650,-0.890,152.778,100.000,388.889,661.111,22.222,N
28,-0.710,0.610,-0.920,155.556,102.778,294.444,672.222,11.111,N
29,-0.765,0.625,-0.880,155.556,100.000,316.667,702.778,30.556,N
30,-0.755,0.615,-0.955,144.444,97.222,297.222,680.556,22.222,N
31,-0.865,0.605,-0.780,152.778,100.000,-22594.444,680.556,0.000,N
32,-0.865,0.495,-0.895,147.222,94.444,286.111,633.333,47.222,N
33,-0.765,0.450,-0.860,158.333,72.222,83.333,669.444,36.111,N
34,-0.855,0.500,-0.780,155.556,100.000,-24569.444,672.222,2.778,N
35,-0.830,0.595,-0.940,161.111,97.222,294.444,658.333,13.889,N
36,-0.770,0.500,-0.890,144.444,69.444,80.556,652.778,5.556,N
37,-0.840,0.495,-0.940,169.444,77.778,88.889,663.889,11.111,N
38,-0.950,0.420,-0.780,152.778,72.222,-27227.778,683.333,19.444,N
39,-0.950,0.425,-0.780,147.222,69.444,-27900.000,669.444,13.889,N
40,-0.960,0.560,-0.780,150.000,97.222,-28566.667,666.667,2.778,N
41,-0.840,0.490,-0.920,169.444,77.778,88.889,655.556,11.111,N
42,-0.695,0.645,-0.850,141.667,75.000,300.000,700.000,44.444,N
43,-0.715,0.625,-0.890,155.556,100.000,311.111,686.111,13.889,N
44,-0.770,0.655,-0.915,144.444,69.444,302.778,680.556,5.556,N
45,-0.760,0.730,-0.880,169.444,102.778,322.222,694.444,13.889,N
46,-0.720,0.730,-0.800,155.556,100.000,319.444,694.444,0.000,N
47,-0.625,0.775,-0.745,152.778,100.000,288.889,700.000,5.556,N
48,-0.640,0.710,-0.790,147.222,100.000,313.889,694.444,5.556,N
49,-0.655,0.760,-0.815,155.556,100.000,313.889,716.667,22.222,N
50,-0.700,0.700,-0.845,158.333,97.222,300.000,708.333,8.333,N
51,-0.750,0.700,-0.860,169.444,100.000,300.000,700.000,8.333,N
52,-0.725,0.815,-0.805,141.667,100.000,305.556,694.444,5.556,N
53,-0.645,0.795,-0.815,155.556,100.000,319.444,716.667,22.222,N
54,-0.670,0.800,-0.825,147.222,97.222,288.889,700.000,16.667,N
55,-0.700,0.760,-0.820,147.222,97.222,294.444,694.444,5.556,N
56,-0.680,0.785,-0.820,152.778,100.000,316.667,683.333,11.111,N
57,-0.670,0.790,-0.770,155.556,100.000,313.889,702.778,19.444,N
58,-0.595,0.935,-0.680,161.111,97.222,344.444,694.444,8.333,N
59,-0.470,0.985,-0.645,150.000,100.000,302.778,688.889,5.556,N
60,-0.455,0.985,-0.660,152.778,100.000,327.778,702.778,13.889,N
61,-0.555,0.885,-0.745,169.444,100.000,294.444,708.333,5.556,N
62,-0.630,0.860,-0.800,141.667,97.222,297.222,694.444,13.889,N
63,-0.640,0.830,-0.875,169.444,100.000,325.000,694.444,0.000,N
64,-0.715,0.740,-0.900,161.111,97.222,300.000,694.444,0.000,N
65,-0.760,0.730,-0.940,150.000,100.000,302.778,705.556,11.111,N
66,-0.790,0.675,-0.780,155.556,97.222,-46680.556,708.333,2.778,N
67,-0.790,0.705,-0.940,152.778,102.778,313.889,705.556,2.778,N
68,-0.735,0.800,-0.900,141.667,94.444,305.556,683.333,22.222,N
69,-0.705,0.715,-0.910,166.667,100.000,336.111,702.778,19.444,N
70,-0.765,0.625,-0.970,144.444,97.222,291.667,705.556,2.778,N
71,-0.840,0.600,-0.780,147.222,100.000,-50177.778,702.778,2.778,N
72,-0.825,0.580,-0.975,150.000,97.222,327.778,708.333,5.556,N
73,-0.790,0.675,-0.950,152.778,100.000,366.667,727.778,19.444,N
74,-0.755,0.810,-0.860,169.444,97.222,366.667,725.000,2.778,N
75,-0.670,0.760,-0.785,147.222,97.222,300.000,708.333,16.667,N
76,-0.625,0.740,-0.760,152.778,100.000,313.889,683.333,25.000,N
77,-0.640,0.660,-0.930,152.778,100.000,288.889,755.556,72.222,N
78,-0.830,0.565,-0.990,158.333,94.444,308.333,705.556,50.000,N
79,-0.840,0.575,-0.985,150.000,100.000,291.667,725.000,19.444,N
80,-0.795,0.715,-0.885,150.000,97.222,313.889,708.333,16.667,N
81,-0.695,0.730,-0.815,147.222,100.000,261.111,727.778,19.444,N
82,-0.630,0.710,-0.675,158.333,66.667,77.778,675.000,52.778,N
83,-0.695,0.670,-0.870,138.889,72.222,83.333,719.444,44.444,N
84,-0.855,0.580,-0.780,147.222,100.000,-59458.333,711.111,8.333,N
85,-0.890,0.685,-0.780,163.889,102.778,-60166.667,711.111,0.000,N
86,-0.825,0.600,-0.935,152.778,100.000,294.444,658.333,52.778,N
87,-0.730,0.720,-0.765,158.333,69.444,80.556,677.778,19.444,N
88,-0.750,0.610,-0.940,155.556,100.000,316.667,691.667,13.889,N
89,-0.835,0.595,-0.980,152.778,102.778,319.444,700.000,8.333,N
90,-0.820,0.655,-0.925,155.556,102.778,313.889,677.778,22.222,N
91,-0.730,0.710,-0.970,163.889,100.000,280.556,672.222,5.556,N
92,-0.805,0.595,-0.865,161.111,72.222,83.333,655.556,16.667,N
93,-0.900,0.505,-0.780,152.778,100.000,-65608.333,705.556,50.000,N
94,-0.780,0.460,-0.780,66330.556,97.222,-66291.667,680.556,25.000,N
95,-0.950,0.610,-0.780,163.889,97.222,-66986.111,694.444,13.889,N
96,-0.840,0.665,-0.955,155.556,100.000,386.111,686.111,8.333,N
97,-0.785,0.710,-0.900,152.778,97.222,297.222,691.667,5.556,N
98,-0.740,0.700,-0.915,166.667,97.222,294.444,694.444,2.778,N
99,-0.760,0.700,-0.895,161.111,97.222,272.222,694.444,0.000,N
100,-0.725,0.705,-0.880,163.889,102.778,313.889,697.222,2.778,N
101,-0.695,0.805,-0.830,144.444,100.000,300.000,711.111,13.889,N
102,-0.655,0.750,-0.880,150.000,100.000,313.889,686.111,25.000,N
103,-0.905,0.200,-0.780,150.000,97.222,-72538.889,691.667,5.556,N
104,-0.780,-0.210,-0.780,73261.111,102.778,-73216.667,683.333,8.333,N
105,-0.780,0.160,-0.780,73958.333,94.444,-73922.222,697.222,13.889,N
106,-0.780,0.630,-0.950,74641.667,97.222,327.778,683.333,13.889,N
107,-0.705,0.870,-0.715,147.222,97.222,325.000,672.222,11.111,N
108,-0.510,1.020,-0.655,161.111,102.778,311.111,686.111,13.889,N
109,-0.465,1.025,-0.600,155.556,100.000,305.556,700.000,13.889,N
110,-0.420,1.020,-0.550,150.000,100.000,325.000,683.333,16.667,N
111,-0.415,1.015,-0.590,155.556,100.000,300.000,688.889,5.556,N
112,-0.455,0.995,-0.615,144.444,100.000,297.222,705.556,16.667,N
113,-0.470,0.985,-0.645,152.778,97.222,283.333,705.556,0.000,N
114,-0.465,0.945,-0.690,155.556,100.000,319.444,705.556,0.000,N
115,-0.575,0.840,-0.815,152.778,94.444,305.556,705.556,0.000,N
116,-0.675,0.770,-0.910,169.444,102.778,311.111,711.111,5.556,N
117,-0.775,0.680,-0.930,141.667,94.444,300.000,705.556,5.556,N
118,-0.755,0.700,-0.910,150.000,100.000,327.778,713.889,8.333,N
119,-0.750,0.715,-0.880,163.889,100.000,372.222,711.111,2.778,N
120,-0.700,0.790,-0.835,147.222,100.000,352.778,716.667,5.556,N
121,-0.645,0.810,-0.810,158.333,97.222,311.111,711.111,5.556,N
122,-0.665,0.735,-0.840,169.444,102.778,308.333,675.000,36.111,N
123,-0.695,0.680,-0.905,150.000,97.222,322.222,686.111,11.111,N
124,-0.810,0.570,-0.990,161.111,100.000,322.222,702.778,16.667,N
125,-0.870,0.550,-0.780,150.000,100.000,-87883.333,697.222,5.556,N
126,-0.870,0.625,-0.980,147.222,94.444,291.667,697.222,0.000,N
127,-0.805,0.605,-0.925,163.889,100.000,275.000,655.556,41.667,N
128,-0.775,0.580,-0.805,147.222,75.000,86.111,683.333,27.778,N
129,-0.730,0.615,-0.935,147.222,97.222,288.889,705.556,22.222,N
130,-0.840,0.555,-0.780,147.222,97.222,-91316.667,688.889,16.667,N
131,-0.885,0.580,-0.780,158.333,97.222,-92013.889,697.222,8.333,N
132,-0.815,0.620,-0.840,155.556,75.000,86.111,708.333,11.111,N
133,-0.735,0.610,-0.800,155.556,72.222,83.333,672.222,36.111,N
134,-0.695,0.605,-0.840,152.778,72.222,86.111,697.222,25.000,N
135,-0.835,0.515,-0.990,158.333,77.778,88.889,691.667,5.556,N
136,-0.910,0.495,-0.780,152.778,72.222,-95494.444,711.111,19.444,N
137,-0.815,0.640,-0.880,150.000,75.000,83.333,663.889,47.222,N
138,-0.740,0.575,-0.765,155.556,75.000,86.111,669.444,5.556,N
139,-0.680,0.665,-0.795,144.444,66.667,77.778,666.667,2.778,N
140,-0.800,0.555,-0.780,147.222,97.222,-98186.111,691.667,25.000,N
141,-0.905,0.530,-0.780,150.000,102.778,-98847.222,666.667,25.000,N
142,-0.900,0.605,-0.995,144.444,97.222,294.444,669.444,2.778,N
143,-0.815,0.630,-0.900,158.333,97.222,316.667,650.000,19.444,N
144,-0.730,0.670,-0.830,147.222,100.000,319.444,663.889,13.889,N
145,-0.755,0.580,-0.935,144.444,72.222,83.333,694.444,30.556,N
146,-0.810,0.545,-0.940,152.778,94.444,280.556,675.000,19.444,N
147,-0.760,0.665,-0.810,141.667,72.222,297.222,686.111,11.111,N
148,-0.640,0.780,-0.755,175.000,100.000,297.222,700.000,13.889,N
149,-0.580,0.835,-0.745,163.889,100.000,311.111,691.667,8.333,N
150,-0.635,0.750,-0.825,166.667,100.000,297.222,677.778,13.889,N
151,-0.770,0.625,-0.985,161.111,91.667,266.667,691.667,13.889,N
152,-0.875,0.515,-0.780,163.889,100.000,-106352.778,702.778,11.111,N
153,-0.940,0.525,-0.780,163.889,97.222,-107050.000,694.444,8.333,N
154,-0.960,0.505,-0.780,166.667,100.000,-107747.222,700.000,5.556,N
155,-0.910,0.540,-0.780,163.889,97.222,-108452.778,702.778,2.778,N
156,-0.950,0.500,-0.780,169.444,105.556,-109183.333,738.889,36.111,N
157,-0.960,0.470,-0.780,155.556,94.444,-109913.889,719.444,19.444,N
158,-0.970,0.555,-0.780,163.889,100.000,-110625.000,716.667,2.778,N
159,-0.895,0.590,-0.780,172.222,97.222,-111338.889,711.111,5.556,N
160,-0.850,0.605,-0.780,144.444,97.222,-112069.444,730.556,19.444,N
161,-0.880,0.610,-0.780,147.222,97.222,-112775.000,705.556,25.000,N
162,-0.920,0.590,-0.780,161.111,100.000,-113494.444,722.222,16.667,N
163,-0.885,0.590,-0.780,150.000,100.000,-114202.778,708.333,13.889,N
164,-0.890,0.625,-0.780,155.556,100.000,-114933.333,730.556,22.222,N
165,-0.825,0.685,-0.960,152.778,100.000,327.778,705.556,25.000,N
166,-0.770,0.765,-0.925,166.667,97.222,313.889,719.444,13.889,N
167,-0.720,0.730,-0.910,166.667,100.000,311.111,713.889,5.556,N
168,-0.760,0.725,-0.945,158.333,100.000,319.444,716.667,2.778,N
169,-0.805,0.645,-0.960,163.889,102.778,319.444,711.111,5.556,N
170,-0.800,0.675,-0.935,152.778,100.000,325.000,711.111,0.000,N
171,-0.800,0.715,-0.935,175.000,102.778,330.556,733.333,22.222,N
172,-0.765,0.780,-0.885,169.444,100.000,305.556,719.444,13.889,N
173,-0.685,0.725,-0.755,158.333,69.444,80.556,719.444,0.000,N
174,-0.695,0.700,-0.915,161.111,97.222,305.556,705.556,13.889,N
175,-0.785,0.710,-0.980,163.889,100.000,283.333,741.667,36.111,N
176,-0.835,0.660,-0.965,172.222,100.000,302.778,741.667,0.000,N
177,-0.815,0.770,-0.930,166.667,97.222,305.556,761.111,19.444,N
178,-0.715,0.735,-0.840,161.111,97.222,300.000,741.667,19.444,N
179,-0.640,0.760,-0.850,152.778,97.222,297.222,741.667,0.000,N
180,-0.735,0.715,-0.915,161.111,100.000,327.778,738.889,2.778,N
181,-0.765,0.720,-0.915,141.667,100.000,297.222,725.000,13.889,N
182,-0.765,0.775,-0.880,158.333,97.222,322.222,738.889,13.889,N
183,-0.685,0.735,-0.830,141.667,100.000,330.556,727.778,11.111,N
184,-0.640,0.805,-0.795,150.000,97.222,311.111,713.889,13.889,N
185,-0.735,0.710,-0.895,147.222,97.222,316.667,700.000,13.889,N
186,-0.775,0.655,-0.940,172.222,100.000,322.222,727.778,27.778,N
187,-0.785,0.750,-0.880,158.333,100.000,319.444,713.889,13.889,N
188,-0.710,0.750,-0.775,155.556,72.222,83.333,700.000,13.889,N
189,-0.670,0.765,-0.820,152.778,100.000,280.556,697.222,2.778,N
190,-0.730,0.640,-0.940,150.000,97.222,280.556,727.778,30.556,N
191,-0.805,0.605,-0.965,150.000,97.222,288.889,697.222,30.556,N
192,-0.840,0.620,-0.930,152.778,69.444,80.556,697.222,0.000,N
193,-0.760,0.745,-0.885,155.556,102.778,344.444,688.889,8.333,N
194,-0.705,0.740,-0.790,144.444,97.222,300.000,705.556,16.667,N
195,-0.605,0.740,-0.715,158.333,72.222,83.333,680.556,25.000,N
196,-0.690,0.715,-0.860,158.333,102.778,286.111,705.556,25.000,N
197,-0.700,0.760,-0.860,163.889,97.222,311.111,680.556,25.000,N
198,-0.720,0.760,-0.865,138.889,100.000,313.889,700.000,19.444,N
199,-0.650,0.820,-0.785,152.778,97.222,327.778,683.333,16.667,N
200,-0.595,0.855,-0.715,161.111,97.222,311.111,675.000,8.333,N
201,-0.600,0.800,-0.820,158.333,100.000,308.333,702.778,27.778,N
202,-0.710,0.750,-0.900,158.333,94.444,300.000,700.000,2.778,N
203,-0.750,0.705,-0.885,147.222,100.000,297.222,691.667,8.333,N
204,-0.705,0.815,-0.855,155.556,97.222,308.333,675.000,16.667,N
205,-0.685,0.725,-0.830,161.111,97.222,322.222,666.667,8.333,N
206,-0.650,0.760,-0.850,166.667,100.000,280.556,708.333,41.667,N
207,-0.730,0.685,-0.875,144.444,72.222,80.556,680.556,27.778,N
208,-0.765,0.685,-0.915,152.778,97.222,311.111,680.556,0.000,N
209,-0.780,0.690,-0.915,150.000,97.222,283.333,663.889,16.667,N
210,-0.745,0.790,-0.880,147.222,100.000,336.111,686.111,22.222,N
211,-0.700,0.820,-0.810,161.111,97.222,311.111,655.556,30.556,N
212,-0.670,0.810,-0.830,147.222,97.222,288.889,683.333,27.778,N
213,-0.710,0.795,-0.880,169.444,102.778,313.889,688.889,5.556,N
214,-0.740,0.795,-0.870,163.889,100.000,311.111,697.222,8.333,N
215,-0.680,0.840,-0.825,150.000,97.222,283.333,686.111,11.111,N
216,-0.650,0.895,-0.790,163.889,97.222,341.667,677.778,8.333,N
217,-0.620,0.805,-0.770,163.889,102.778,325.000,697.222,19.444,N
218,-0.635,0.815,-0.815,172.222,100.000,302.778,713.889,16.667,N
219,-0.705,0.775,-0.850,163.889,97.222,311.111,688.889,25.000,N
220,-0.725,0.795,-0.835,158.333,102.778,319.444,700.000,11.111,N
221,-0.660,0.890,-0.785,152.778,97.222,319.444,672.222,27.778,N
222,-0.630,0.850,-0.820,150.000,97.222,291.667,686.111,13.889,N
223,-0.730,0.785,-0.890,155.556,100.000,272.222,683.333,2.778,N
224,-0.750,0.720,-0.910,158.333,97.222,280.556,688.889,5.556,N
225,-0.740,0.690,-0.900,150.000,97.222,280.556,697.222,8.333,N
226,-0.725,0.755,-0.840,155.556,97.222,286.111,705.556,8.333,N
227,-0.650,0.800,-0.770,152.778,97.222,313.889,697.222,8.333,N
228,-0.615,0.785,-0.805,147.222,97.222,288.889,700.000,2.778,N
229,-0.645,0.795,-0.850,161.111,100.000,283.333,711.111,11.111,N
230,-0.725,0.755,-0.875,169.444,97.222,302.778,744.444,33.333,N
231,-0.705,0.775,-0.875,163.889,100.000,300.000,730.556,13.889,N
232,-0.710,0.790,-0.830,166.667,97.222,308.333,730.556,0.000,N
233,-0.655,0.815,-0.790,150.000,100.000,333.333,711.111,19.444,N
234,-0.655,0.805,-0.815,161.111,100.000,288.889,750.000,38.889,N
235,-0.680,0.810,-0.815,163.889,100.000,311.111,738.889,11.111,N
236,-0.665,0.770,-0.785,152.778,97.222,288.889,750.000,11.111,N
237,-0.615,0.885,-0.750,169.444,100.000,305.556,761.111,11.111,N
238,-0.575,0.865,-0.730,150.000,97.222,327.778,736.111,25.000,N
239,-0.605,0.745,-0.820,152.778,97.222,283.333,711.111,25.000,N
240,-0.710,0.745,-0.890,163.889,97.222,272.222,716.667,5.556,N
241,-0.735,0.695,-0.895,172.222,100.000,300.000,738.889,22.222,N
242,-0.760,0.740,-0.895,152.778,100.000,316.667,719.444,19.444,N
243,-0.735,0.735,-0.865,172.222,100.000,366.667,719.444,0.000,N
244,-0.695,0.770,-0.860,141.667,97.222,330.556,691.667,27.778,N
245,-0.730,0.700,-0.885,161.111,97.222,305.556,758.333,66.667,N
246,-0.740,0.695,-0.915,161.111,100.000,319.444,738.889,19.444,N
247,-0.775,0.705,-0.910,147.222,100.000,291.667,747.222,8.333,N
248,-0.710,0.820,-0.815,161.111,97.222,338.889,750.000,2.778,N
249,-0.600,0.845,-0.740,161.111,97.222,277.778,733.333,16.667,N
250,-0.580,0.865,-0.760,152.778,97.222,288.889,722.222,11.111,N
251,-0.665,0.805,-0.800,144.444,97.222,294.444,727.778,5.556,N
252,-0.665,0.770,-0.805,177.778,102.778,330.556,738.889,11.111,N
253,-0.660,0.895,-0.765,155.556,97.222,313.889,747.222,8.333,N
254,-0.595,0.920,-0.725,155.556,102.778,327.778,755.556,8.333,N
255,-0.580,0.885,-0.805,158.333,97.222,302.778,750.000,5.556,N
256,-0.700,0.760,-0.855,158.333,97.222,294.444,783.333,33.333,N
257,-0.690,0.790,-0.835,155.556,100.000,355.556,811.111,27.778,N
258,-0.675,0.725,-0.870,155.556,100.000,316.667,833.333,22.222,N
259,-0.740,0.705,-0.865,155.556,100.000,316.667,866.667,33.333,N
260,-0.675,0.780,-0.800,172.222,97.222,330.556,880.556,13.889,N
261,-0.635,0.850,-0.795,161.111,97.222,277.778,858.333,22.222,N
262,-0.640,0.870,-0.785,177.778,102.778,347.222,902.778,44.444,N
263,-0.590,0.945,-0.710,172.222,97.222,333.333,913.889,11.111,N
264,-0.545,0.920,-0.745,169.444,97.222,291.667,866.667,47.222,N
265,-0.605,0.840,-0.765,180.556,100.000,300.000,841.667,25.000,N
266,-0.645,0.830,-0.820,169.444,102.778,325.000,836.111,5.556,N
267,-0.640,0.840,-0.770,152.778,100.000,322.222,800.000,36.111,N
268,-0.575,0.865,-0.755,161.111,100.000,316.667,777.778,22.222,N
269,-0.635,0.800,-0.805,155.556,100.000,305.556,769.444,8.333,N
270,-0.670,0.775,-0.835,166.667,97.222,322.222,763.889,5.556,N
271,-0.660,0.870,-0.785,161.111,100.000,341.667,766.667,2.778,N
272,-0.610,0.870,-0.745,158.333,102.778,347.222,741.667,25.000,N
273,-0.595,0.855,-0.805,158.333,97.222,327.778,750.000,8.333,N
274,-0.685,0.770,-0.875,158.333,102.778,319.444,738.889,11.111,N
275,-0.740,0.750,-0.855,155.556,97.222,305.556,744.444,5.556,N
276,-0.715,0.815,-0.850,169.444,97.222,347.222,733.333,11.111,N
277,-0.670,0.820,-0.805,163.889,100.000,341.667,741.667,8.333,N
278,-0.620,0.805,-0.690,144.444,66.667,77.778,708.333,33.333,N
279,-0.605,0.795,-0.850,161.111,100.000,316.667,716.667,8.333,N
280,-0.710,0.690,-0.870,161.111,100.000,327.778,725.000,8.333,N
281,-0.710,0.790,-0.870,163.889,102.778,327.778,722.222,2.778,N
282,-0.690,0.815,-0.800,144.444,97.222,327.778,708.333,13.889,N
283,-0.600,0.805,-0.745,141.667,100.000,305.556,691.667,16.667,N
284,-0.575,0.840,-0.735,147.222,97.222,322.222,705.556,13.889,N
285,-0.630,0.805,-0.815,152.778,100.000,305.556,700.000,5.556,N
286,-0.695,0.755,-0.840,152.778,100.000,319.444,705.556,5.556,N
287,-0.670,0.830,-0.795,161.111,100.000,344.444,680.556,25.000,N
288,-0.630,0.885,-0.745,152.778,97.222,322.222,713.889,33.333,N
289,-0.605,0.895,-0.735,144.444,94.444,283.333,677.778,36.111,N
290,-0.550,0.895,-0.700,166.667,100.000,305.556,683.333,5.556,N
291,-0.565,0.845,-0.790,166.667,100.000,275.000,697.222,13.889,N
292,-0.655,0.810,-0.825,172.222,102.778,338.889,705.556,8.333,N
293,-0.675,0.775,-0.840,161.111,100.000,322.222,686.111,19.444,N
294,-0.675,0.855,-0.820,152.778,97.222,322.222,688.889,2.778,N
295,-0.635,0.810,-0.785,150.000,100.000,322.222,677.778,11.111,N
296,-0.630,0.830,-0.830,158.333,100.000,316.667,708.333,30.556,N
297,-0.710,0.705,-0.890,152.778,97.222,325.000,680.556,27.778,N
298,-0.765,0.690,-0.850,147.222,100.000,327.778,702.778,22.222,N
299,-0.675,0.740,-0.805,144.444,100.000,333.333,663.889,38.889,N
300,-0.630,0.675,-0.775,161.111,102.778,313.889,686.111,22.222,N
301,-0.680,0.465,-0.855,147.222,100.000,330.556,683.333,2.778,N
302,-0.760,0.500,-0.900,158.333,102.778,313.889,686.111,2.778,N
303,-0.760,0.570,-0.895,150.000,100.000,322.222,688.889,2.778,N
304,-0.720,0.795,-0.845,161.111,100.000,319.444,708.333,19.444,N
305,-0.670,0.860,-0.825,169.444,100.000,338.889,677.778,30.556,N
306,-0.660,0.790,-0.820,155.556,102.778,313.889,691.667,13.889,N
307,-0.675,0.825,-0.830,147.222,97.222,302.778,680.556,11.111,N
308,-0.660,0.825,-0.830,166.667,100.000,311.111,725.000,44.444,N
309,-0.680,0.830,-0.815,166.667,97.222,308.333,697.222,27.778,N
310,-0.675,0.820,-0.835,141.667,97.222,300.000,711.111,13.889,N
311,-0.650,0.850,-0.805,158.333,100.000,347.222,697.222,13.889,N
312,-0.665,0.830,-0.800,150.000,100.000,319.444,725.000,27.778,N
313,-0.655,0.790,-0.780,147.222,100.000,327.778,719.444,5.556,N
314,-0.650,0.865,-0.800,163.889,100.000,336.111,719.444,0.000,N
315,-0.605,0.905,-0.715,161.111,102.778,352.778,730.556,11.111,N
316,-0.550,0.915,-0.720,147.222,97.222,319.444,716.667,13.889,N
317,-0.595,0.815,-0.810,152.778,100.000,291.667,705.556,11.111,N
318,-0.680,0.780,-0.845,155.556,97.222,283.333,705.556,0.000,N
319,-0.705,0.800,-0.850,155.556,102.778,327.778,730.556,25.000,N
320,-0.710,0.760,-0.865,155.556,100.000,322.222,702.778,27.778,N
321,-0.710,0.815,-0.845,169.444,100.000,308.333,719.444,16.667,N
322,-0.675,0.860,-0.780,147.222,94.444,341.667,691.667,27.778,N
323,-0.625,0.805,-0.795,150.000,97.222,333.333,713.889,22.222,N
324,-0.710,0.790,-0.855,169.444,102.778,338.889,694.444,19.444,N
325,-0.740,0.755,-0.895,166.667,97.222,272.222,697.222,2.778,N
326,-0.770,0.745,-0.910,141.667,94.444,336.111,705.556,8.333,N
327,-0.705,0.795,-0.830,152.778,97.222,313.889,713.889,8.333,N
328,-0.660,0.860,-0.780,144.444,100.000,330.556,686.111,27.778,N
329,-0.630,0.820,-0.795,155.556,97.222,311.111,691.667,5.556,N
330,-0.685,0.780,-0.855,150.000,97.222,313.889,688.889,2.778,N
331,-0.700,0.805,-0.855,161.111,100.000,311.111,713.889,25.000,N
332,-0.710,0.770,-0.840,161.111,97.222,316.667,694.444,19.444,N
333,-0.655,0.915,-0.755,163.889,100.000,311.111,705.556,11.111,N
334,-0.575,0.870,-0.745,166.667,97.222,336.111,677.778,27.778,N
335,-0.620,0.805,-0.835,158.333,94.444,325.000,711.111,33.333,N
336,-0.720,0.745,-0.880,152.778,97.222,308.333,705.556,5.556,N
337,-0.750,0.760,-0.885,152.778,100.000,322.222,702.778,2.778,N
338,-0.745,0.790,-0.850,163.889,100.000,305.556,719.444,16.667,N
339,-0.670,0.800,-0.805,158.333,97.222,311.111,713.889,5.556,N
340,-0.640,0.775,-0.830,161.111,100.000,322.222,702.778,11.111,N
341,-0.710,0.710,-0.865,141.667,97.222,325.000,688.889,13.889,N
342,-0.720,0.755,-0.870,163.889,102.778,313.889,722.222,33.333,N
343,-0.710,0.815,-0.805,161.111,97.222,322.222,719.444,2.778,N
344,-0.615,0.915,-0.725,166.667,100.000,308.333,713.889,5.556,N
345,-0.525,0.960,-0.685,163.889,100.000,313.889,697.222,16.667,N
346,-0.590,0.840,-0.760,150.000,97.222,288.889,719.444,22.222,N
347,-0.655,0.810,-0.810,161.111,100.000,319.444,711.111,8.333,N
348,-0.675,0.850,-0.805,155.556,100.000,333.333,713.889,2.778,N
349,-0.600,0.875,-0.770,158.333,102.778,330.556,719.444,5.556,N
350,-0.610,0.855,-0.800,158.333,100.000,322.222,733.333,13.889,N
351,-0.675,0.770,-0.845,155.556,100.000,322.222,722.222,11.111,N
352,-0.730,0.815,-0.855,150.000,97.222,322.222,730.556,8.333,N
353,-0.685,0.875,-0.790,152.778,100.000,327.778,736.111,5.556,N
354,-0.625,0.910,-0.780,152.778,100.000,313.889,747.222,11.111,N
355,-0.595,0.855,-0.780,155.556,100.000,325.000,725.000,22.222,N
356,-0.665,0.820,-0.815,161.111,100.000,286.111,741.667,16.667,N
357,-0.660,0.810,-0.795,155.556,100.000,325.000,725.000,16.667,N
358,-0.605,0.895,-0.755,152.778,100.000,316.667,736.111,11.111,N
359,-0.595,0.940,-0.720,147.222,100.000,305.556,722.222,13.889,N
360,-0.575,0.870,-0.745,158.333,100.000,316.667,719.444,2.778,N
361,-0.610,0.870,-0.740,152.778,97.222,322.222,725.000,5.556,N
362,-0.585,0.860,-0.775,150.000,97.222,294.444,733.333,8.333,N
363,-0.650,0.895,-0.800,161.111,100.000,308.333,719.444,13.889,N
364,-0.655,0.845,-0.870,147.222,97.222,302.778,711.111,8.333,N
365,-0.725,0.690,-0.935,161.111,100.000,322.222,741.667,30.556,N
366,-0.810,0.635,-0.985,152.778,100.000,327.778,736.111,5.556,N
367,-0.845,0.630,-0.780,161.111,100.000,-261205.556,736.111,0.000,N
368,-0.820,0.720,-0.925,150.000,100.000,327.778,727.778,8.333,N
369,-0.740,0.735,-0.875,152.778,100.000,333.333,758.333,30.556,N
370,-0.755,0.660,-0.960,141.667,94.444,327.778,730.556,27.778,N
371,-0.820,0.630,-0.960,158.333,100.000,325.000,750.000,19.444,N
372,-0.825,0.645,-0.965,169.444,102.778,338.889,755.556,5.556,N
373,-0.805,0.750,-0.930,144.444,94.444,297.222,763.889,8.333,N
374,-0.770,0.740,-0.885,172.222,97.222,327.778,736.111,27.778,N
375,-0.755,0.700,-0.960,150.000,100.000,302.778,738.889,2.778,N
376,-0.805,0.655,-0.990,161.111,100.000,308.333,750.000,11.111,N
377,-0.835,0.625,-0.960,161.111,100.000,319.444,727.778,22.222,N
378,-0.780,0.710,-0.930,155.556,100.000,350.000,736.111,8.333,N
379,-0.750,0.765,-0.870,161.111,97.222,369.444,708.333,27.778,N
380,-0.670,0.710,-0.900,152.778,97.222,319.444,719.444,11.111,N
381,-0.790,0.700,-0.975,158.333,97.222,316.667,711.111,8.333,N
382,-0.785,0.700,-0.940,161.111,100.000,311.111,733.333,22.222,N
383,-0.775,0.770,-0.880,150.000,100.000,322.222,719.444,13.889,N
384,-0.705,0.825,-0.820,166.667,102.778,336.111,727.778,8.333,N
385,-0.665,0.795,-0.845,169.444,100.000,330.556,702.778,25.000,N
386,-0.735,0.715,-0.925,155.556,100.000,319.444,711.111,8.333,N
387,-0.755,0.705,-0.925,158.333,100.000,350.000,705.556,5.556,N
388,-0.735,0.815,-0.875,169.444,100.000,341.667,744.444,38.889,N
389,-0.660,0.805,-0.770,144.444,97.222,330.556,708.333,36.111,N
390,-0.630,0.815,-0.815,144.444,97.222,325.000,705.556,2.778,N
391,-0.720,0.690,-0.970,150.000,100.000,297.222,700.000,5.556,N
392,-0.830,0.610,-0.780,158.333,100.000,-279394.444,716.667,16.667,N
393,-0.845,0.605,-0.780,163.889,97.222,-280097.222,700.000,16.667,N
394,-0.845,0.650,-0.960,150.000,97.222,322.222,691.667,8.333,N
395,-0.760,0.710,-0.890,158.333,100.000,333.333,708.333,16.667,N
396,-0.735,0.685,-0.880,152.778,97.222,313.889,697.222,11.111,N
397,-0.740,0.655,-0.905,158.333,100.000,313.889,702.778,5.556,N
398,-0.735,0.690,-0.885,152.778,100.000,336.111,722.222,19.444,N
399,-0.695,0.765,-0.825,175.000,102.778,336.111,763.889,41.667,N
400,-0.670,0.800,-0.835,163.889,100.000,325.000,777.778,13.889,N
401,-0.675,0.765,-0.855,175.000,102.778,341.667,819.444,41.667,N
402,-0.760,0.680,-0.780,169.444,100.000,-286783.333,805.556,13.889,N
403,-0.780,0.390,-0.780,287644.444,100.000,-287602.778,819.444,13.889,N
404,-0.780,0.445,-0.780,288427.778,97.222,-288388.889,783.333,36.111,N
405,-0.905,0.695,-0.925,175.000,102.778,325.000,800.000,16.667,N
406,-0.680,0.935,-0.770,169.444,100.000,377.778,788.889,11.111,N
407,-0.540,1.005,-0.610,175.000,97.222,327.778,777.778,11.111,N
408,-0.445,1.080,-0.585,166.667,97.222,302.778,750.000,27.778,N
409,-0.450,1.055,-0.615,169.444,102.778,341.667,741.667,8.333,N
410,-0.480,1.005,-0.600,161.111,100.000,333.333,775.000,33.333,N
411,-0.425,1.110,-0.570,166.667,100.000,363.889,758.333,16.667,N
412,-0.375,1.095,-0.545,161.111,97.222,311.111,755.556,2.778,N
413,-0.410,1.010,-0.590,161.111,97.222,319.444,730.556,25.000,N
414,-0.470,0.985,-0.675,158.333,100.000,311.111,777.778,47.222,N
415,-0.550,0.975,-0.725,161.111,97.222,341.667,769.444,8.333,N
416,-0.535,0.930,-0.730,172.222,94.444,305.556,769.444,0.000,N
417,-0.595,0.825,-0.795,169.444,100.000,333.333,780.556,11.111,N
418,-0.645,0.815,-0.805,158.333,97.222,325.000,769.444,11.111,N
419,-0.645,0.825,-0.795,169.444,94.444,333.333,752.778,16.667,N
420,-0.600,0.845,-0.770,161.111,100.000,341.667,758.333,5.556,N
421,-0.625,0.810,-0.800,161.111,100.000,316.667,758.333,0.000,N
422,-0.645,0.800,-0.845,172.222,94.444,327.778,722.222,36.111,N
423,-0.700,0.730,-0.880,150.000,100.000,297.222,741.667,19.444,N
424,-0.725,0.740,-0.910,166.667,102.778,344.444,722.222,19.444,N
425,-0.730,0.760,-0.865,175.000,94.444,322.222,741.667,19.444,N
426,-0.710,0.790,-0.875,172.222,100.000,325.000,738.889,2.778,N
427,-0.740,0.690,-0.925,169.444,100.000,338.889,755.556,16.667,N
428,-0.800,0.665,-0.980,166.667,100.000,336.111,766.667,11.111,N
429,-0.890,0.485,-0.780,172.222,102.778,-307355.556,769.444,2.778,N
430,-0.780,0.440,-0.780,308158.333,100.000,-308116.667,758.333,11.111,N
431,-0.880,0.630,-0.975,175.000,102.778,330.556,744.444,13.889,N
432,-0.780,0.745,-0.890,166.667,100.000,311.111,786.111,41.667,N
433,-0.725,0.855,-0.795,155.556,100.000,325.000,763.889,22.222,N
434,-0.585,0.980,-0.710,163.889,97.222,316.667,744.444,19.444,N
435,-0.510,0.960,-0.670,166.667,97.222,322.222,725.000,19.444,N
436,-0.555,0.915,-0.740,161.111,97.222,305.556,744.444,19.444,N
437,-0.575,0.885,-0.775,169.444,102.778,322.222,738.889,5.556,N
438,-0.620,0.945,-0.735,158.333,97.222,333.333,733.333,5.556,N
439,-0.545,0.950,-0.705,175.000,102.778,358.333,744.444,11.111,N
440,-0.530,0.915,-0.765,161.111,94.444,313.889,708.333,36.111,N
441,-0.615,0.880,-0.810,166.667,102.778,336.111,713.889,5.556,N
442,-0.645,0.870,-0.730,169.444,100.000,330.556,708.333,5.556,N
443,-0.570,0.915,-0.675,155.556,100.000,319.444,744.444,36.111,N
444,-0.465,1.005,-0.655,158.333,97.222,352.778,700.000,44.444,N
445,-0.500,0.960,-0.695,163.889,100.000,319.444,700.000,0.000,N
446,-0.515,0.895,-0.735,172.222,100.000,333.333,688.889,11.111,N
447,-0.625,0.795,-0.810,163.889,100.000,319.444,716.667,27.778,N
448,-0.705,0.720,-0.855,141.667,97.222,336.111,686.111,30.556,N
449,-0.705,0.765,-0.850,152.778,97.222,325.000,705.556,19.444,N
450,-0.715,0.710,-0.850,163.889,102.778,347.222,683.333,22.222,N
451,-0.705,0.710,-0.875,155.556,94.444,316.667,700.000,16.667,N
452,-0.750,0.700,-0.935,147.222,100.000,330.556,680.556,19.444,N
453,-0.775,0.650,-0.970,163.889,100.000,313.889,686.111,5.556,N
454,-0.840,0.685,-0.965,152.778,100.000,336.111,683.333,2.778,N
455,-0.840,0.595,-0.990,152.778,100.000,325.000,675.000,8.333,N
456,-0.835,0.620,-0.935,152.778,97.222,316.667,666.667,8.333,N
457,-0.800,0.645,-0.995,155.556,94.444,297.222,683.333,16.667,N
458,-0.830,0.600,-0.965,152.778,100.000,316.667,655.556,27.778,N
459,-0.830,0.705,-0.955,166.667,100.000,311.111,680.556,25.000,N
460,-0.800,0.675,-0.920,161.111,97.222,316.667,650.000,30.556,N
461,-0.745,0.675,-0.875,144.444,97.222,341.667,658.333,8.333,N
462,-0.745,0.695,-0.955,161.111,100.000,319.444,683.333,25.000,N
463,-0.820,0.650,-0.955,172.222,100.000,322.222,688.889,5.556,N
464,-0.825,0.650,-0.955,144.444,97.222,330.556,661.111,27.778,N
465,-0.740,0.765,-0.860,147.222,100.000,322.222,672.222,11.111,N
466,-0.695,0.790,-0.805,169.444,100.000,338.889,652.778,19.444,N
467,-0.640,0.760,-0.775,155.556,75.000,86.111,713.889,61.111,N
468,-0.710,0.750,-0.840,158.333,102.778,341.667,688.889,25.000,N
469,-0.685,0.850,-0.805,152.778,94.444,311.111,694.444,5.556,N
470,-0.665,0.775,-0.840,163.889,100.000,341.667,677.778,16.667,N
471,-0.715,0.740,-0.835,147.222,97.222,325.000,711.111,33.333,N
472,-0.685,0.815,-0.775,147.222,97.222,325.000,700.000,11.111,N
473,-0.615,0.895,-0.745,161.111,97.222,344.444,708.333,8.333,N
474,-0.570,0.920,-0.740,175.000,102.778,330.556,719.444,11.111,N
475,-0.595,0.890,-0.780,163.889,97.222,338.889,725.000,5.556,N
476,-0.630,0.825,-0.815,150.000,100.000,325.000,716.667,8.333,N
477,-0.630,0.870,-0.805,163.889,97.222,344.444,713.889,2.778,N
478,-0.670,0.820,-0.895,169.444,102.778,308.333,736.111,22.222,N
479,-0.770,0.695,-0.930,150.000,94.444,316.667,719.444,16.667,N
480,-0.785,0.665,-0.920,175.000,100.000,330.556,733.333,13.889,N
481,-0.745,0.750,-0.895,155.556,97.222,347.222,708.333,25.000,N
482,-0.710,0.720,-0.915,152.778,97.222,319.444,733.333,25.000,N
483,-0.755,0.695,-0.925,161.111,100.000,325.000,741.667,8.333,N
484,-0.750,0.755,-0.865,166.667,97.222,363.889,744.444,2.778,N
485,-0.675,0.830,-0.790,152.778,100.000,358.333,744.444,0.000,N
486,-0.605,0.900,-0.750,166.667,97.222,319.444,741.667,2.778,N
487,-0.605,0.850,-0.810,175.000,100.000,333.333,725.000,16.667,N
488,-0.645,0.835,-0.795,158.333,97.222,322.222,736.111,11.111,N
489,-0.620,0.910,-0.760,155.556,100.000,350.000,744.444,8.333,N
490,-0.590,0.885,-0.775,163.889,97.222,302.778,741.667,2.778,N
491,-0.635,0.820,-0.850,166.667,102.778,330.556,736.111,5.556,N
492,-0.720,0.735,-0.890,161.111,94.444,311.111,722.222,13.889,N
493,-0.725,0.780,-0.895,175.000,100.000,336.111,752.778,30.556,N
494,-0.695,0.825,-0.860,163.889,100.000,347.222,727.778,25.000,N
495,-0.670,0.765,-0.860,152.778,100.000,322.222,716.667,11.111,N
496,-0.745,0.740,-0.895,169.444,100.000,341.667,741.667,25.000,N
497,-0.705,0.805,-0.810,158.333,100.000,330.556,752.778,11.111,N
498,-0.635,0.885,-0.775,172.222,97.222,333.333,727.778,25.000,N
499,-0.565,0.845,-0.760,161.111,100.000,319.444,719.444,8.333,N
500,-0.605,0.840,-0.765,161.111,100.000,311.111,738.889,19.444,N
501,-0.600,0.920,-0.765,152.778,102.778,336.111,750.000,11.111,N
502,-0.590,0.885,-0.755,163.889,97.222,333.333,719.444,30.556,N
503,-0.635,0.825,-0.800,152.778,97.222,322.222,716.667,2.778,N
504,-0.670,0.795,-0.815,161.111,102.778,344.444,716.667,0.000,N
505,-0.700,0.760,-0.825,158.333,97.222,325.000,719.444,2.778,N
506,-0.650,0.815,-0.810,152.778,97.222,333.333,705.556,13.889,N
507,-0.650,0.785,-0.810,166.667,100.000,302.778,716.667,11.111,N
508,-0.690,0.770,-0.860,161.111,100.000,350.000,722.222,5.556,N
509,-0.715,0.785,-0.840,166.667,100.000,330.556,713.889,8.333,N
510,-0.680,0.770,-0.885,155.556,100.000,322.222,708.333,5.556,N
511,-0.725,0.690,-0.885,147.222,97.222,327.778,694.444,13.889,N
512,-0.750,0.660,-0.955,163.889,102.778,347.222,722.222,27.778,N
513,-0.795,0.630,-0.930,158.333,100.000,316.667,705.556,16.667,N
514,-0.770,0.685,-0.885,161.111,100.000,366.667,708.333,2.778,N
515,-0.705,0.770,-0.845,158.333,100.000,358.333,680.556,27.778,N
516,-0.675,0.745,-0.815,152.778,94.444,316.667,697.222,16.667,N
517,-0.665,0.735,-0.830,150.000,100.000,325.000,697.222,0.000,N
518,-0.685,0.760,-0.850,172.222,97.222,336.111,688.889,8.333,N
519,-0.710,0.680,-0.870,152.778,100.000,325.000,683.333,5.556,N
520,-0.705,0.785,-0.825,158.333,102.778,327.778,702.778,19.444,N
521,-0.655,0.770,-0.770,152.778,97.222,319.444,661.111,41.667,N
522,-0.595,0.790,-0.785,161.111,100.000,322.222,677.778,16.667,N
523,-0.645,0.790,-0.750,152.778,100.000,327.778,663.889,13.889,N
524,-0.595,0.805,-0.765,147.222,100.000,316.667,694.444,30.556,N
525,-0.655,0.860,-0.780,158.333,97.222,319.444,641.667,52.778,N
526,-0.670,0.735,-0.815,152.778,97.222,322.222,652.778,11.111,N
527,-0.675,0.740,-0.760,144.444,72.222,83.333,636.111,16.667,N
528,-0.630,0.755,-0.755,161.111,100.000,316.667,680.556,44.444,N
529,-0.665,0.785,-0.830,155.556,97.222,311.111,633.333,47.222,N
530,-0.725,0.765,-0.890,161.111,97.222,327.778,658.333,25.000,N
531,-0.750,0.685,-0.880,152.778,100.000,325.000,630.556,27.778,N
532,-0.710,0.715,-0.815,158.333,100.000,311.111,647.222,16.667,N
533,-0.675,-1.145,0.810,47.222,8.333,111.111,558.333,88.889,|
534,-0.675,0.785,-0.945,161.111,116.667,363.889,113.889,444.444,N
535,-0.945,-1.975,0.420,138.889,0.000,205.556,447.222,333.333,|
536,-0.685,0.390,-0.915,158.333,97.222,355.556,202.778,244.444,N
537,-0.735,0.935,-0.680,150.000,97.222,316.667,636.111,433.333,N
538,-0.500,0.965,-0.620,155.556,100.000,352.778,638.889,2.778,N
539,-0.370,1.250,-0.460,136.111,97.222,302.778,652.778,13.889,N
540,-0.395,1.075,-0.725,141.667,102.778,336.111,636.111,16.667,N
541,-0.600,0.910,-0.740,152.778,100.000,363.889,641.667,5.556,N
542,-0.575,0.860,-0.680,158.333,97.222,311.111,611.111,30.556,N
543,-0.595,0.840,-0.760,144.444,100.000,313.889,638.889,27.778,N
544,-0.675,0.810,-0.790,136.111,97.222,311.111,636.111,2.778,N
545,-0.675,0.790,-0.785,144.444,97.222,322.222,613.889,22.222,N
546,-0.670,0.840,-0.740,136.111,97.222,305.556,616.667,2.778,N
547,-0.620,0.830,-0.760,161.111,100.000,338.889,633.333,16.667,N
548,-0.640,0.790,-0.850,150.000,100.000,322.222,652.778,19.444,N
549,-0.725,0.760,-0.880,152.778,100.000,319.444,636.111,16.667,N
550,-0.755,0.825,-0.845,147.222,100.000,352.778,605.556,30.556,N
551,-0.685,0.765,-0.820,138.889,102.778,319.444,619.444,13.889,N
552,-0.675,0.800,-0.805,158.333,100.000,311.111,650.000,30.556,N
553,-0.695,0.765,-0.860,163.889,100.000,311.111,647.222,2.778,N
554,-0.755,0.760,-0.860,138.889,97.222,300.000,638.889,8.333,N
555,-0.755,0.820,-0.840,144.444,94.444,358.333,602.778,36.111,N
556,-0.710,0.765,-0.795,144.444,100.000,322.222,641.667,38.889,N
557,-0.660,0.775,-0.730,152.778,72.222,83.333,633.333,8.333,N
558,-0.660,0.750,-0.845,141.667,100.000,311.111,650.000,16.667,N
559,-0.735,0.730,-0.830,141.667,100.000,327.778,644.444,5.556,N
560,-0.760,0.720,-0.865,161.111,100.000,338.889,652.778,8.333,N
561,-0.730,0.795,-0.795,150.000,97.222,322.222,652.778,0.000,N
562,-0.695,0.815,-0.815,147.222,97.222,305.556,625.000,27.778,N
563,-0.660,0.840,-0.730,150.000,100.000,322.222,636.111,11.111,N
564,-0.600,0.835,-0.740,147.222,100.000,300.000,663.889,27.778,N
565,-0.660,0.810,-0.775,144.444,102.778,300.000,669.444,5.556,N
566,-0.635,0.815,-0.795,161.111,100.000,316.667,650.000,19.444,N
567,-0.680,0.840,-0.810,150.000,97.222,319.444,663.889,13.889,N
568,-0.670,0.845,-0.820,141.667,97.222,327.778,616.667,47.222,N
569,-0.685,0.780,-0.840,147.222,100.000,297.222,672.222,55.556,N
570,-0.755,0.725,-0.920,158.333,100.000,313.889,655.556,16.667,N
571,-0.800,0.655,-0.935,155.556,97.222,330.556,652.778,2.778,N
572,-0.785,0.665,-0.915,147.222,100.000,327.778,661.111,8.333,N
573,-0.775,0.730,-0.845,166.667,100.000,325.000,677.778,16.667,N
574,-0.700,0.775,-0.805,147.222,100.000,338.889,669.444,8.333,N
575,-0.655,0.820,-0.765,158.333,97.222,330.556,641.667,27.778,N
576,-0.660,0.825,-0.800,133.333,102.778,302.778,672.222,30.556,N
577,-0.690,0.765,-0.840,152.778,102.778,319.444,677.778,5.556,N
578,-0.675,0.830,-0.790,150.000,97.222,341.667,680.556,2.778,N
579,-0.640,0.900,-0.735,155.556,100.000,311.111,672.222,8.333,N
580,-0.570,0.825,-0.735,136.111,94.444,297.222,638.889,33.333,N
581,-0.565,0.870,-0.660,152.778,100.000,316.667,652.778,13.889,N
582,-0.550,0.850,-0.770,158.333,94.444,300.000,680.556,27.778,N
583,-0.625,0.775,-0.855,155.556,100.000,297.222,655.556,25.000,N
584,-0.720,0.725,-0.915,163.889,100.000,311.111,672.222,16.667,N
585,-0.830,0.755,-0.935,175.000,102.778,333.333,680.556,8.333,N
586,-0.780,0.645,-0.935,158.333,100.000,311.111,683.333,2.778,N
587,-0.765,0.740,-0.815,136.111,100.000,316.667,636.111,47.222,N
588,-0.710,0.700,-0.860,161.111,97.222,325.000,686.111,50.000,N
589,-0.715,0.730,-0.850,161.111,102.778,319.444,680.556,5.556,N
590,-0.705,0.785,-0.830,161.111,100.000,311.111,697.222,16.667,N
591,-0.645,0.850,-0.745,158.333,100.000,313.889,669.444,27.778,N
592,-0.650,0.820,-0.755,144.444,97.222,308.333,669.444,0.000,N
593,-0.600,0.745,-0.835,169.444,100.000,300.000,683.333,13.889,N
594,-0.705,0.755,-0.860,163.889,100.000,308.333,691.667,8.333,N
595,-0.720,0.680,-0.860,150.000,72.222,83.333,680.556,11.111,N
596,-0.720,0.710,-0.875,158.333,100.000,313.889,708.333,27.778,N
597,-0.685,0.815,-0.845,150.000,100.000,319.444,694.444,13.889,N
598,-0.690,0.720,-0.835,158.333,97.222,311.111,705.556,11.111,N
599,-0.665,0.760,-0.845,150.000,97.222,288.889,686.111,19.444,N
600,-0.690,0.735,-0.895,152.778,97.222,311.111,686.111,0.000,N
601,-0.735,0.720,-0.890,161.111,102.778,350.000,694.444,8.333,N
602,-0.710,0.810,-0.835,158.333,94.444,311.111,702.778,8.333,N
603,-0.675,0.765,-0.785,141.667,100.000,341.667,680.556,22.222,N
604,-0.595,0.790,-0.785,152.778,97.222,291.667,680.556,0.000,N
605,-0.635,0.830,-0.800,163.889,100.000,319.444,677.778,2.778,N
606,-0.670,0.825,-0.825,163.889,102.778,322.222,697.222,19.444,N
607,-0.690,0.850,-0.820,152.778,97.222,333.333,683.333,13.889,N
608,-0.675,0.815,-0.830,155.556,102.778,361.111,683.333,0.000,N
609,-0.670,0.790,-0.855,169.444,100.000,341.667,711.111,27.778,N
610,-0.725,0.715,-0.890,144.444,97.222,322.222,716.667,5.556,N
611,-0.715,0.785,-0.875,155.556,100.000,316.667,708.333,8.333,N
612,-0.690,0.785,-0.815,155.556,100.000,316.667,700.000,8.333,N
613,-0.640,0.800,-0.840,155.556,100.000,316.667,730.556,30.556,N
614,-0.705,0.770,-0.890,150.000,97.222,308.333,719.444,11.111,N
615,-0.695,0.805,-0.840,172.222,97.222,325.000,738.889,19.444,N
616,-0.705,0.865,-0.820,155.556,100.000,347.222,716.667,22.222,N
617,-0.640,0.895,-0.780,152.778,97.222,297.222,747.222,30.556,N
618,-0.620,0.815,-0.790,155.556,97.222,325.000,708.333,38.889,N
619,-0.640,0.810,-0.825,155.556,100.000,325.000,738.889,30.556,N
620,-0.685,0.835,-0.810,166.667,97.222,336.111,752.778,13.889,N
621,-0.660,0.815,-0.805,152.778,100.000,316.667,752.778,0.000,N
622,-0.680,0.775,-0.855,163.889,100.000,313.889,741.667,11.111,N
623,-0.730,0.700,-0.885,141.667,97.222,330.556,741.667,0.000,N
624,-0.755,0.700,-0.910,172.222,102.778,327.778,769.444,27.778,N
625,-0.745,0.785,-0.885,169.444,100.000,344.444,755.556,13.889,N
626,-0.700,0.820,-0.820,166.667,100.000,355.556,761.111,5.556,N
627,-0.620,0.800,-0.750,150.000,97.222,355.556,725.000,36.111,N
628,-0.615,0.830,-0.825,172.222,100.000,333.333,761.111,36.111,N
629,-0.685,0.785,-0.875,155.556,100.000,322.222,752.778,8.333,N
630,-0.730,0.765,-0.870,161.111,97.222,327.778,755.556,2.778,N
631,-0.695,0.770,-0.825,175.000,105.556,347.222,752.778,2.778,N
632,-0.675,0.740,-0.830,141.667,100.000,316.667,741.667,11.111,N
633,-0.695,0.735,-0.890,172.222,97.222,322.222,730.556,11.111,N
634,-0.750,0.710,-0.900,161.111,100.000,338.889,725.000,5.556,N
635,-0.730,0.740,-0.875,166.667,100.000,350.000,761.111,36.111,N
636,-0.695,0.790,-0.865,169.444,94.444,336.111,744.444,16.667,N
637,-0.655,0.780,-0.845,163.889,100.000,308.333,727.778,16.667,N
638,-0.680,0.770,-0.915,166.667,97.222,344.444,705.556,22.222,N
639,-0.800,0.705,-0.980,150.000,102.778,327.778,741.667,36.111,N
640,-0.825,0.705,-0.780,166.667,97.222,-452438.889,722.222,19.444,N
641,-0.855,0.690,-0.780,150.000,100.000,-453161.111,722.222,0.000,N
642,-0.815,0.685,-0.925,180.556,102.778,361.111,733.333,11.111,N
643,-0.750,0.705,-0.880,166.667,94.444,325.000,716.667,16.667,N
644,-0.680,0.805,-0.885,166.667,100.000,308.333,702.778,13.889,N
645,-0.725,0.775,-0.915,147.222,97.222,322.222,711.111,8.333,N
646,-0.750,0.785,-0.920,163.889,102.778,325.000,713.889,2.778,N
647,-0.765,0.725,-0.920,155.556,97.222,347.222,716.667,2.778,N
648,-0.745,0.780,-0.855,155.556,102.778,327.778,700.000,16.667,N
649,-0.710,0.680,-0.850,155.556,100.000,358.333,677.778,22.222,N
650,-0.640,0.760,-0.835,163.889,97.222,341.667,683.333,5.556,N
651,-0.720,0.680,-0.925,155.556,100.000,322.222,686.111,2.778,N
652,-0.785,0.685,-0.950,155.556,102.778,322.222,697.222,11.111,N
653,-0.790,0.695,-0.945,150.000,100.000,325.000,700.000,2.778,N
654,-0.765,0.780,-0.875,166.667,100.000,350.000,705.556,5.556,N
655,-0.685,0.785,-0.820,161.111,97.222,311.111,705.556,0.000,N
656,-0.655,0.760,-0.810,155.556,102.778,322.222,691.667,13.889,N
657,-0.670,0.745,-0.850,147.222,97.222,322.222,727.778,36.111,N
658,-0.740,0.700,-0.890,172.222,97.222,319.444,766.667,38.889,N
659,-0.695,0.830,-0.830,166.667,100.000,347.222,780.556,13.889,N
660,-0.670,0.785,-0.905,166.667,100.000,330.556,777.778,2.778,N
661,-0.745,0.760,-0.875,155.556,102.778,330.556,755.556,22.222,N
662,-0.670,0.850,-0.820,152.778,100.000,322.222,791.667,36.111,N
663,-0.640,0.835,-0.830,155.556,94.444,308.333,769.444,22.222,N
664,-0.665,0.850,-0.825,163.889,100.000,322.222,772.222,2.778,N
665,-0.635,0.890,-0.850,166.667,102.778,344.444,777.778,5.556,N
666,-0.670,0.870,-0.810,158.333,97.222,322.222,775.000,2.778,N
667,-0.605,0.930,-0.785,161.111,97.222,308.333,755.556,19.444,N
668,-0.590,0.890,-0.795,158.333,100.000,350.000,758.333,2.778,N
669,-0.670,0.810,-0.870,166.667,100.000,333.333,786.111,27.778,N
670,-0.690,0.860,-0.825,172.222,102.778,333.333,763.889,22.222,N
671,-0.605,0.915,-0.740,166.667,100.000,333.333,766.667,2.778,N
672,-0.545,0.920,-0.765,163.889,100.000,336.111,761.111,5.556,N
673,-0.635,0.825,-0.850,152.778,97.222,322.222,755.556,5.556,N
674,-0.705,0.785,-0.860,152.778,100.000,322.222,766.667,11.111,N
675,-0.695,0.885,-0.840,150.000,100.000,327.778,766.667,0.000,N
676,-0.650,0.870,-0.780,158.333,97.222,358.333,761.111,5.556,N
677,-0.635,0.835,-0.805,144.444,100.000,363.889,730.556,30.556,N
678,-0.620,0.830,-0.810,155.556,100.000,327.778,747.222,16.667,N
679,-0.655,0.895,-0.800,158.333,102.778,338.889,741.667,5.556,N
680,-0.595,0.950,-0.765,161.111,97.222,322.222,761.111,19.444,N
681,-0.560,0.920,-0.740,158.333,97.222,380.556,733.333,27.778,N
682,-0.580,0.895,-0.765,163.889,94.444,330.556,716.667,16.667,N
683,-0.595,0.825,-0.775,166.667,75.000,83.333,736.111,19.444,N
684,-0.705,0.795,-0.860,147.222,97.222,330.556,733.333,2.778,N
685,-0.715,0.810,-0.875,150.000,97.222,322.222,736.111,2.778,N
686,-0.685,0.895,-0.795,150.000,100.000,327.778,733.333,2.778,N
687,-0.600,0.880,-0.755,161.111,100.000,350.000,747.222,13.889,N
688,-0.605,0.855,-0.795,144.444,100.000,336.111,713.889,33.333,N
689,-0.675,0.845,-0.885,166.667,100.000,302.778,730.556,16.667,N
690,-0.710,0.810,-0.875,175.000,102.778,336.111,736.111,5.556,N
691,-0.705,0.835,-0.855,161.111,97.222,322.222,752.778,16.667,N
692,-0.670,0.880,-0.790,158.333,97.222,330.556,727.778,25.000,N
693,-0.610,0.935,-0.795,138.889,97.222,333.333,722.222,5.556,N
694,-0.645,0.805,-0.845,158.333,100.000,344.444,719.444,2.778,N
695,-0.700,0.835,-0.835,161.111,97.222,319.444,730.556,11.111,N
696,-0.695,0.830,-0.830,144.444,97.222,330.556,722.222,8.333,N
697,-0.655,0.915,-0.780,172.222,100.000,333.333,730.556,8.333,N
698,-0.580,0.940,-0.720,158.333,100.000,338.889,727.778,2.778,N
699,-0.555,0.945,-0.750,152.778,102.778,302.778,708.333,19.444,N
700,-0.605,0.880,-0.860,158.333,100.000,311.111,722.222,13.889,N
701,-0.725,0.780,-0.915,147.222,97.222,330.556,716.667,5.556,N
702,-0.760,0.735,-0.940,152.778,100.000,361.111,738.889,22.222,N
703,-0.745,0.865,-0.885,166.667,100.000,369.444,716.667,22.222,N
704,-0.685,0.820,-0.835,147.222,102.778,338.889,713.889,2.778,N
705,-0.645,0.890,-0.825,158.333,97.222,347.222,680.556,33.333,N
706,-0.710,0.795,-0.920,175.000,102.778,325.000,722.222,41.667,N
707,-0.770,0.735,-0.955,158.333,100.000,358.333,702.778,19.444,N
708,-0.805,0.725,-0.955,155.556,100.000,316.667,705.556,2.778,N
709,-0.760,0.780,-0.920,155.556,100.000,325.000,697.222,8.333,N
710,-0.735,0.740,-0.870,172.222,100.000,330.556,691.667,5.556,N
711,-0.680,0.795,-0.910,161.111,102.778,338.889,694.444,2.778,N
712,-0.795,0.705,-0.780,150.000,100.000,-505066.667,686.111,8.333,N
713,-0.890,0.620,-0.780,147.222,100.000,-505761.111,694.444,8.333,N
714,-0.825,0.720,-0.965,161.111,97.222,333.333,716.667,22.222,N
715,-0.780,0.795,-0.905,161.111,100.000,316.667,694.444,22.222,N
716,-0.735,0.765,-0.875,161.111,100.000,336.111,675.000,19.444,N
717,-0.755,0.730,-0.955,163.889,100.000,333.333,702.778,27.778,N
718,-0.785,0.710,-0.925,155.556,100.000,316.667,719.444,16.667,N
719,-0.755,0.835,-0.840,158.333,100.000,313.889,702.778,16.667,N
720,-0.670,0.805,-0.805,161.111,100.000,352.778,694.444,8.333,N
721,-0.660,0.795,-0.900,161.111,97.222,336.111,711.111,16.667,N
722,-0.775,0.745,-0.955,150.000,100.000,325.000,716.667,5.556,N
723,-0.790,0.740,-0.940,155.556,100.000,322.222,702.778,13.889,N
724,-0.790,0.835,-0.845,166.667,100.000,341.667,716.667,13.889,N
725,-0.645,0.905,-0.755,172.222,100.000,333.333,708.333,8.333,N
726,-0.580,0.860,-0.735,152.778,100.000,350.000,716.667,8.333,N
727,-0.610,0.890,-0.760,144.444,97.222,333.333,722.222,5.556,N
728,-0.610,0.980,-0.740,161.111,97.222,327.778,727.778,5.556,N
729,-0.550,0.965,-0.700,155.556,97.222,338.889,713.889,13.889,N
730,-0.550,1.005,-0.695,161.111,100.000,327.778,725.000,11.111,N
731,-0.535,0.905,-0.760,161.111,100.000,316.667,719.444,5.556,N
732,-0.595,0.880,-0.755,155.556,100.000,316.667,727.778,8.333,N
733,-0.545,0.970,-0.725,166.667,100.000,341.667,744.444,16.667,N
734,-0.530,1.005,-0.660,144.444,97.222,325.000,744.444,0.000,N
735,-0.475,1.015,-0.670,158.333,97.222,325.000,747.222,2.778,N
736,-0.525,0.915,-0.705,155.556,97.222,352.778,736.111,11.111,N
737,-0.530,1.000,-0.700,175.000,102.778,338.889,791.667,55.556,N
738,-0.515,1.010,-0.715,163.889,97.222,333.333,755.556,36.111,N
739,-0.655,0.785,-0.900,166.667,97.222,297.222,772.222,16.667,N
740,-0.715,0.855,-0.870,172.222,100.000,336.111,763.889,8.333,N
741,-0.635,0.930,-0.835,166.667,100.000,313.889,797.222,33.333,N
742,-0.700,0.845,-0.885,169.444,102.778,330.556,775.000,22.222,N
743,-0.715,0.815,-0.860,147.222,97.222,330.556,802.778,27.778,N
744,-0.675,0.960,-0.810,166.667,97.222,311.111,822.222,19.444,N
745,-0.580,0.950,-0.775,147.222,100.000,325.000,780.556,41.667,N
746,-0.620,0.875,-0.870,147.222,97.222,322.222,766.667,13.889,N
747,-0.715,0.785,-0.900,169.444,105.556,347.222,786.111,19.444,N
748,-0.735,0.760,-0.885,152.778,97.222,325.000,786.111,0.000,N
749,-0.675,0.915,-0.775,166.667,100.000,330.556,797.222,11.111,N
750,-0.565,0.920,-0.700,169.444,100.000,336.111,763.889,33.333,N
751,-0.520,0.855,-0.755,158.333,97.222,325.000,775.000,11.111,N
752,-0.635,0.835,-0.825,166.667,97.222,327.778,766.667,8.333,N
753,-0.675,0.875,-0.810,161.111,97.222,344.444,783.333,16.667,N
754,-0.585,0.995,-0.715,163.889,100.000,347.222,802.778,19.444,N
755,-0.520,0.950,-0.710,169.444,102.778,341.667,808.333,5.556,N
756,-0.545,0.870,-0.790,163.889,102.778,350.000,783.333,25.000,N
757,-0.650,0.850,-0.825,155.556,102.778,383.333,766.667,16.667,N
758,-0.640,0.940,-0.765,166.667,100.000,361.111,805.556,38.889,N
759,-0.550,0.930,-0.810,172.222,100.000,341.667,775.000,30.556,N
760,-0.680,0.810,-0.895,155.556,100.000,333.333,772.222,2.778,N
761,-0.720,0.835,-0.855,172.222,102.778,344.444,761.111,11.111,N
762,-0.605,0.950,-0.735,169.444,97.222,330.556,772.222,11.111,N
763,-0.550,0.920,-0.760,150.000,97.222,322.222,741.667,30.556,N
764,-0.630,0.830,-0.895,163.889,97.222,369.444,752.778,11.111,N
765,-0.755,0.780,-0.945,169.444,100.000,325.000,777.778,25.000,N
766,-0.770,0.765,-0.900,152.778,100.000,341.667,747.222,30.556,N
767,-0.685,0.885,-0.795,163.889,97.222,341.667,738.889,8.333,N
768,-0.590,0.860,-0.770,163.889,97.222,341.667,733.333,5.556,N
769,-0.640,0.815,-0.880,152.778,97.222,350.000,758.333,25.000,N
770,-0.750,0.815,-0.915,175.000,102.778,341.667,750.000,8.333,N
771,-0.715,0.870,-0.835,155.556,97.222,341.667,755.556,5.556,N
772,-0.640,0.850,-0.875,158.333,100.000,350.000,769.444,13.889,N
773,-0.720,0.815,-0.995,158.333,100.000,316.667,766.667,2.778,N
774,-0.780,0.375,-0.780,551688.889,97.222,-551650.000,775.000,8.333,N
775,-0.780,0.500,-0.780,552477.778,100.000,-552436.111,788.889,13.889,N
776,-0.960,0.650,-0.780,177.778,100.000,-553222.222,786.111,2.778,N
777,-0.890,0.745,-0.890,155.556,102.778,358.333,777.778,8.333,N
778,-0.635,0.955,-0.750,169.444,102.778,352.778,777.778,0.000,N
779,-0.515,1.005,-0.670,172.222,100.000,341.667,775.000,2.778,N
780,-0.510,1.020,-0.705,175.000,97.222,325.000,769.444,5.556,N
781,-0.520,1.010,-0.660,163.889,97.222,344.444,788.889,19.444,N
782,-0.505,1.010,-0.625,161.111,97.222,350.000,758.333,30.556,N
783,-0.445,1.095,-0.590,150.000,97.222,322.222,763.889,5.556,N
784,-0.430,1.050,-0.680,166.667,100.000,336.111,750.000,13.889,N
785,-0.575,0.900,-0.785,152.778,102.778,327.778,747.222,2.778,N
786,-0.630,0.860,-0.760,155.556,102.778,355.556,777.778,30.556,N
787,-0.590,0.925,-0.700,158.333,97.222,336.111,777.778,0.000,N
788,-0.515,0.930,-0.705,169.444,97.222,333.333,741.667,36.111,N
789,-0.560,0.830,-0.800,172.222,97.222,336.111,736.111,5.556,N
790,-0.705,0.730,-0.940,166.667,100.000,350.000,780.556,44.444,N
791,-0.790,0.700,-0.950,172.222,97.222,325.000,755.556,25.000,N
792,-0.745,0.815,-0.860,163.889,100.000,338.889,761.111,5.556,N
793,-0.630,0.875,-0.770,158.333,100.000,347.222,752.778,8.333,N
794,-0.620,0.845,-0.840,166.667,100.000,336.111,752.778,0.000,N
795,-0.690,0.785,-0.875,158.333,97.222,325.000,747.222,5.556,N
796,-0.700,0.790,-0.860,166.667,100.000,380.556,772.222,25.000,N
797,-0.670,0.860,-0.825,177.778,102.778,336.111,788.889,16.667,N
798,-0.620,0.865,-0.785,172.222,100.000,338.889,758.333,30.556,N
799,-0.630,0.820,-0.870,161.111,97.222,325.000,755.556,2.778,N
800,-0.700,0.775,-0.870,175.000,100.000,341.667,780.556,25.000,N
801,-0.710,0.835,-0.875,163.889,102.778,327.778,783.333,2.778,N
802,-0.675,0.830,-0.860,158.333,100.000,355.556,766.667,16.667,N
803,-0.705,0.725,-0.885,150.000,97.222,347.222,763.889,2.778,N
804,-0.705,0.770,-0.825,158.333,100.000,347.222,769.444,5.556,N
805,-0.640,0.930,-0.745,163.889,97.222,341.667,766.667,2.778,N
806,-0.575,0.890,-0.735,172.222,100.000,363.889,755.556,11.111,N
807,-0.605,0.875,-0.840,163.889,102.778,350.000,755.556,0.000,N
808,-0.730,0.745,-0.905,163.889,97.222,358.333,780.556,25.000,N
809,-0.725,0.820,-0.865,172.222,94.444,338.889,761.111,19.444,N
810,-0.660,0.835,-0.825,161.111,100.000,347.222,752.778,8.333,N
811,-0.715,0.775,-0.905,161.111,100.000,344.444,772.222,19.444,N
812,-0.735,0.760,-0.895,166.667,97.222,336.111,772.222,0.000,N
813,-0.675,0.895,-0.765,163.889,97.222,336.111,794.444,22.222,N
814,-0.530,1.045,-0.675,166.667,100.000,350.000,800.000,5.556,N
815,-0.545,0.965,-0.730,163.889,97.222,319.444,827.778,27.778,N
816,-0.580,0.935,-0.805,183.333,97.222,352.778,797.222,30.556,N
817,-0.690,0.915,-0.845,169.444,100.000,341.667,808.333,11.111,N
818,-0.675,0.850,-0.905,172.222,100.000,330.556,819.444,11.111,N
819,-0.745,0.760,-0.935,166.667,97.222,338.889,786.111,33.333,N
820,-0.770,0.770,-0.970,163.889,97.222,305.556,800.000,13.889,N
821,-0.755,0.745,-0.935,186.111,100.000,358.333,791.667,8.333,N
822,-0.725,0.745,-0.930,172.222,100.000,336.111,783.333,8.333,N
823,-0.810,0.720,-0.780,166.667,100.000,-589533.333,755.556,27.778,N
824,-0.840,0.690,-0.780,150.000,97.222,-590294.444,758.333,2.778,N
825,-0.850,0.710,-0.935,152.778,97.222,352.778,769.444,11.111,N
826,-0.765,0.765,-0.930,172.222,100.000,341.667,747.222,22.222,N
827,-0.770,0.710,-0.950,172.222,102.778,338.889,744.444,2.778,N
828,-0.790,0.755,-0.975,172.222,100.000,344.444,761.111,16.667,N
829,-0.810,0.760,-0.965,180.556,100.000,319.444,777.778,16.667,N
830,-0.775,0.780,-0.910,166.667,100.000,352.778,747.222,30.556,N
831,-0.740,0.740,-0.950,163.889,97.222,336.111,744.444,2.778,N
832,-0.795,0.655,-0.995,183.333,100.000,361.111,772.222,27.778,N
833,-0.835,0.750,-0.955,163.889,100.000,330.556,769.444,2.778,N
834,-0.765,0.770,-0.945,177.778,100.000,330.556,772.222,2.778,N
835,-0.720,0.745,-0.920,152.778,100.000,363.889,733.333,38.889,N
836,-0.785,0.790,-0.960,175.000,100.000,344.444,788.889,55.556,N
837,-0.785,0.790,-0.950,172.222,100.000,352.778,761.111,27.778,N
838,-0.740,0.800,-0.895,172.222,100.000,336.111,747.222,13.889,N
839,-0.735,0.735,-0.965,172.222,100.000,369.444,758.333,11.111,N
840,-0.835,0.690,-0.780,172.222,97.222,-602452.778,766.667,8.333,N
841,-0.825,0.705,-0.935,172.222,97.222,325.000,741.667,25.000,N
842,-0.735,0.720,-0.955,161.111,97.222,377.778,719.444,22.222,N
843,-0.790,0.680,-0.985,175.000,100.000,336.111,777.778,58.333,N
844,-0.815,0.720,-0.990,166.667,100.000,341.667,758.333,19.444,N
845,-0.830,0.730,-0.965,150.000,100.000,322.222,755.556,2.778,N
846,-0.800,0.740,-0.965,169.444,102.778,372.222,716.667,38.889,N
847,-0.820,0.715,-0.930,150.000,100.000,333.333,747.222,30.556,N
848,-0.760,0.810,-0.860,172.222,100.000,327.778,730.556,16.667,N
849,-0.690,0.795,-0.825,180.556,97.222,361.111,736.111,5.556,N
850,-0.665,0.775,-0.830,155.556,100.000,352.778,738.889,2.778,N
851,-0.685,0.840,-0.860,158.333,97.222,344.444,736.111,2.778,N
852,-0.685,0.875,-0.825,172.222,102.778,358.333,730.556,5.556,N
853,-0.640,0.890,-0.805,163.889,97.222,341.667,708.333,22.222,N
854,-0.640,0.825,-0.805,177.778,100.000,325.000,719.444,11.111,N
855,-0.615,0.890,-0.820,163.889,97.222,341.667,719.444,0.000,N
856,-0.685,0.815,-0.860,152.778,100.000,333.333,713.889,5.556,N
857,-0.730,0.825,-0.875,163.889,94.444,336.111,688.889,25.000,N
858,-0.700,0.755,-0.890,155.556,102.778,358.333,688.889,0.000,N
859,-0.735,0.740,-0.840,172.222,102.778,338.889,683.333,5.556,N
860,-0.665,0.815,-0.870,161.111,100.000,352.778,694.444,11.111,N
861,-0.735,0.695,-0.925,161.111,100.000,319.444,688.889,5.556,N
862,-0.800,0.705,-0.950,155.556,100.000,350.000,700.000,11.111,N
863,-0.760,0.740,-0.880,144.444,97.222,338.889,691.667,8.333,N
864,-0.725,0.735,-0.815,163.889,97.222,338.889,663.889,27.778,N
865,-0.650,0.770,-0.890,158.333,97.222,352.778,686.111,22.222,N
866,-0.745,0.735,-0.970,155.556,100.000,352.778,697.222,11.111,N
867,-0.820,0.640,-0.965,150.000,97.222,344.444,697.222,0.000,N
868,-0.775,0.765,-0.900,161.111,100.000,336.111,680.556,16.667,N
869,-0.710,0.660,-0.835,155.556,97.222,319.444,652.778,27.778,N
870,-0.665,0.785,-0.895,166.667,100.000,338.889,683.333,30.556,N
871,-0.765,0.685,-0.950,155.556,97.222,327.778,680.556,2.778,N
872,-0.830,0.655,-0.990,155.556,97.222,311.111,666.667,13.889,N
873,-0.820,0.715,-0.960,150.000,100.000,350.000,675.000,8.333,N
874,-0.805,0.675,-0.875,155.556,100.000,330.556,655.556,19.444,N
875,-0.695,0.785,-0.865,163.889,100.000,319.444,683.333,27.778,N
876,-0.725,0.725,-0.865,152.778,100.000,319.444,663.889,19.444,N
877,-0.725,0.765,-0.835,166.667,100.000,336.111,680.556,16.667,N
878,-0.665,0.855,-0.780,158.333,100.000,327.778,688.889,8.333,N
879,-0.575,0.865,-0.740,161.111,100.000,325.000,702.778,13.889,N
880,-0.570,0.835,-0.760,155.556,102.778,363.889,691.667,11.111,N
881,-0.665,0.795,-0.865,152.778,97.222,316.667,708.333,16.667,N
882,-0.740,0.760,-0.855,158.333,100.000,361.111,691.667,16.667,N
883,-0.680,0.805,-0.825,166.667,100.000,347.222,716.667,25.000,N
884,-0.670,0.790,-0.865,152.778,100.000,330.556,711.111,5.556,N
885,-0.740,0.785,-0.895,163.889,97.222,341.667,719.444,8.333,N
886,-0.760,0.790,-0.885,155.556,100.000,344.444,730.556,11.111,N
887,-0.690,0.830,-0.770,144.444,100.000,333.333,719.444,11.111,N
888,-0.605,0.840,-0.735,144.444,97.222,327.778,700.000,19.444,N
889,-0.625,0.870,-0.800,152.778,100.000,322.222,702.778,2.778,N
890,-0.660,0.845,-0.850,169.444,102.778,347.222,725.000,22.222,N
891,-0.650,0.850,-0.800,155.556,97.222,316.667,713.889,11.111,N
892,-0.610,0.880,-0.785,161.111,100.000,344.444,711.111,2.778,N
893,-0.615,0.835,-0.785,147.222,97.222,327.778,686.111,25.000,N
894,-0.630,0.800,-0.805,163.889,100.000,341.667,722.222,36.111,N
895,-0.685,0.780,-0.905,152.778,97.222,330.556,702.778,19.444,N
896,-0.740,0.750,-0.920,155.556,100.000,352.778,716.667,13.889,N
897,-0.770,0.795,-0.900,172.222,100.000,366.667,719.444,2.778,N
898,-0.755,0.755,-0.935,172.222,100.000,336.111,736.111,16.667,N
899,-0.760,0.725,-0.920,161.111,97.222,341.667,719.444,16.667,N
900,-0.740,0.815,-0.870,152.778,97.222,350.000,727.778,8.333,N
901,-0.680,0.825,-0.840,169.444,97.222,319.444,736.111,8.333,N
902,-0.655,0.805,-0.860,158.333,100.000,338.889,738.889,2.778,N
903,-0.695,0.740,-0.910,161.111,102.778,355.556,730.556,8.333,N
904,-0.745,0.780,-0.910,144.444,100.000,330.556,744.444,13.889,N
905,-0.750,0.795,-0.875,150.000,100.000,325.000,744.444,0.000,N
906,-0.675,0.800,-0.870,152.778,100.000,355.556,736.111,8.333,N
907,-0.710,0.735,-0.875,152.778,100.000,322.222,736.111,0.000,N
908,-0.735,0.705,-0.955,158.333,97.222,316.667,733.333,2.778,N
909,-0.770,0.750,-0.940,161.111,97.222,313.889,744.444,11.111,N
910,-0.785,0.735,-0.880,150.000,100.000,330.556,752.778,8.333,N
911,-0.695,0.835,-0.835,152.778,102.778,352.778,772.222,19.444,N
912,-0.635,0.865,-0.795,172.222,100.000,341.667,744.444,27.778,N
913,-0.645,0.840,-0.820,152.778,97.222,336.111,777.778,33.333,N
914,-0.665,0.815,-0.830,172.222,100.000,327.778,766.667,11.111,N
915,-0.635,0.930,-0.755,138.889,97.222,325.000,736.111,30.556,N
916,-0.530,0.950,-0.700,155.556,100.000,347.222,750.000,13.889,N
917,-0.580,0.885,-0.795,163.889,97.222,330.556,750.000,0.000,N
918,-0.650,0.845,-0.835,155.556,100.000,386.111,744.444,5.556,N
919,-0.645,0.900,-0.810,172.222,102.778,338.889,752.778,8.333,N
920,-0.595,0.930,-0.795,166.667,100.000,341.667,763.889,11.111,N
921,-0.590,0.865,-0.815,155.556,100.000,327.778,725.000,38.889,N
922,-0.680,0.810,-0.885,158.333,100.000,333.333,744.444,19.444,N
923,-0.710,0.805,-0.865,161.111,100.000,350.000,755.556,11.111,N
924,-0.680,0.880,-0.845,150.000,100.000,333.333,741.667,13.889,N
925,-0.675,0.810,-0.845,175.000,97.222,350.000,716.667,25.000,N
926,-0.700,0.875,-0.860,147.222,100.000,336.111,722.222,5.556,N
927,-0.690,0.840,-0.855,166.667,100.000,344.444,727.778,5.556,N
928,-0.680,0.875,-0.820,152.778,100.000,322.222,719.444,8.333,N
929,-0.630,0.845,-0.820,161.111,100.000,313.889,713.889,5.556,N
930,-0.660,0.855,-0.850,161.111,100.000,338.889,733.333,19.444,N
931,-0.650,0.815,-0.840,161.111,97.222,347.222,730.556,2.778,N
932,-0.680,0.890,-0.840,152.778,97.222,358.333,727.778,2.778,N
933,-0.650,0.840,-0.805,158.333,100.000,330.556,730.556,2.778,N
934,-0.650,0.840,-0.805,155.556,100.000,350.000,713.889,16.667,N
935,-0.665,0.830,-0.845,169.444,97.222,325.000,747.222,33.333,N
936,-0.695,0.850,-0.835,161.111,100.000,350.000,716.667,30.556,N
937,-0.680,0.895,-0.805,150.000,97.222,325.000,722.222,5.556,N
938,-0.620,0.880,-0.740,147.222,97.222,358.333,697.222,25.000,N
939,-0.560,0.950,-0.735,166.667,100.000,341.667,719.444,22.222,N
940,-0.600,0.875,-0.825,150.000,100.000,322.222,719.444,0.000,N
941,-0.670,0.870,-0.830,155.556,97.222,319.444,711.111,8.333,N
942,-0.645,0.885,-0.805,158.333,100.000,355.556,730.556,19.444,N
943,-0.650,0.975,-0.770,147.222,94.444,352.778,733.333,2.778,N
944,-0.600,0.935,-0.730,144.444,97.222,325.000,722.222,11.111,N
945,-0.575,0.840,-0.790,155.556,97.222,319.444,711.111,11.111,N
946,-0.675,0.870,-0.870,172.222,102.778,347.222,750.000,38.889,N
947,-0.720,0.820,-0.880,166.667,100.000,327.778,727.778,22.222,N
948,-0.660,0.905,-0.760,150.000,97.222,352.778,722.222,5.556,N
949,-0.595,0.935,-0.725,161.111,100.000,352.778,702.778,19.444,N
950,-0.590,0.930,-0.805,158.333,97.222,325.000,730.556,27.778,N
951,-0.640,0.875,-0.800,155.556,100.000,344.444,711.111,19.444,N
952,-0.625,0.915,-0.760,175.000,100.000,338.889,713.889,2.778,N
953,-0.595,0.855,-0.760,152.778,97.222,325.000,705.556,8.333,N
954,-0.635,0.855,-0.790,161.111,100.000,325.000,702.778,2.778,N
955,-0.675,0.820,-0.865,166.667,100.000,344.444,683.333,19.444,N
956,-0.685,0.700,-0.925,155.556,100.000,322.222,688.889,5.556,N
957,-0.770,0.790,-0.780,163.889,100.000,-686475.000,677.778,11.111,N
958,-0.765,0.865,-0.905,163.889,100.000,311.111,663.889,13.889,N
959,-0.735,0.775,-0.895,163.889,100.000,372.222,672.222,8.333,N
960,-0.725,0.830,-0.965,144.444,94.444,311.111,666.667,5.556,N
961,-0.810,0.815,-0.780,161.111,100.000,-689108.333,630.556,36.111,N
962,-0.890,0.685,-0.905,147.222,97.222,361.111,650.000,19.444,N
963,-0.720,0.835,-0.825,152.778,100.000,313.889,641.667,8.333,N
964,-0.670,0.845,-0.805,169.444,100.000,308.333,650.000,8.333,N
965,-0.665,0.815,-0.855,161.111,100.000,322.222,647.222,2.778,N
966,-0.720,0.785,-0.865,158.333,97.222,319.444,675.000,27.778,N
967,-0.685,0.885,-0.790,158.333,100.000,325.000,636.111,38.889,N
968,-0.645,0.835,-0.755,144.444,100.000,327.778,644.444,8.333,N
969,-0.620,0.755,-0.795,150.000,97.222,325.000,647.222,2.778,N
970,-0.645,0.800,-0.820,175.000,102.778,336.111,688.889,41.667,N
971,-0.680,0.810,-0.835,141.667,97.222,313.889,658.333,30.556,N
972,-0.700,0.860,-0.760,136.111,100.000,308.333,669.444,11.111,N
973,-0.620,0.870,-0.685,136.111,100.000,308.333,630.556,38.889,N
974,-0.560,0.835,-0.795,150.000,97.222,319.444,688.889,58.333,N
975,-0.700,0.750,-0.885,150.000,100.000,319.444,669.444,19.444,N
976,-0.740,0.700,-0.880,155.556,100.000,322.222,666.667,2.778,N
977,-0.745,0.775,-0.870,155.556,97.222,313.889,672.222,5.556,N
978,-0.690,0.800,-0.775,155.556,100.000,330.556,688.889,16.667,N
979,-0.615,0.840,-0.655,138.889,100.000,311.111,658.333,30.556,N
980,-0.545,0.880,-0.755,152.778,100.000,316.667,683.333,25.000,N
981,-0.645,0.820,-0.810,158.333,100.000,319.444,672.222,11.111,N
982,-0.680,0.795,-0.840,158.333,102.778,319.444,697.222,25.000,N
983,-0.705,0.825,-0.810,144.444,100.000,308.333,677.778,19.444,N
984,-0.655,0.855,-0.780,144.444,100.000,330.556,677.778,0.000,N
985,-0.615,0.860,-0.755,147.222,100.000,319.444,675.000,2.778,N
986,-0.650,0.805,-0.825,152.778,97.222,325.000,694.444,19.444,N
987,-0.715,0.780,-0.865,158.333,100.000,336.111,686.111,8.333,N
988,-0.730,0.805,-0.850,163.889,97.222,344.444,697.222,11.111,N
989,-0.680,0.845,-0.810,155.556,100.000,322.222,694.444,2.778,N
990,-0.670,0.880,-0.795,158.333,100.000,338.889,711.111,16.667,N
991,-0.630,0.850,-0.790,150.000,94.444,344.444,691.667,19.444,N
992,-0.670,0.800,-0.865,158.333,100.000,338.889,711.111,19.444,N
993,-0.715,0.760,-0.905,161.111,97.222,344.444,691.667,19.444,N
994,-0.745,0.725,-0.890,150.000,100.000,330.556,716.667,25.000,N
995,-0.725,0.795,-0.860,163.889,100.000,369.444,694.444,22.222,N
996,-0.690,0.790,-0.830,144.444,100.000,330.556,705.556,11.111,N
997,-0.625,0.795,-0.835,150.000,97.222,322.222,675.000,30.556,N
998,-0.675,0.795,-0.895,166.667,97.222,330.556,722.222,47.222,N
999,-0.725,0.755,-0.845,147.222,100.000,330.556,705.556,16.667,N
1000,-0.675,0.865,-0.810,144.444,97.222,330.556,702.778,2.778,N
1001,-0.635,0.825,-0.755,163.889,100.000,352.778,713.889,11.111,N
1002,-0.565,0.820,-0.765,155.556,100.000,319.444,730.556,16.667,N
1003,-0.635,0.815,-0.840,169.444,100.000,302.778,716.667,13.889,N
1004,-0.670,0.790,-0.855,158.333,97.222,313.889,713.889,2.778,N
1005,-0.700,0.785,-0.865,152.778,100.000,358.333,730.556,16.667,N
1006,-0.660,0.840,-0.790,155.556,100.000,350.000,741.667,11.111,N
1007,-0.645,0.800,-0.775,147.222,72.222,80.556,722.222,19.444,N
1008,-0.620,0.820,-0.785,152.778,100.000,311.111,716.667,5.556,N
1009,-0.655,0.785,-0.850,158.333,100.000,350.000,727.778,11.111,N
1010,-0.720,0.770,-0.870,147.222,97.222,330.556,719.444,8.333,N
1011,-0.730,0.865,-0.845,152.778,102.778,341.667,725.000,5.556,N
1012,-0.675,0.780,-0.840,155.556,97.222,352.778,722.222,2.778,N
1013,-0.670,0.725,-0.830,155.556,100.000,325.000,727.778,5.556,N
1014,-0.735,0.735,-0.905,150.000,97.222,336.111,725.000,2.778,N
1015,-0.765,0.720,-0.965,163.889,102.778,344.444,727.778,2.778,N
1016,-0.820,0.710,-0.950,150.000,97.222,319.444,716.667,11.111,N
1017,-0.745,0.690,-0.900,147.222,100.000,330.556,727.778,11.111,N
1018,-0.690,0.715,-0.860,147.222,100.000,319.444,705.556,22.222,N
1019,-0.720,0.730,-0.920,147.222,100.000,330.556,727.778,22.222,N
1020,-0.755,0.745,-0.910,141.667,102.778,336.111,697.222,30.556,N
1021,-0.740,0.795,-0.915,166.667,94.444,336.111,727.778,30.556,N
1022,-0.760,0.770,-0.895,147.222,100.000,327.778,716.667,11.111,N
1023,-0.690,0.760,-0.845,158.333,100.000,347.222,711.111,5.556,N
1024,-0.665,0.780,-0.845,147.222,97.222,333.333,713.889,2.778,N
1025,-0.710,0.765,-0.890,158.333,102.778,325.000,741.667,27.778,N
1026,-0.735,0.785,-0.890,163.889,100.000,308.333,719.444,22.222,N
1027,-0.705,0.865,-0.805,147.222,97.222,352.778,711.111,8.333,N
1028,-0.625,0.855,-0.760,144.444,100.000,338.889,730.556,19.444,N
1029,-0.590,0.835,-0.820,150.000,97.222,358.333,736.111,5.556,N
1030,-0.695,0.820,-0.855,150.000,100.000,333.333,733.333,2.778,N
1031,-0.735,0.785,-0.870,152.778,97.222,322.222,736.111,2.778,N
1032,-0.670,0.915,-0.800,172.222,100.000,338.889,755.556,19.444,N
1033,-0.600,0.905,-0.740,147.222,97.222,325.000,738.889,16.667,N
1034,-0.570,0.905,-0.775,163.889,100.000,366.667,733.333,5.556,N
1035,-0.610,0.915,-0.775,163.889,97.222,333.333,755.556,22.222,N
1036,-0.620,0.905,-0.785,158.333,102.778,322.222,763.889,8.333,N
1037,-0.605,0.945,-0.770,163.889,97.222,344.444,738.889,25.000,N
1038,-0.625,0.905,-0.785,150.000,97.222,327.778,744.444,5.556,N
1039,-0.590,0.880,-0.780,169.444,100.000,338.889,763.889,19.444,N
1040,-0.655,0.880,-0.805,150.000,100.000,341.667,769.444,5.556,N
1041,-0.620,0.930,-0.810,172.222,100.000,375.000,761.111,8.333,N
1042,-0.630,0.910,-0.785,161.111,97.222,350.000,755.556,5.556,N
1043,-0.635,0.825,-0.825,175.000,100.000,330.556,758.333,2.778,N
1044,-0.680,0.830,-0.875,169.444,100.000,333.333,758.333,0.000,N
1045,-0.730,0.770,-0.880,147.222,97.222,325.000,772.222,13.889,N
1046,-0.700,0.835,-0.840,150.000,97.222,350.000,769.444,2.778,N
1047,-0.620,0.915,-0.800,158.333,97.222,316.667,802.778,33.333,N
1048,-0.615,0.890,-0.760,158.333,97.222,350.000,769.444,33.333,N
1049,-0.625,0.865,-0.865,158.333,97.222,325.000,766.667,2.778,N
1050,-0.695,0.825,-0.880,166.667,102.778,372.222,786.111,19.444,N
1051,-0.715,0.845,-0.875,155.556,100.000,352.778,786.111,0.000,N
1052,-0.640,0.870,-0.825,161.111,100.000,336.111,775.000,11.111,N
1053,-0.635,0.810,-0.835,152.778,97.222,327.778,752.778,22.222,N
1054,-0.660,0.830,-0.910,166.667,100.000,338.889,783.333,30.556,N
1055,-0.735,0.790,-0.925,161.111,97.222,347.222,752.778,30.556,N
1056,-0.735,0.800,-0.920,158.333,100.000,358.333,766.667,13.889,N
1057,-0.720,0.870,-0.890,166.667,97.222,338.889,786.111,19.444,N
1058,-0.680,0.810,-0.855,166.667,97.222,327.778,769.444,16.667,N
1059,-0.695,0.790,-0.895,169.444,97.222,330.556,766.667,2.778,N
1060,-0.705,0.835,-0.885,163.889,100.000,347.222,791.667,25.000,N
1061,-0.720,0.835,-0.855,155.556,97.222,327.778,850.000,58.333,N
1062,-0.680,0.855,-0.830,161.111,102.778,350.000,816.667,33.333,N
1063,-0.695,0.810,-0.930,158.333,100.000,316.667,797.222,19.444,N
1064,-0.770,0.770,-0.975,166.667,102.778,352.778,802.778,5.556,N
1065,-0.800,0.785,-0.980,158.333,102.778,341.667,802.778,0.000,N
1066,-0.755,0.825,-0.920,172.222,102.778,336.111,808.333,5.556,N
1067,-0.700,0.800,-0.870,158.333,100.000,350.000,786.111,22.222,N
1068,-0.695,0.795,-0.885,163.889,100.000,327.778,783.333,2.778,N
1069,-0.735,0.770,-0.935,158.333,100.000,352.778,780.556,2.778,N
1070,-0.745,0.770,-0.935,155.556,97.222,386.111,769.444,11.111,N
1071,-0.720,0.835,-0.885,177.778,100.000,386.111,791.667,22.222,N
1072,-0.680,0.815,-0.850,166.667,100.000,341.667,750.000,41.667,N
1073,-0.695,0.805,-0.930,150.000,94.444,311.111,752.778,2.778,N
1074,-0.770,0.720,-0.945,155.556,100.000,322.222,733.333,19.444,N
1075,-0.745,0.805,-0.915,163.889,100.000,338.889,752.778,19.444,N
1076,-0.725,0.865,-0.835,144.444,97.222,336.111,741.667,11.111,N
1077,-0.630,0.870,-0.770,169.444,102.778,336.111,730.556,11.111,N
1078,-0.605,0.865,-0.835,158.333,100.000,350.000,750.000,19.444,N
1079,-0.690,0.825,-0.890,161.111,97.222,338.889,772.222,22.222,N
1080,-0.695,0.885,-0.865,155.556,97.222,380.556,761.111,11.111,N
1081,-0.660,0.850,-0.810,161.111,100.000,355.556,763.889,2.778,N
1082,-0.655,0.775,-0.870,177.778,102.778,336.111,788.889,25.000,N
1083,-0.720,0.795,-0.890,172.222,100.000,361.111,766.667,22.222,N
1084,-0.675,0.855,-0.880,158.333,94.444,313.889,783.333,16.667,N
1085,-0.690,0.805,-0.890,175.000,94.444,355.556,752.778,30.556,N
1086,-0.705,0.840,-0.855,166.667,100.000,333.333,769.444,16.667,N
1087,-0.675,0.855,-0.810,163.889,100.000,344.444,783.333,13.889,N
1088,-0.600,0.925,-0.750,155.556,100.000,355.556,791.667,8.333,N
1089,-0.570,0.920,-0.775,166.667,100.000,344.444,783.333,8.333,N
1090,-0.580,0.895,-0.785,161.111,97.222,344.444,758.333,25.000,N
1091,-0.635,0.850,-0.855,155.556,100.000,327.778,761.111,2.778,N
1092,-0.690,0.785,-0.870,152.778,100.000,355.556,763.889,2.778,N
1093,-0.715,0.865,-0.840,166.667,100.000,341.667,775.000,11.111,N
1094,-0.675,0.825,-0.785,180.556,100.000,327.778,752.778,22.222,N
1095,-0.620,0.855,-0.820,150.000,97.222,325.000,738.889,13.889,N
1096,-0.695,0.855,-0.870,169.444,100.000,338.889,752.778,13.889,N
1097,-0.675,0.860,-0.840,161.111,97.222,344.444,758.333,5.556,N
1098,-0.645,0.960,-0.725,152.778,100.000,344.444,758.333,0.000,N
1099,-0.530,0.940,-0.685,158.333,102.778,344.444,747.222,11.111,N
1100,-0.565,0.890,-0.735,169.444,97.222,325.000,747.222,0.000,N
1101,-0.610,0.840,-0.795,152.778,100.000,333.333,736.111,11.111,N
1102,-0.620,0.885,-0.750,155.556,100.000,361.111,736.111,0.000,N
1103,-0.575,0.980,-0.740,169.444,100.000,347.222,750.000,13.889,N
1104,-0.595,0.915,-0.815,155.556,97.222,347.222,758.333,8.333,N
1105,-0.640,0.745,-0.800,150.000,97.222,325.000,725.000,33.333,N
1106,-0.710,0.755,-0.865,147.222,91.667,325.000,727.778,2.778,N
1107,-0.735,0.750,-0.890,166.667,102.778,375.000,763.889,36.111,N
1108,-0.710,0.770,-0.840,155.556,97.222,325.000,738.889,25.000,N
1109,-0.645,0.840,-0.790,155.556,100.000,355.556,744.444,5.556,N
1110,-0.635,0.795,-0.770,172.222,100.000,341.667,755.556,11.111,N
1111,-0.615,0.845,-0.820,169.444,97.222,327.778,761.111,5.556,N
1112,-0.690,0.745,-0.850,150.000,97.222,327.778,738.889,22.222,N
1113,-0.690,0.815,-0.815,158.333,97.222,333.333,763.889,25.000,N
1114,-0.655,0.810,-0.805,172.222,100.000,338.889,766.667,2.778,N
1115,-0.625,0.805,-0.770,155.556,97.222,355.556,741.667,25.000,N
1116,-0.635,0.850,-0.775,175.000,100.000,333.333,761.111,19.444,N
1117,-0.630,0.860,-0.785,161.111,102.778,347.222,727.778,33.333,N
1118,-0.670,0.860,-0.830,152.778,100.000,322.222,758.333,30.556,N
1119,-0.625,0.845,-0.710,152.778,94.444,338.889,733.333,25.000,N
1120,-0.570,0.870,-0.750,166.667,100.000,313.889,738.889,5.556,N
1121,-0.600,0.885,-0.735,169.444,102.778,336.111,744.444,5.556,N
1122,-0.550,0.915,-0.735,166.667,97.222,341.667,788.889,44.444,N
1123,-0.585,0.925,-0.730,163.889,97.222,336.111,766.667,22.222,N
1124,-0.595,0.915,-0.740,152.778,97.222,350.000,758.333,8.333,N
1125,-0.550,0.875,-0.740,166.667,100.000,338.889,780.556,22.222,N
1126,-0.580,0.845,-0.765,169.444,97.222,330.556,741.667,38.889,N
1127,-0.650,0.795,-0.815,166.667,97.222,338.889,763.889,22.222,N
1128,-0.685,0.785,-0.855,169.444,100.000,366.667,736.111,27.778,N
1129,-0.695,0.835,-0.870,163.889,102.778,369.444,766.667,30.556,N
1130,-0.690,0.855,-0.840,169.444,100.000,361.111,738.889,27.778,N
1131,-0.675,0.765,-0.825,163.889,97.222,330.556,730.556,8.333,N
1132,-0.675,0.740,-0.850,172.222,100.000,355.556,738.889,8.333,N
1133,-0.685,0.785,-0.855,155.556,100.000,313.889,744.444,5.556,N
1134,-0.680,0.775,-0.850,158.333,100.000,350.000,730.556,13.889,N
1135,-0.680,0.855,-0.825,155.556,97.222,341.667,741.667,11.111,N
1136,-0.665,0.820,-0.815,161.111,100.000,336.111,777.778,36.111,N
1137,-0.645,0.775,-0.800,152.778,100.000,366.667,738.889,38.889,N
1138,-0.655,0.790,-0.805,152.778,97.222,322.222,772.222,33.333,N
1139,-0.665,0.850,-0.865,172.222,100.000,341.667,783.333,11.111,N
1140,-0.685,0.845,-0.860,163.889,100.000,338.889,800.000,16.667,N
1141,-0.685,0.790,-0.845,175.000,97.222,358.333,783.333,16.667,N
1142,-0.680,0.815,-0.890,163.889,97.222,344.444,783.333,0.000,N
1143,-0.740,0.790,-0.920,172.222,102.778,333.333,808.333,25.000,N
1144,-0.760,0.785,-0.935,169.444,100.000,341.667,791.667,16.667,N
1145,-0.755,0.775,-0.915,172.222,100.000,344.444,808.333,16.667,N
1146,-0.695,0.795,-0.815,169.444,100.000,338.889,797.222,11.111,N
1147,-0.625,0.820,-0.765,166.667,94.444,322.222,775.000,22.222,N
1148,-0.630,0.830,-0.785,158.333,100.000,347.222,780.556,5.556,N
1149,-0.635,0.860,-0.790,161.111,94.444,327.778,752.778,27.778,N
1150,-0.650,0.940,-0.765,155.556,97.222,350.000,786.111,33.333,N
1151,-0.570,0.845,-0.770,169.444,102.778,341.667,747.222,38.889,N
1152,-0.600,0.880,-0.755,161.111,97.222,341.667,725.000,22.222,N
1153,-0.625,0.850,-0.800,172.222,100.000,361.111,747.222,22.222,N
1154,-0.665,0.860,-0.885,161.111,97.222,341.667,750.000,2.778,N
1155,-0.700,0.890,-0.825,166.667,100.000,336.111,736.111,13.889,N
1156,-0.635,0.805,-0.780,144.444,97.222,327.778,713.889,22.222,N
1157,-0.595,0.810,-0.785,158.333,100.000,344.444,744.444,30.556,N
1158,-0.630,0.830,-0.820,155.556,100.000,350.000,738.889,5.556,N
1159,-0.665,0.835,-0.835,158.333,97.222,341.667,730.556,8.333,N
1160,-0.685,0.880,-0.840,147.222,97.222,325.000,722.222,8.333,N
1161,-0.650,0.830,-0.850,158.333,100.000,311.111,744.444,22.222,N
1162,-0.670,0.855,-0.790,163.889,100.000,341.667,713.889,30.556,N
1163,-0.650,0.850,-0.840,163.889,97.222,336.111,730.556,16.667,N
1164,-0.690,0.845,-0.845,169.444,102.778,344.444,736.111,5.556,N
1165,-0.700,0.820,-0.860,147.222,97.222,333.333,741.667,5.556,N
1166,-0.690,0.870,-0.820,166.667,100.000,336.111,730.556,11.111,N
1167,-0.635,0.805,-0.775,161.111,97.222,338.889,719.444,11.111,N
1168,-0.600,0.850,-0.780,155.556,102.778,330.556,722.222,2.778,N
1169,-0.635,0.840,-0.810,172.222,102.778,341.667,727.778,5.556,N
1170,-0.645,0.885,-0.825,158.333,97.222,322.222,719.444,8.333,N
1171,-0.670,0.890,-0.795,144.444,97.222,330.556,713.889,5.556,N
1172,-0.600,0.860,-0.795,161.111,97.222,350.000,713.889,0.000,N
1173,-0.615,0.795,-0.790,150.000,100.000,327.778,727.778,13.889,N
1174,-0.655,0.835,-0.855,161.111,97.222,341.667,744.444,16.667,N
1175,-0.710,0.830,-0.875,161.111,97.222,325.000,750.000,5.556,N
1176,-0.695,0.830,-0.850,177.778,100.000,336.111,772.222,22.222,N
1177,-0.715,0.790,-0.930,161.111,100.000,316.667,777.778,5.556,N
1178,-0.740,0.760,-0.905,161.111,100.000,347.222,769.444,8.333,N
1179,-0.735,0.795,-0.895,158.333,102.778,372.222,775.000,5.556,N
1180,-0.760,0.760,-0.780,177.778,100.000,-851155.556,816.667,41.667,N
1181,-0.825,0.750,-0.990,166.667,100.000,338.889,786.111,30.556,N
1182,-0.770,0.790,-0.900,166.667,100.000,333.333,800.000,13.889,N
1183,-0.705,0.805,-0.825,175.000,100.000,325.000,813.889,13.889,N
1184,-0.640,0.950,-0.770,161.111,97.222,369.444,786.111,27.778,N
1185,-0.580,0.975,-0.790,166.667,100.000,341.667,797.222,11.111,N
1186,-0.615,0.945,-0.745,169.444,97.222,333.333,808.333,11.111,N
1187,-0.550,0.945,-0.755,172.222,100.000,336.111,794.444,13.889,N
1188,-0.595,0.865,-0.790,172.222,100.000,347.222,763.889,30.556,N
1189,-0.625,0.840,-0.820,166.667,97.222,330.556,777.778,13.889,N
1190,-0.695,0.865,-0.895,175.000,97.222,347.222,802.778,25.000,N
1191,-0.690,0.785,-0.895,161.111,94.444,319.444,780.556,22.222,N
1192,-0.710,0.815,-0.880,161.111,100.000,344.444,805.556,25.000,N
1193,-0.710,0.805,-0.870,161.111,100.000,355.556,791.667,13.889,N
1194,-0.685,0.885,-0.830,163.889,97.222,338.889,816.667,25.000,N
1195,-0.660,0.815,-0.820,163.889,100.000,344.444,791.667,25.000,N
1196,-0.655,0.820,-0.835,169.444,97.222,330.556,780.556,11.111,N
1197,-0.680,0.790,-0.840,158.333,100.000,355.556,813.889,33.333,N
1198,-0.630,0.895,-0.780,161.111,100.000,347.222,808.333,5.556,N
1199,-0.600,0.835,-0.815,158.333,97.222,333.333,766.667,41.667,N
1200,-0.635,0.825,-0.855,175.000,97.222,361.111,780.556,13.889,N
1201,-0.635,0.860,-0.790,169.444,97.222,338.889,791.667,11.111,N
1202,-0.630,0.800,-0.800,155.556,97.222,350.000,755.556,36.111,N
1203,-0.660,0.840,-0.825,158.333,94.444,363.889,750.000,5.556,N
1204,-0.680,0.770,-0.845,155.556,97.222,322.222,786.111,36.111,N
1205,-0.650,0.895,-0.805,166.667,100.000,372.222,744.444,41.667,N
1206,-0.625,0.825,-0.825,161.111,97.222,338.889,727.778,16.667,N
1207,-0.660,0.810,-0.795,175.000,72.222,83.333,750.000,22.222,N
1208,-0.655,0.845,-0.820,161.111,102.778,380.556,752.778,2.778,N
1209,-0.630,0.840,-0.780,150.000,100.000,361.111,722.222,30.556,N
1210,-0.610,0.860,-0.735,175.000,97.222,333.333,727.778,5.556,N
1211,-0.575,0.870,-0.735,158.333,100.000,352.778,741.667,13.889,N
1212,-0.605,0.880,-0.755,152.778,97.222,327.778,730.556,11.111,N
1213,-0.605,0.900,-0.785,155.556,100.000,325.000,736.111,5.556,N
1214,-0.650,0.795,-0.855,147.222,97.222,352.778,727.778,8.333,N
1215,-0.720,0.735,-0.905,158.333,100.000,350.000,744.444,16.667,N
1216,-0.725,0.810,-0.880,147.222,97.222,333.333,722.222,22.222,N
1217,-0.725,0.750,-0.870,169.444,97.222,327.778,725.000,2.778,N
1218,-0.740,0.695,-0.900,163.889,100.000,336.111,733.333,8.333,N
1219,-0.765,0.755,-0.895,150.000,100.000,358.333,750.000,16.667,N
1220,-0.700,0.805,-0.850,177.778,94.444,361.111,725.000,25.000,N
1221,-0.695,0.775,-0.820,152.778,97.222,316.667,711.111,13.889,N
1222,-0.705,0.775,-0.890,166.667,97.222,358.333,719.444,8.333,N
1223,-0.725,0.735,-0.895,152.778,97.222,352.778,744.444,25.000,N
1224,-0.770,0.750,-0.935,155.556,102.778,333.333,736.111,8.333,N
1225,-0.760,0.775,-0.880,150.000,97.222,330.556,722.222,13.889,N
1226,-0.685,0.780,-0.880,163.889,100.000,344.444,722.222,0.000,N
1227,-0.765,0.695,-0.935,169.444,100.000,338.889,736.111,13.889,N
1228,-0.785,0.710,-0.925,161.111,100.000,350.000,730.556,5.556,N
1229,-0.770,0.720,-0.925,169.444,102.778,344.444,738.889,8.333,N
1230,-0.755,0.740,-0.880,161.111,97.222,350.000,755.556,16.667,N
1231,-0.695,0.750,-0.875,150.000,100.000,336.111,730.556,25.000,N
1232,-0.720,0.745,-0.890,158.333,97.222,352.778,736.111,5.556,N
1233,-0.710,0.755,-0.865,166.667,100.000,341.667,744.444,8.333,N
1234,-0.695,0.840,-0.850,166.667,102.778,316.667,763.889,19.444,N
1235,-0.660,0.765,-0.840,150.000,97.222,361.111,719.444,44.444,N
1236,-0.705,0.770,-0.865,150.000,100.000,325.000,733.333,13.889,N
1237,-0.700,0.830,-0.825,169.444,100.000,336.111,722.222,11.111,N
1238,-0.665,0.810,-0.840,152.778,100.000,319.444,722.222,0.000,N
1239,-0.700,0.765,-0.875,152.778,100.000,355.556,727.778,5.556,N
1240,-0.740,0.765,-0.880,169.444,100.000,347.222,738.889,11.111,N
1241,-0.720,0.795,-0.850,166.667,97.222,361.111,750.000,11.111,N
1242,-0.680,0.810,-0.815,166.667,100.000,344.444,725.000,25.000,N
1243,-0.680,0.795,-0.845,166.667,100.000,341.667,733.333,8.333,N
1244,-0.700,0.790,-0.850,161.111,100.000,383.333,727.778,5.556,N
1245,-0.690,0.865,-0.830,175.000,97.222,333.333,744.444,16.667,N
1246,-0.705,0.850,-0.815,161.111,97.222,347.222,725.000,19.444,N
1247,-0.645,0.820,-0.825,150.000,94.444,322.222,716.667,8.333,N
1248,-0.690,0.805,-0.845,155.556,97.222,336.111,700.000,16.667,N
1249,-0.665,0.820,-0.835,158.333,100.000,322.222,713.889,13.889,N
1250,-0.670,0.870,-0.790,155.556,100.000,347.222,705.556,8.333,N
1251,-0.625,0.835,-0.740,155.556,100.000,350.000,694.444,11.111,N
1252,-0.565,0.870,-0.775,161.111,100.000,341.667,705.556,11.111,N
1253,-0.635,0.885,-0.805,172.222,97.222,325.000,711.111,5.556,N
1254,-0.630,0.870,-0.805,163.889,100.000,347.222,688.889,22.222,N
1255,-0.630,0.925,-0.750,147.222,97.222,361.111,686.111,2.778,N
1256,-0.595,0.860,-0.680,150.000,72.222,83.333,694.444,8.333,N
1257,-0.575,0.920,-0.695,158.333,100.000,333.333,691.667,2.778,N
1258,-0.545,0.880,-0.745,152.778,97.222,319.444,686.111,5.556,N
1259,-0.590,0.870,-0.780,155.556,100.000,338.889,680.556,5.556,N
1260,-0.640,0.825,-0.810,155.556,102.778,327.778,688.889,8.333,N
1261,-0.665,0.860,-0.800,155.556,94.444,330.556,675.000,13.889,N
1262,-0.640,0.760,-0.740,152.778,100.000,316.667,663.889,11.111,N
1263,-0.555,0.855,-0.710,152.778,75.000,86.111,686.111,22.222,N
1264,-0.580,0.865,-0.755,166.667,100.000,338.889,688.889,2.778,N
1265,-0.625,0.810,-0.760,150.000,100.000,325.000,683.333,5.556,N
1266,-0.595,0.870,-0.785,163.889,100.000,319.444,677.778,5.556,N
1267,-0.610,0.870,-0.780,147.222,97.222,316.667,686.111,8.333,N
1268,-0.655,0.805,-0.790,150.000,102.778,330.556,702.778,16.667,N
1269,-0.625,0.805,-0.840,150.000,94.444,319.444,700.000,2.778,N
1270,-0.700,0.760,-0.860,158.333,97.222,347.222,711.111,11.111,N
1271,-0.685,0.835,-0.830,155.556,97.222,336.111,702.778,8.333,N
1272,-0.680,0.865,-0.780,155.556,102.778,327.778,722.222,19.444,N
1273,-0.610,0.900,-0.750,152.778,100.000,333.333,702.778,19.444,N
1274,-0.585,0.850,-0.745,166.667,97.222,341.667,719.444,16.667,N
1275,-0.615,0.825,-0.795,166.667,102.778,338.889,733.333,13.889,N
1276,-0.650,0.820,-0.835,161.111,100.000,322.222,755.556,22.222,N
1277,-0.660,0.850,-0.800,163.889,100.000,352.778,730.556,25.000,N
1278,-0.650,0.850,-0.770,155.556,97.222,319.444,730.556,0.000,N
1279,-0.605,0.865,-0.795,166.667,102.778,338.889,722.222,8.333,N
1280,-0.635,0.860,-0.800,158.333,100.000,347.222,750.000,27.778,N
1281,-0.645,0.920,-0.800,166.667,97.222,344.444,741.667,8.333,N
1282,-0.650,0.960,-0.790,152.778,100.000,333.333,736.111,5.556,N
1283,-0.580,0.945,-0.775,169.444,102.778,341.667,741.667,5.556,N
1284,-0.660,0.835,-0.840,161.111,97.222,336.111,736.111,5.556,N
1285,-0.660,0.820,-0.850,158.333,97.222,350.000,744.444,8.333,N
1286,-0.665,0.875,-0.805,169.444,100.000,363.889,755.556,11.111,N
1287,-0.640,0.945,-0.760,158.333,97.222,319.444,783.333,27.778,N
1288,-0.570,0.890,-0.745,152.778,97.222,347.222,730.556,52.778,N
1289,-0.605,1.010,-0.810,163.889,72.222,341.667,744.444,13.889,N
1290,-0.655,0.900,-0.795,155.556,100.000,380.556,758.333,13.889,N
1291,-0.610,0.910,-0.715,155.556,100.000,325.000,761.111,2.778,N
1292,-0.520,0.945,-0.690,161.111,100.000,350.000,738.889,22.222,N
1293,-0.545,0.940,-0.735,163.889,97.222,325.000,719.444,19.444,N
1294,-0.605,0.905,-0.815,155.556,102.778,322.222,747.222,27.778,N
1295,-0.655,0.875,-0.855,147.222,100.000,330.556,725.000,22.222,N
1296,-0.665,0.885,-0.880,158.333,100.000,350.000,747.222,22.222,N
1297,-0.700,0.785,-0.880,155.556,97.222,338.889,733.333,13.889,N
1298,-0.745,0.795,-0.940,163.889,97.222,327.778,750.000,16.667,N
1299,-0.775,0.780,-0.965,161.111,100.000,336.111,722.222,27.778,N
1300,-0.775,0.815,-0.925,161.111,100.000,313.889,730.556,8.333,N
1301,-0.705,0.835,-0.875,152.778,100.000,327.778,722.222,8.333,N
1302,-0.685,0.805,-0.865,147.222,100.000,327.778,730.556,8.333,N
1303,-0.705,0.825,-0.875,172.222,100.000,363.889,736.111,5.556,N
1304,-0.725,0.865,-0.910,158.333,97.222,361.111,725.000,11.111,N
1305,-0.695,0.910,-0.835,169.444,102.778,366.667,736.111,11.111,N
1306,-0.645,0.900,-0.805,161.111,97.222,330.556,727.778,8.333,N
1307,-0.665,0.825,-0.900,163.889,100.000,361.111,741.667,13.889,N
1308,-0.725,0.765,-0.920,155.556,100.000,355.556,747.222,5.556,N
1309,-0.750,0.805,-0.945,155.556,97.222,325.000,769.444,22.222,N
1310,-0.745,0.845,-0.860,163.889,100.000,330.556,744.444,25.000,N
1311,-0.660,0.805,-0.820,152.778,100.000,347.222,719.444,25.000,N
1312,-0.675,0.745,-0.865,169.444,100.000,361.111,725.000,5.556,N
1313,-0.710,0.805,-0.910,155.556,97.222,313.889,750.000,25.000,N
1314,-0.765,0.720,-0.970,155.556,97.222,352.778,727.778,22.222,N
1315,-0.830,0.750,-0.985,144.444,94.444,316.667,725.000,2.778,N
1316,-0.790,0.705,-0.960,169.444,102.778,336.111,722.222,2.778,N
1317,-0.795,0.710,-0.920,150.000,97.222,319.444,716.667,5.556,N
1318,-0.765,0.755,-0.915,172.222,100.000,330.556,722.222,5.556,N
1319,-0.760,0.810,-0.895,175.000,102.778,338.889,733.333,11.111,N
1320,-0.715,0.810,-0.855,150.000,97.222,352.778,741.667,8.333,N
1321,-0.675,0.850,-0.825,166.667,97.222,333.333,722.222,19.444,N
1322,-0.690,0.815,-0.870,152.778,100.000,361.111,744.444,22.222,N
1323,-0.725,0.775,-0.915,161.111,102.778,330.556,741.667,2.778,N
1324,-0.710,0.840,-0.865,166.667,97.222,344.444,777.778,36.111,N
1325,-0.705,0.785,-0.830,163.889,100.000,352.778,755.556,22.222,N
1326,-0.685,0.805,-0.880,155.556,100.000,327.778,758.333,2.778,N
1327,-0.720,0.765,-0.920,161.111,100.000,347.222,747.222,11.111,N
1328,-0.735,0.860,-0.860,158.333,97.222,347.222,763.889,16.667,N
1329,-0.645,0.850,-0.800,150.000,97.222,322.222,758.333,5.556,N
1330,-0.640,0.900,-0.840,161.111,97.222,341.667,780.556,22.222,N
1331,-0.670,0.925,-0.855,166.667,100.000,341.667,775.000,5.556,N
1332,-0.645,0.880,-0.835,166.667,100.000,338.889,766.667,8.333,N
1333,-0.675,0.875,-0.855,169.444,97.222,338.889,766.667,0.000,N
1334,-0.665,0.860,-0.825,166.667,97.222,336.111,772.222,5.556,N
1335,-0.655,0.870,-0.840,172.222,100.000,333.333,802.778,30.556,N
1336,-0.670,0.900,-0.825,166.667,102.778,358.333,775.000,27.778,N
1337,-0.630,0.890,-0.785,150.000,100.000,330.556,761.111,13.889,N
1338,-0.615,0.925,-0.795,169.444,97.222,363.889,763.889,2.778,N
1339,-0.620,0.855,-0.785,166.667,102.778,338.889,761.111,2.778,N
1340,-0.610,0.820,-0.825,172.222,97.222,333.333,736.111,25.000,N
1341,-0.690,0.850,-0.870,161.111,100.000,341.667,758.333,22.222,N
1342,-0.705,0.835,-0.900,166.667,94.444,333.333,772.222,13.889,N
1343,-0.700,0.845,-0.900,161.111,97.222,344.444,761.111,11.111,N
1344,-0.725,0.800,-0.880,169.444,100.000,330.556,783.333,22.222,N
1345,-0.720,0.845,-0.860,158.333,102.778,350.000,783.333,0.000,N
1346,-0.695,0.835,-0.885,163.889,97.222,336.111,775.000,8.333,N
1347,-0.690,0.775,-0.860,169.444,102.778,338.889,738.889,36.111,N
1348,-0.695,0.775,-0.935,152.778,97.222,319.444,744.444,5.556,N
1349,-0.765,0.775,-0.935,155.556,97.222,325.000,736.111,8.333,N
1350,-0.765,0.785,-0.920,155.556,100.000,352.778,736.111,0.000,N
1351,-0.715,0.810,-0.860,158.333,97.222,363.889,733.333,2.778,N
1352,-0.680,0.835,-0.810,172.222,100.000,361.111,725.000,8.333,N
1353,-0.660,0.845,-0.840,163.889,97.222,344.444,747.222,22.222,N
1354,-0.680,0.830,-0.850,150.000,97.222,322.222,722.222,25.000,N
1355,-0.705,0.835,-0.825,161.111,97.222,333.333,730.556,8.333,N
1356,-0.630,0.890,-0.765,166.667,102.778,380.556,713.889,16.667,N
1357,-0.565,0.870,-0.755,166.667,102.778,336.111,741.667,27.778,N
1358,-0.605,0.870,-0.810,169.444,100.000,366.667,711.111,30.556,N
1359,-0.640,0.790,-0.840,155.556,97.222,322.222,708.333,2.778,N
1360,-0.675,0.790,-0.860,161.111,100.000,358.333,702.778,5.556,N
1361,-0.705,0.880,-0.850,166.667,100.000,336.111,719.444,16.667,N
1362,-0.670,0.805,-0.775,158.333,100.000,341.667,694.444,25.000,N
1363,-0.610,0.795,-0.850,166.667,100.000,341.667,700.000,5.556,N
1364,-0.730,0.715,-0.910,169.444,100.000,333.333,711.111,11.111,N
1365,-0.745,0.730,-0.905,155.556,100.000,316.667,713.889,2.778,N
1366,-0.745,0.745,-0.890,152.778,94.444,316.667,691.667,22.222,N
1367,-0.725,0.705,-0.890,147.222,100.000,330.556,700.000,8.333,N
1368,-0.705,0.725,-0.905,163.889,100.000,347.222,716.667,16.667,N
1369,-0.755,0.740,-0.915,144.444,100.000,344.444,708.333,8.333,N
1370,-0.765,0.750,-0.935,155.556,100.000,319.444,711.111,2.778,N
1371,-0.770,0.720,-0.930,152.778,97.222,325.000,700.000,11.111,N
1372,-0.755,0.770,-0.895,169.444,100.000,333.333,727.778,27.778,N
1373,-0.715,0.785,-0.915,163.889,100.000,350.000,716.667,11.111,N
1374,-0.760,0.710,-0.975,158.333,97.222,336.111,736.111,19.444,N
1375,-0.810,0.720,-0.980,166.667,100.000,347.222,741.667,5.556,N
1376,-0.810,0.755,-0.955,155.556,102.778,352.778,758.333,16.667,N
1377,-0.765,0.770,-0.895,152.778,100.000,361.111,761.111,2.778,N
1378,-0.725,0.750,-0.885,155.556,97.222,347.222,772.222,11.111,N
1379,-0.740,0.765,-0.895,163.889,97.222,350.000,797.222,25.000,N
1380,-0.725,0.750,-0.880,155.556,97.222,350.000,800.000,2.778,N
1381,-0.690,0.890,-0.825,158.333,97.222,313.889,836.111,36.111,N
1382,-0.650,0.805,-0.860,161.111,100.000,344.444,772.222,63.889,N
1383,-0.705,0.795,-0.940,172.222,97.222,330.556,811.111,38.889,N
1384,-0.800,0.765,-0.975,169.444,100.000,341.667,802.778,8.333,N
1385,-0.765,0.810,-0.860,172.222,97.222,350.000,794.444,8.333,N
1386,-0.640,0.855,-0.795,166.667,102.778,375.000,800.000,5.556,N
1387,-0.650,0.795,-0.835,161.111,100.000,333.333,769.444,30.556,N
1388,-0.665,0.815,-0.835,152.778,100.000,358.333,780.556,11.111,N
1389,-0.675,0.840,-0.800,183.333,102.778,355.556,802.778,22.222,N
1390,-0.595,0.940,-0.775,166.667,97.222,338.889,813.889,11.111,N
1391,-0.630,0.855,-0.800,150.000,94.444,330.556,780.556,33.333,N
1392,-0.635,0.840,-0.810,152.778,97.222,355.556,766.667,13.889,N
1393,-0.635,0.865,-0.810,169.444,100.000,338.889,791.667,25.000,N
1394,-0.665,0.830,-0.845,150.000,100.000,355.556,780.556,11.111,N
1395,-0.650,0.875,-0.820,166.667,100.000,347.222,780.556,0.000,N
1396,-0.660,0.780,-0.840,175.000,102.778,366.667,780.556,0.000,N
1397,-0.710,0.760,-0.930,172.222,97.222,344.444,758.333,22.222,N
1398,-0.795,0.695,-0.955,161.111,100.000,327.778,783.333,25.000,N
1399,-0.770,0.730,-0.935,161.111,97.222,338.889,780.556,2.778,N
1400,-0.715,0.805,-0.860,175.000,97.222,355.556,819.444,38.889,N
1401,-0.685,0.785,-0.890,161.111,100.000,341.667,811.111,8.333,N
1402,-0.745,0.735,-0.965,161.111,97.222,352.778,791.667,19.444,N
1403,-0.805,0.690,-0.995,172.222,100.000,375.000,786.111,5.556,N
1404,-0.790,0.765,-0.935,166.667,100.000,344.444,791.667,5.556,N
1405,-0.730,0.825,-0.845,172.222,97.222,361.111,783.333,8.333,N
1406,-0.660,0.810,-0.860,175.000,94.444,327.778,763.889,19.444,N
1407,-0.710,0.820,-0.890,166.667,100.000,375.000,788.889,25.000,N
1408,-0.715,0.810,-0.905,158.333,100.000,347.222,761.111,27.778,N
1409,-0.695,0.860,-0.830,152.778,100.000,322.222,761.111,0.000,N
1410,-0.650,0.845,-0.805,161.111,97.222,361.111,758.333,2.778,N
1411,-0.645,0.850,-0.865,166.667,100.000,338.889,758.333,0.000,N
1412,-0.715,0.795,-0.885,150.000,100.000,322.222,750.000,8.333,N
1413,-0.660,0.875,-0.830,161.111,97.222,344.444,741.667,8.333,N
1414,-0.655,0.925,-0.795,161.111,100.000,347.222,772.222,30.556,N
1415,-0.615,0.895,-0.785,161.111,97.222,322.222,752.778,19.444,N
1416,-0.625,0.860,-0.785,161.111,97.222,338.889,719.444,33.333,N
1417,-0.660,0.855,-0.870,158.333,100.000,344.444,755.556,36.111,N
1418,-0.710,0.805,-0.905,158.333,102.778,336.111,750.000,5.556,N
1419,-0.730,0.850,-0.890,155.556,100.000,336.111,725.000,25.000,N
1420,-0.690,0.845,-0.845,158.333,97.222,341.667,727.778,2.778,N
1421,-0.670,0.765,-0.805,166.667,100.000,336.111,719.444,8.333,N
1422,-0.645,0.885,-0.830,166.667,100.000,341.667,725.000,5.556,N
1423,-0.695,0.830,-0.860,150.000,100.000,338.889,713.889,11.111,N
1424,-0.670,0.820,-0.880,152.778,97.222,313.889,708.333,5.556,N
1425,-0.695,0.855,-0.855,172.222,97.222,327.778,725.000,16.667,N
1426,-0.710,0.780,-0.850,169.444,97.222,333.333,697.222,27.778,N
1427,-0.690,0.795,-0.870,163.889,97.222,344.444,688.889,8.333,N
1428,-0.750,0.765,-0.940,152.778,97.222,327.778,713.889,25.000,N
1429,-0.810,0.725,-0.980,150.000,97.222,325.000,702.778,11.111,N
1430,-0.825,0.775,-0.965,169.444,102.778,333.333,697.222,5.556,N
1431,-0.770,0.860,-0.885,147.222,97.222,336.111,697.222,0.000,N
1432,-0.685,0.820,-0.755,150.000,72.222,83.333,680.556,16.667,N
1433,-0.635,0.855,-0.805,158.333,102.778,322.222,702.778,22.222,N
1434,-0.665,0.790,-0.890,147.222,100.000,330.556,688.889,13.889,N
1435,-0.745,0.790,-0.900,150.000,100.000,325.000,700.000,11.111,N
1436,-0.720,0.790,-0.860,155.556,100.000,347.222,680.556,19.444,N
1437,-0.720,0.865,-0.830,150.000,100.000,338.889,713.889,33.333,N
1438,-0.670,0.835,-0.830,166.667,97.222,338.889,697.222,16.667,N
1439,-0.670,0.785,-0.860,158.333,100.000,352.778,691.667,5.556,N
1440,-0.740,0.760,-0.940,158.333,100.000,347.222,705.556,13.889,N
1441,-0.815,0.735,-0.985,155.556,100.000,313.889,727.778,22.222,N
1442,-0.810,0.740,-0.945,161.111,97.222,338.889,708.333,19.444,N
1443,-0.790,0.815,-0.880,169.444,100.000,330.556,711.111,2.778,N
1444,-0.690,0.835,-0.815,161.111,100.000,347.222,722.222,11.111,N
1445,-0.630,0.845,-0.815,152.778,97.222,319.444,722.222,0.000,N
1446,-0.660,0.895,-0.815,166.667,97.222,341.667,711.111,11.111,N
1447,-0.630,0.865,-0.830,150.000,97.222,322.222,719.444,8.333,N
1448,-0.670,0.925,-0.755,152.778,100.000,319.444,738.889,19.444,N
1449,-0.600,0.975,-0.690,150.000,100.000,322.222,727.778,11.111,N
1450,-0.520,0.965,-0.700,163.889,100.000,347.222,716.667,11.111,N
1451,-0.580,0.940,-0.785,172.222,97.222,336.111,741.667,25.000,N
1452,-0.635,0.940,-0.795,166.667,100.000,341.667,761.111,19.444,N
1453,-0.650,0.985,-0.795,169.444,102.778,344.444,736.111,25.000,N
1454,-0.600,0.955,-0.735,166.667,97.222,341.667,738.889,2.778,N
1455,-0.555,0.960,-0.745,158.333,100.000,352.778,725.000,13.889,N
1456,-0.620,0.855,-0.830,152.778,97.222,322.222,752.778,27.778,N
1457,-0.685,0.850,-0.870,163.889,102.778,350.000,741.667,11.111,N
1458,-0.705,0.905,-0.795,152.778,100.000,338.889,750.000,8.333,N
1459,-0.600,0.910,-0.760,169.444,100.000,336.111,736.111,13.889,N
1460,-0.580,0.865,-0.800,166.667,97.222,338.889,722.222,13.889,N
1461,-0.680,0.815,-0.915,166.667,100.000,350.000,733.333,11.111,N
1462,-0.730,0.760,-0.925,161.111,100.000,341.667,730.556,2.778,N
1463,-0.750,0.810,-0.860,172.222,100.000,325.000,758.333,27.778,N
1464,-0.690,0.830,-0.810,152.778,97.222,327.778,725.000,33.333,N
1465,-0.680,0.785,-0.890,158.333,94.444,333.333,725.000,0.000,N
1466,-0.745,0.755,-0.930,163.889,100.000,347.222,725.000,0.000,N
1467,-0.765,0.740,-0.965,155.556,97.222,316.667,761.111,36.111,N
1468,-0.790,0.785,-0.920,158.333,102.778,352.778,736.111,25.000,N
1469,-0.735,0.765,-0.880,144.444,94.444,325.000,725.000,11.111,N
1470,-0.705,0.765,-0.925,166.667,97.222,338.889,722.222,2.778,N
1471,-0.775,0.760,-0.960,163.889,102.778,338.889,733.333,11.111,N
1472,-0.785,0.790,-0.880,155.556,94.444,330.556,736.111,2.778,N
1473,-0.710,0.865,-0.810,172.222,97.222,333.333,738.889,2.778,N
1474,-0.635,0.820,-0.850,158.333,102.778,350.000,747.222,8.333,N
1475,-0.685,0.795,-0.870,152.778,97.222,352.778,733.333,13.889,N
1476,-0.690,0.845,-0.850,158.333,97.222,336.111,744.444,11.111,N
1477,-0.700,0.860,-0.800,169.444,97.222,358.333,738.889,5.556,N
1478,-0.595,0.925,-0.750,172.222,97.222,338.889,761.111,22.222,N
1479,-0.580,0.870,-0.810,147.222,97.222,344.444,725.000,36.111,N
1480,-0.685,0.800,-0.890,166.667,97.222,333.333,747.222,22.222,N
1481,-0.735,0.825,-0.905,166.667,100.000,341.667,733.333,13.889,N
1482,-0.725,0.865,-0.830,152.778,100.000,352.778,750.000,16.667,N
1483,-0.625,0.945,-0.745,163.889,97.222,336.111,747.222,2.778,N
1484,-0.600,0.875,-0.870,169.444,100.000,338.889,738.889,8.333,N
1485,-0.735,0.810,-0.920,155.556,102.778,347.222,758.333,19.444,N
1486,-0.780,0.760,-0.930,152.778,100.000,361.111,755.556,2.778,N
1487,-0.740,0.880,-0.850,163.889,100.000,341.667,747.222,8.333,N
1488,-0.645,0.870,-0.805,155.556,97.222,344.444,730.556,16.667,N
1489,-0.625,0.860,-0.845,172.222,100.000,336.111,744.444,13.889,N
1490,-0.715,0.775,-0.905,155.556,100.000,333.333,741.667,2.778,N
1491,-0.745,0.820,-0.890,163.889,100.000,336.111,727.778,13.889,N
1492,-0.710,0.860,-0.810,158.333,97.222,350.000,716.667,11.111,N
1493,-0.595,0.890,-0.735,150.000,97.222,330.556,730.556,13.889,N
1494,-0.550,0.875,-0.720,166.667,97.222,316.667,708.333,22.222,N
1495,-0.600,0.865,-0.810,163.889,100.000,333.333,711.111,2.778,N
1496,-0.670,0.815,-0.845,161.111,100.000,341.667,722.222,11.111,N
1497,-0.660,0.870,-0.835,166.667,100.000,338.889,738.889,16.667,N
1498,-0.640,0.905,-0.740,144.444,97.222,336.111,705.556,33.333,N
1499,-0.585,0.850,-0.735,172.222,97.222,325.000,708.333,2.778,N
1500,-0.580,0.855,-0.855,166.667,100.000,341.667,725.000,16.667,N
1501,-0.700,0.785,-0.885,161.111,100.000,341.667,730.556,5.556,N
1502,-0.725,0.775,-0.895,161.111,102.778,361.111,725.000,5.556,N
1503,-0.695,0.850,-0.780,141.667,100.000,333.333,716.667,8.333,N
1504,-0.615,0.805,-0.715,147.222,102.778,330.556,705.556,11.111,N
1505,-0.545,0.885,-0.810,158.333,94.444,322.222,705.556,0.000,N
1506,-0.690,0.790,-0.900,150.000,100.000,350.000,702.778,2.778,N
1507,-0.735,0.755,-0.905,158.333,100.000,316.667,705.556,2.778,N
1508,-0.720,0.890,-0.800,166.667,102.778,341.667,711.111,5.556,N
1509,-0.610,0.905,-0.730,163.889,100.000,313.889,697.222,13.889,N
1510,-0.550,0.850,-0.735,147.222,97.222,319.444,686.111,11.111,N
1511,-0.600,0.845,-0.810,150.000,100.000,322.222,697.222,11.111,N
1512,-0.660,0.890,-0.815,163.889,97.222,333.333,722.222,25.000,N
1513,-0.650,0.900,-0.800,155.556,100.000,325.000,713.889,8.333,N
1514,-0.620,0.975,-0.765,166.667,97.222,333.333,716.667,2.778,N
1515,-0.585,0.850,-0.785,147.222,100.000,327.778,680.556,36.111,N
1516,-0.665,0.815,-0.880,152.778,97.222,319.444,738.889,58.333,N
1517,-0.735,0.785,-0.895,161.111,102.778,322.222,711.111,27.778,N
1518,-0.720,0.780,-0.865,161.111,97.222,355.556,727.778,16.667,N
1519,-0.660,0.915,-0.800,169.444,102.778,341.667,750.000,22.222,N
1520,-0.625,0.900,-0.805,166.667,102.778,344.444,761.111,11.111,N
1521,-0.690,0.840,-0.860,144.444,100.000,333.333,741.667,19.444,N
1522,-0.700,0.845,-0.865,158.333,100.000,344.444,750.000,8.333,N
1523,-0.680,0.875,-0.810,172.222,100.000,333.333,786.111,36.111,N
1524,-0.620,0.905,-0.780,169.444,97.222,330.556,763.889,22.222,N
1525,-0.640,0.835,-0.835,166.667,100.000,338.889,763.889,0.000,N
1526,-0.650,0.870,-0.810,158.333,94.444,347.222,755.556,8.333,N
1527,-0.630,0.910,-0.750,155.556,94.444,322.222,788.889,33.333,N
1528,-0.580,0.935,-0.770,150.000,100.000,361.111,763.889,25.000,N
1529,-0.650,0.810,-0.885,161.111,97.222,319.444,777.778,13.889,N
1530,-0.710,0.805,-0.890,177.778,102.778,363.889,791.667,13.889,N
1531,-0.715,0.875,-0.795,152.778,94.444,352.778,769.444,22.222,N
1532,-0.610,0.895,-0.705,161.111,100.000,350.000,775.000,5.556,N
1533,-0.570,0.865,-0.825,163.889,100.000,341.667,747.222,27.778,N
1534,-0.695,0.780,-0.935,158.333,102.778,322.222,788.889,41.667,N
1535,-0.770,0.775,-0.965,161.111,102.778,350.000,772.222,16.667,N
1536,-0.765,0.870,-0.880,169.444,97.222,333.333,775.000,2.778,N
1537,-0.660,0.885,-0.765,161.111,100.000,347.222,758.333,16.667,N
1538,-0.575,0.840,-0.795,152.778,97.222,322.222,758.333,0.000,N
1539,-0.650,0.810,-0.900,155.556,102.778,355.556,769.444,11.111,N
1540,-0.740,0.785,-0.925,161.111,97.222,350.000,766.667,2.778,N
1541,-0.735,0.825,-0.855,172.222,97.222,352.778,794.444,27.778,N
1542,-0.645,0.920,-0.770,163.889,100.000,325.000,769.444,25.000,N
1543,-0.580,0.975,-0.770,163.889,100.000,341.667,747.222,22.222,N
1544,-0.640,0.870,-0.865,177.778,102.778,363.889,783.333,36.111,N
1545,-0.715,0.840,-0.920,169.444,100.000,336.111,791.667,8.333,N
1546,-0.760,0.795,-0.885,144.444,94.444,355.556,808.333,16.667,N
1547,-0.640,0.930,-0.805,152.778,100.000,350.000,805.556,2.778,N
1548,-0.610,0.910,-0.820,150.000,97.222,352.778,833.333,27.778,N
1549,-0.665,0.855,-0.880,175.000,100.000,330.556,827.778,5.556,N
1550,-0.695,0.905,-0.835,180.556,100.000,358.333,838.889,11.111,N
1551,-0.580,1.020,-0.730,169.444,102.778,344.444,855.556,16.667,N
1552,-0.545,0.945,-0.765,172.222,100.000,338.889,794.444,61.111,N
1553,-0.645,0.915,-0.845,147.222,97.222,361.111,780.556,13.889,N
1554,-0.675,0.910,-0.825,166.667,102.778,363.889,797.222,16.667,N
1555,-0.610,0.995,-0.705,152.778,97.222,347.222,777.778,19.444,N
1556,-0.495,0.960,-0.615,158.333,72.222,83.333,750.000,27.778,N
1557,-0.455,0.980,-0.720,161.111,97.222,333.333,733.333,16.667,N
1558,-0.615,0.865,-0.850,161.111,97.222,322.222,758.333,25.000,N
1559,-0.700,0.835,-0.855,166.667,100.000,347.222,736.111,22.222,N
1560,-0.705,0.825,-0.860,150.000,100.000,330.556,750.000,13.889,N
1561,-0.660,0.885,-0.825,161.111,100.000,338.889,750.000,0.000,N
1562,-0.665,0.835,-0.830,166.667,100.000,341.667,738.889,11.111,N
1563,-0.685,0.795,-0.920,158.333,100.000,338.889,736.111,2.778,N
1564,-0.800,0.735,-0.970,155.556,97.222,350.000,727.778,8.333,N
1565,-0.795,0.725,-0.955,169.444,100.000,361.111,750.000,22.222,N
1566,-0.780,0.825,-0.875,166.667,100.000,344.444,758.333,8.333,N
1567,-0.685,0.810,-0.845,175.000,97.222,327.778,744.444,13.889,N
1568,-0.750,0.770,-0.925,166.667,97.222,363.889,725.000,19.444,N
1569,-0.750,0.760,-0.945,166.667,100.000,338.889,761.111,36.111,N
1570,-0.745,0.800,-0.895,158.333,97.222,347.222,761.111,0.000,N
1571,-0.710,0.795,-0.870,158.333,97.222,347.222,761.111,0.000,N
1572,-0.720,0.760,-0.955,163.889,100.000,366.667,788.889,27.778,N
1573,-0.790,0.780,-0.965,166.667,102.778,333.333,791.667,2.778,N
1574,-0.770,0.895,-0.885,161.111,100.000,366.667,769.444,22.222,N
1575,-0.665,0.885,-0.790,158.333,100.000,350.000,761.111,8.333,N
1576,-0.670,0.815,-0.905,175.000,102.778,336.111,780.556,19.444,N
1577,-0.790,0.775,-0.975,166.667,100.000,338.889,761.111,19.444,N
1578,-0.795,0.775,-0.945,158.333,97.222,347.222,755.556,5.556,N
1579,-0.725,0.895,-0.830,172.222,100.000,369.444,747.222,8.333,N
1580,-0.620,0.865,-0.760,150.000,97.222,352.778,747.222,0.000,N
1581,-0.585,0.840,-0.865,155.556,100.000,347.222,738.889,8.333,N
1582,-0.725,0.765,-0.920,152.778,100.000,363.889,755.556,16.667,N
1583,-0.725,0.810,-0.925,169.444,97.222,363.889,758.333,2.778,N
1584,-0.750,0.800,-0.905,150.000,97.222,355.556,747.222,11.111,N
1585,-0.660,0.915,-0.770,161.111,100.000,350.000,744.444,2.778,N
1586,-0.570,0.940,-0.750,163.889,97.222,333.333,738.889,5.556,N
1587,-0.630,0.870,-0.870,152.778,102.778,355.556,758.333,19.444,N
1588,-0.730,0.835,-0.945,161.111,100.000,341.667,738.889,19.444,N
1589,-0.755,0.825,-0.910,150.000,97.222,325.000,750.000,11.111,N
1590,-0.710,0.895,-0.790,163.889,100.000,350.000,744.444,5.556,N
1591,-0.625,0.865,-0.775,155.556,97.222,333.333,750.000,5.556,N
1592,-0.665,0.855,-0.915,161.111,97.222,347.222,758.333,8.333,N
1593,-0.745,0.840,-0.930,169.444,97.222,327.778,783.333,25.000,N
1594,-0.735,0.840,-0.905,172.222,100.000,327.778,800.000,16.667,N
1595,-0.690,0.905,-0.875,161.111,100.000,341.667,794.444,5.556,N
1596,-0.705,0.720,-0.940,172.222,97.222,327.778,775.000,19.444,N
1597,-0.780,0.760,-0.990,172.222,102.778,366.667,797.222,22.222,N
1598,-0.825,0.770,-0.960,163.889,97.222,350.000,813.889,16.667,N
1599,-0.740,0.840,-0.895,169.444,102.778,333.333,791.667,22.222,N
1600,-0.780,0.770,-0.970,163.889,97.222,330.556,758.333,33.333,N
1601,-0.795,0.790,-0.975,172.222,97.222,333.333,800.000,41.667,N
1602,-0.805,0.790,-0.970,158.333,97.222,350.000,788.889,11.111,N
1603,-0.735,0.820,-0.855,161.111,97.222,347.222,794.444,5.556,N
1604,-0.695,0.805,-0.905,180.556,100.000,355.556,797.222,2.778,N
1605,-0.750,0.780,-0.940,152.778,97.222,325.000,797.222,0.000,N
1606,-0.780,0.860,-0.880,169.444,100.000,363.889,800.000,2.778,N
1607,-0.670,0.820,-0.875,172.222,100.000,333.333,791.667,8.333,N
1608,-0.695,0.825,-0.920,163.889,100.000,341.667,794.444,2.778,N
1609,-0.790,0.745,-0.935,158.333,102.778,358.333,794.444,0.000,N
1610,-0.750,0.815,-0.880,155.556,97.222,350.000,786.111,8.333,N
1611,-0.690,0.740,-0.875,175.000,97.222,347.222,777.778,8.333,N
1612,-0.700,0.805,-0.905,169.444,100.000,344.444,777.778,0.000,N
1613,-0.755,0.850,-0.870,169.444,97.222,322.222,788.889,11.111,N
1614,-0.670,0.845,-0.830,166.667,100.000,341.667,780.556,8.333,N
1615,-0.685,0.820,-0.880,163.889,97.222,336.111,802.778,22.222,N
1616,-0.720,0.805,-0.895,180.556,100.000,358.333,813.889,11.111,N
1617,-0.720,0.785,-0.900,158.333,100.000,352.778,805.556,8.333,N
1618,-0.750,0.760,-0.920,180.556,100.000,361.111,863.889,58.333,N
1619,-0.735,0.840,-0.890,177.778,105.556,363.889,825.000,38.889,N
1620,-0.675,0.845,-0.825,163.889,97.222,336.111,794.444,30.556,N
1621,-0.690,0.810,-0.860,188.889,100.000,350.000,788.889,5.556,N
1622,-0.670,0.855,-0.850,169.444,97.222,372.222,811.111,22.222,N
1623,-0.650,0.845,-0.860,169.444,97.222,358.333,811.111,0.000,N
1624,-0.770,0.735,-0.955,161.111,100.000,380.556,816.667,5.556,N
1625,-0.795,0.765,-0.895,161.111,100.000,350.000,830.556,13.889,N
1626,-0.700,0.810,-0.860,161.111,102.778,336.111,783.333,47.222,N
1627,-0.740,0.760,-0.910,147.222,97.222,325.000,772.222,11.111,N
1628,-0.745,0.770,-0.910,186.111,102.778,350.000,847.222,75.000,N
1629,-0.750,0.780,-0.925,175.000,100.000,361.111,850.000,2.778,N
1630,-0.715,0.845,-0.820,161.111,97.222,350.000,850.000,0.000,N
1631,-0.645,0.885,-0.815,163.889,100.000,350.000,802.778,47.222,N
1632,-0.665,0.860,-0.875,166.667,97.222,336.111,808.333,5.556,N
1633,-0.675,0.900,-0.835,166.667,100.000,338.889,797.222,11.111,N
1634,-0.615,0.890,-0.825,177.778,100.000,363.889,780.556,16.667,N
1635,-0.640,0.845,-0.820,161.111,102.778,341.667,786.111,5.556,N
1636,-0.665,0.850,-0.815,158.333,97.222,361.111,783.333,2.778,N
1637,-0.605,0.965,-0.765,166.667,100.000,338.889,788.889,5.556,N
1638,-0.595,0.860,-0.780,183.333,97.222,350.000,783.333,5.556,N
1639,-0.670,0.815,-0.835,177.778,97.222,358.333,794.444,11.111,N
1640,-0.620,0.930,-0.780,172.222,105.556,338.889,794.444,0.000,N
1641,-0.590,0.905,-0.810,155.556,100.000,380.556,755.556,38.889,N
1642,-0.655,0.835,-0.860,169.444,100.000,358.333,788.889,33.333,N
1643,-0.710,0.805,-0.870,161.111,97.222,347.222,777.778,11.111,N
1644,-0.665,0.885,-0.805,152.778,97.222,358.333,794.444,16.667,N
1645,-0.625,0.900,-0.775,158.333,97.222,347.222,780.556,13.889,N
1646,-0.625,0.850,-0.825,158.333,97.222,347.222,788.889,8.333,N
1647,-0.660,0.915,-0.790,166.667,97.222,336.111,777.778,11.111,N
1648,-0.585,0.945,-0.760,161.111,100.000,366.667,772.222,5.556,N
1649,-0.625,0.840,-0.845,172.222,100.000,363.889,772.222,0.000,N
1650,-0.675,0.865,-0.840,158.333,97.222,347.222,752.778,19.444,N
1651,-0.670,0.870,-0.785,150.000,94.444,319.444,750.000,2.778,N
1652,-0.585,0.885,-0.720,169.444,100.000,336.111,727.778,22.222,N
1653,-0.580,0.875,-0.790,161.111,100.000,341.667,727.778,0.000,N
1654,-0.675,0.835,-0.850,161.111,100.000,352.778,727.778,0.000,N
1655,-0.675,0.885,-0.830,169.444,97.222,341.667,733.333,5.556,N
1656,-0.565,0.970,-0.720,161.111,97.222,352.778,733.333,0.000,N
1657,-0.540,0.915,-0.680,158.333,97.222,327.778,725.000,8.333,N
1658,-0.535,0.900,-0.765,161.111,100.000,350.000,708.333,16.667,N
1659,-0.635,0.875,-0.820,166.667,100.000,338.889,711.111,2.778,N
1660,-0.685,0.820,-0.840,158.333,100.000,350.000,722.222,11.111,N
1661,-0.640,0.910,-0.800,166.667,97.222,338.889,713.889,8.333,N
1662,-0.620,0.855,-0.775,152.778,102.778,333.333,708.333,5.556,N
1663,-0.610,0.890,-0.795,150.000,94.444,325.000,700.000,8.333,N
1664,-0.645,0.835,-0.835,163.889,100.000,347.222,713.889,13.889,N
1665,-0.675,0.860,-0.805,147.222,97.222,338.889,716.667,2.778,N
1666,-0.630,0.875,-0.745,152.778,97.222,325.000,711.111,5.556,N
1667,-0.615,0.850,-0.790,150.000,97.222,327.778,697.222,13.889,N
1668,-0.670,0.825,-0.850,152.778,100.000,327.778,733.333,36.111,N
1669,-0.680,0.845,-0.820,161.111,97.222,344.444,711.111,22.222,N
1670,-0.660,0.875,-0.780,155.556,100.000,330.556,722.222,11.111,N
1671,-0.580,0.880,-0.755,161.111,97.222,347.222,713.889,8.333,N
1672,-0.630,0.855,-0.815,158.333,100.000,358.333,758.333,44.444,N
1673,-0.670,0.835,-0.825,163.889,100.000,333.333,719.444,38.889,N
1674,-0.615,0.955,-0.750,158.333,94.444,322.222,747.222,27.778,N
1675,-0.580,0.920,-0.800,172.222,100.000,369.444,725.000,22.222,N
1676,-0.670,0.885,-0.850,158.333,100.000,344.444,755.556,30.556,N
1677,-0.680,0.845,-0.860,172.222,97.222,336.111,744.444,11.111,N
1678,-0.655,0.910,-0.805,166.667,100.000,377.778,755.556,11.111,N
1679,-0.680,0.805,-0.905,155.556,100.000,361.111,752.778,2.778,N
1680,-0.735,0.785,-0.885,150.000,97.222,352.778,733.333,19.444,N
1681,-0.715,0.880,-0.845,169.444,97.222,347.222,752.778,19.444,N
1682,-0.665,0.900,-0.815,161.111,102.778,341.667,733.333,19.444,N
1683,-0.675,0.850,-0.905,163.889,97.222,344.444,758.333,25.000,N
1684,-0.725,0.835,-0.905,169.444,97.222,341.667,744.444,13.889,N
1685,-0.715,0.885,-0.805,147.222,97.222,352.778,750.000,5.556,N
1686,-0.600,0.945,-0.725,169.444,97.222,347.222,738.889,11.111,N
1687,-0.570,0.885,-0.785,158.333,100.000,325.000,733.333,5.556,N
1688,-0.640,0.890,-0.835,161.111,100.000,336.111,744.444,11.111,N
1689,-0.710,0.860,-0.860,163.889,94.444,333.333,738.889,5.556,N
1690,-0.650,0.920,-0.785,172.222,100.000,361.111,772.222,33.333,N
1691,-0.565,0.920,-0.750,152.778,100.000,361.111,741.667,30.556,N
1692,-0.605,0.950,-0.815,163.889,94.444,336.111,747.222,5.556,N
1693,-0.620,0.895,-0.805,175.000,102.778,369.444,744.444,2.778,N
1694,-0.625,0.970,-0.745,150.000,102.778,330.556,769.444,25.000,N
1695,-0.550,0.980,-0.705,161.111,97.222,347.222,750.000,19.444,N
1696,-0.555,0.930,-0.770,161.111,94.444,333.333,741.667,8.333,N
1697,-0.625,0.890,-0.830,177.778,100.000,355.556,780.556,38.889,N
1698,-0.645,0.915,-0.765,152.778,97.222,330.556,766.667,13.889,N
1699,-0.630,0.870,-0.800,175.000,97.222,330.556,761.111,5.556,N
1700,-0.630,0.905,-0.820,161.111,100.000,352.778,783.333,22.222,N
1701,-0.645,0.975,-0.755,158.333,97.222,336.111,811.111,27.778,N
1702,-0.560,0.975,-0.710,155.556,97.222,352.778,786.111,25.000,N
1703,-0.560,0.885,-0.805,169.444,97.222,336.111,780.556,5.556,N
1704,-0.625,0.975,-0.760,169.444,100.000,366.667,833.333,52.778,N
1705,-0.545,1.045,-0.710,163.889,100.000,347.222,797.222,36.111,N
1706,-0.550,0.955,-0.760,177.778,100.000,330.556,816.667,19.444,N
1707,-0.585,0.955,-0.740,183.333,100.000,352.778,811.111,5.556,N
1708,-0.495,1.040,-0.650,169.444,97.222,355.556,825.000,13.889,N
1709,-0.520,1.020,-0.740,169.444,97.222,344.444,808.333,16.667,N
1710,-0.625,0.850,-0.895,169.444,100.000,344.444,808.333,0.000,N
1711,-0.700,0.900,-0.770,169.444,97.222,363.889,841.667,33.333,N
1712,-0.560,0.925,-0.775,186.111,97.222,350.000,819.444,22.222,N
1713,-0.590,0.870,-0.760,183.333,97.222,350.000,827.778,8.333,N
1714,-0.585,0.985,-0.680,188.889,97.222,358.333,833.333,5.556,N
1715,-0.490,0.985,-0.630,172.222,97.222,363.889,788.889,44.444,N
1716,-0.505,0.965,-0.740,177.778,94.444,316.667,775.000,13.889,N
1717,-0.540,0.940,-0.755,177.778,102.778,336.111,761.111,13.889,N
1718,-0.590,0.955,-0.700,180.556,100.000,327.778,769.444,8.333,N
1719,-0.505,1.010,-0.645,166.667,97.222,341.667,752.778,16.667,N
1720,-0.495,0.965,-0.690,158.333,97.222,352.778,758.333,5.556,N
1721,-0.535,0.985,-0.690,169.444,102.778,363.889,783.333,25.000,N
1722,-0.495,1.065,-0.590,163.889,100.000,338.889,763.889,19.444,N
1723,-0.405,1.080,-0.615,172.222,94.444,327.778,733.333,30.556,N
1724,-0.475,0.935,-0.720,177.778,100.000,347.222,750.000,16.667,N
1725,-0.565,0.880,-0.790,166.667,100.000,336.111,752.778,2.778,N
1726,-0.625,0.900,-0.740,172.222,97.222,355.556,744.444,8.333,N
1727,-0.560,0.980,-0.660,152.778,100.000,327.778,736.111,8.333,N
1728,-0.465,1.015,-0.590,169.444,100.000,363.889,727.778,8.333,N
1729,-0.430,0.975,-0.730,158.333,97.222,377.778,716.667,11.111,N
1730,-0.580,0.890,-0.780,152.778,100.000,350.000,725.000,8.333,N
1731,-0.620,0.945,-0.730,161.111,97.222,350.000,736.111,11.111,N
1732,-0.555,0.940,-0.690,163.889,100.000,347.222,736.111,0.000,N
1733,-0.540,0.945,-0.780,161.111,97.222,338.889,711.111,25.000,N
1734,-0.655,0.845,-0.850,161.111,97.222,341.667,730.556,19.444,N
1735,-0.685,0.825,-0.815,158.333,102.778,355.556,730.556,0.000,N
1736,-0.635,0.885,-0.750,175.000,94.444,325.000,752.778,22.222,N
1737,-0.580,0.895,-0.745,172.222,102.778,366.667,736.111,16.667,N
1738,-0.585,0.880,-0.775,152.778,97.222,347.222,741.667,5.556,N
1739,-0.635,0.870,-0.795,169.444,100.000,344.444,747.222,5.556,N
1740,-0.590,0.955,-0.750,163.889,100.000,344.444,763.889,16.667,N
1741,-0.600,0.885,-0.790,152.778,100.000,352.778,758.333,5.556,N
1742,-0.665,0.870,-0.835,158.333,100.000,347.222,775.000,16.667,N
1743,-0.670,0.845,-0.845,166.667,94.444,327.778,783.333,8.333,N
1744,-0.660,0.845,-0.835,177.778,97.222,347.222,775.000,8.333,N
1745,-0.640,0.835,-0.840,172.222,100.000,341.667,747.222,27.778,N
1746,-0.685,0.770,-0.870,175.000,100.000,363.889,741.667,5.556,N
1747,-0.710,0.795,-0.905,175.000,94.444,333.333,763.889,22.222,N
1748,-0.745,0.810,-0.890,166.667,100.000,347.222,755.556,8.333,N
1749,-0.690,0.835,-0.830,163.889,97.222,350.000,733.333,22.222,N
1750,-0.640,0.905,-0.780,172.222,102.778,344.444,744.444,11.111,N
1751,-0.665,0.855,-0.880,152.778,97.222,386.111,747.222,2.778,N
1752,-0.725,0.770,-0.905,152.778,97.222,350.000,733.333,13.889,N
1753,-0.705,0.835,-0.830,144.444,94.444,355.556,761.111,27.778,N
1754,-0.680,0.770,-0.865,155.556,100.000,352.778,769.444,8.333,N
1755,-0.745,0.710,-0.985,172.222,100.000,333.333,730.556,38.889,N
1756,-0.800,0.705,-0.780,169.444,97.222,-1283483.333,763.889,33.333,N
1757,-0.835,0.690,-0.780,180.556,100.000,-1284261.111,780.556,16.667,N
1758,-0.815,0.760,-0.960,169.444,100.000,336.111,786.111,5.556,N
1759,-0.805,0.700,-0.780,180.556,102.778,-1285841.667,797.222,11.111,N
1760,-0.830,0.695,-0.965,161.111,100.000,352.778,783.333,13.889,N
1761,-0.765,0.715,-0.930,163.889,97.222,333.333,780.556,2.778,N
1762,-0.745,0.730,-0.970,166.667,100.000,336.111,738.889,41.667,N
1763,-0.815,0.680,-0.995,161.111,100.000,350.000,758.333,19.444,N
1764,-0.830,0.690,-0.935,152.778,100.000,355.556,755.556,2.778,N
1765,-0.755,0.745,-0.910,166.667,100.000,338.889,750.000,5.556,N
1766,-0.720,0.790,-0.915,166.667,97.222,341.667,730.556,19.444,N
1767,-0.765,0.775,-0.935,161.111,97.222,341.667,730.556,0.000,N
1768,-0.775,0.785,-0.925,166.667,100.000,338.889,741.667,11.111,N
1769,-0.730,0.810,-0.865,163.889,102.778,350.000,730.556,11.111,N
1770,-0.685,0.750,-0.765,155.556,75.000,86.111,722.222,8.333,N
1771,-0.720,0.745,-0.930,166.667,100.000,338.889,716.667,5.556,N
1772,-0.780,0.780,-0.920,169.444,100.000,358.333,741.667,25.000,N
1773,-0.710,0.870,-0.790,158.333,100.000,344.444,716.667,25.000,N
1774,-0.605,0.885,-0.750,150.000,100.000,336.111,713.889,2.778,N
1775,-0.580,0.910,-0.780,155.556,100.000,372.222,722.222,8.333,N
1776,-0.655,0.855,-0.845,163.889,100.000,325.000,747.222,25.000,N
1777,-0.685,0.805,-0.840,161.111,97.222,341.667,719.444,27.778,N
1778,-0.620,0.875,-0.770,155.556,100.000,325.000,725.000,5.556,N
1779,-0.550,0.860,-0.620,163.889,77.778,88.889,725.000,0.000,N
1780,-0.550,0.915,-0.745,152.778,94.444,344.444,747.222,22.222,N
1781,-0.570,0.890,-0.765,158.333,102.778,358.333,730.556,16.667,N
1782,-0.630,0.930,-0.780,144.444,94.444,330.556,722.222,8.333,N
1783,-0.565,0.890,-0.750,169.444,100.000,338.889,725.000,2.778,N
1784,-0.570,0.835,-0.805,144.444,97.222,358.333,711.111,13.889,N
1785,-0.690,0.820,-0.885,161.111,94.444,336.111,725.000,13.889,N
1786,-0.695,0.895,-0.830,161.111,102.778,336.111,730.556,5.556,N
1787,-0.635,0.860,-0.775,172.222,97.222,336.111,741.667,11.111,N
1788,-0.590,0.875,-0.755,155.556,100.000,355.556,713.889,27.778,N
1789,-0.620,0.870,-0.790,152.778,97.222,350.000,733.333,19.444,N
1790,-0.610,0.920,-0.770,152.778,97.222,352.778,730.556,2.778,N
1791,-0.560,1.010,-0.720,163.889,100.000,341.667,750.000,19.444,N
1792,-0.565,0.920,-0.730,158.333,100.000,361.111,719.444,30.556,N
1793,-0.605,0.920,-0.815,155.556,100.000,319.444,736.111,16.667,N
1794,-0.655,0.910,-0.820,158.333,97.222,336.111,708.333,27.778,N
1795,-0.610,0.920,-0.760,161.111,100.000,322.222,730.556,22.222,N
1796,-0.550,0.920,-0.730,152.778,97.222,361.111,716.667,13.889,N
1797,-0.545,0.930,-0.790,155.556,97.222,319.444,716.667,0.000,N
1798,-0.620,0.895,-0.810,166.667,102.778,338.889,736.111,19.444,N
1799,-0.610,0.940,-0.760,163.889,94.444,341.667,727.778,8.333,N
1800,-0.580,0.915,-0.745,158.333,97.222,338.889,711.111,16.667,N
1801,-0.575,0.885,-0.805,169.444,97.222,366.667,705.556,5.556,N
1802,-0.655,0.850,-0.855,172.222,102.778,336.111,738.889,33.333,N
1803,-0.660,0.900,-0.860,166.667,97.222,344.444,725.000,13.889,N
1804,-0.665,0.920,-0.815,163.889,100.000,366.667,730.556,5.556,N
1805,-0.585,0.940,-0.780,144.444,100.000,336.111,708.333,22.222,N
1806,-0.585,0.930,-0.800,169.444,97.222,336.111,730.556,22.222,N
1807,-0.650,0.825,-0.870,155.556,97.222,350.000,716.667,13.889,N
1808,-0.665,0.900,-0.825,158.333,100.000,358.333,730.556,13.889,N
1809,-0.610,0.955,-0.770,152.778,100.000,377.778,741.667,11.111,N
1810,-0.565,0.965,-0.700,150.000,97.222,358.333,755.556,13.889,N
1811,-0.530,0.990,-0.740,155.556,97.222,341.667,719.444,36.111,N
1812,-0.590,0.950,-0.785,161.111,100.000,347.222,730.556,11.111,N
1813,-0.590,0.995,-0.770,163.889,100.000,372.222,741.667,11.111,N
1814,-0.560,0.940,-0.745,172.222,102.778,358.333,741.667,0.000,N
1815,-0.545,0.910,-0.760,152.778,100.000,363.889,736.111,5.556,N
1816,-0.630,0.890,-0.865,161.111,97.222,330.556,725.000,11.111,N
1817,-0.690,0.885,-0.865,169.444,100.000,341.667,730.556,5.556,N
1818,-0.680,0.925,-0.835,163.889,97.222,344.444,730.556,0.000,N
1819,-0.635,0.925,-0.760,163.889,100.000,344.444,733.333,2.778,N
1820,-0.595,0.875,-0.775,158.333,100.000,350.000,727.778,5.556,N
1821,-0.635,0.850,-0.870,166.667,102.778,377.778,741.667,13.889,N
1822,-0.695,0.805,-0.885,158.333,97.222,330.556,722.222,19.444,N
1823,-0.705,0.865,-0.840,169.444,97.222,333.333,719.444,2.778,N
1824,-0.650,0.840,-0.810,152.778,100.000,355.556,713.889,5.556,N
1825,-0.670,0.865,-0.850,163.889,94.444,322.222,758.333,44.444,N
1826,-0.675,0.855,-0.850,169.444,100.000,372.222,725.000,33.333,N
1827,-0.660,0.895,-0.780,152.778,97.222,319.444,716.667,8.333,N
1828,-0.595,0.900,-0.750,161.111,97.222,350.000,708.333,8.333,N
1829,-0.565,0.895,-0.770,150.000,97.222,330.556,716.667,8.333,N
1830,-0.635,0.865,-0.850,155.556,100.000,319.444,711.111,5.556,N
1831,-0.665,0.895,-0.840,163.889,100.000,350.000,708.333,2.778,N
1832,-0.665,0.920,-0.775,158.333,100.000,325.000,722.222,13.889,N
1833,-0.580,0.940,-0.740,147.222,97.222,347.222,702.778,19.444,N
1834,-0.575,0.895,-0.740,163.889,100.000,341.667,686.111,16.667,N
1835,-0.595,0.900,-0.800,161.111,97.222,333.333,700.000,13.889,N
1836,-0.655,0.830,-0.810,158.333,102.778,358.333,716.667,16.667,N
1837,-0.660,0.890,-0.780,150.000,97.222,327.778,697.222,19.444,N
1838,-0.610,0.815,-0.755,166.667,75.000,333.333,691.667,5.556,N
1839,-0.585,0.860,-0.740,144.444,100.000,330.556,669.444,22.222,N
1840,-0.640,0.840,-0.840,163.889,97.222,327.778,697.222,27.778,N
1841,-0.685,0.775,-0.855,150.000,100.000,325.000,680.556,16.667,N
1842,-0.700,0.840,-0.805,150.000,97.222,361.111,691.667,11.111,N
1843,-0.665,0.765,-0.805,155.556,102.778,319.444,677.778,13.889,N
1844,-0.620,0.810,-0.780,163.889,100.000,338.889,677.778,0.000,N
1845,-0.695,0.755,-0.875,152.778,100.000,333.333,677.778,0.000,N
1846,-0.760,0.670,-0.950,147.222,97.222,327.778,672.222,5.556,N
1847,-0.740,0.730,-0.935,144.444,100.000,330.556,661.111,11.111,N
1848,-0.775,0.700,-0.910,152.778,100.000,355.556,672.222,11.111,N
1849,-0.740,0.715,-0.770,144.444,72.222,83.333,658.333,13.889,N
1850,-0.705,0.670,-0.910,150.000,100.000,308.333,680.556,22.222,N
1851,-0.780,0.645,-0.950,152.778,97.222,308.333,641.667,38.889,N
1852,-0.800,0.710,-0.925,163.889,102.778,344.444,669.444,27.778,N
1853,-0.760,0.635,-0.810,141.667,69.444,361.111,644.444,25.000,N
1854,-0.640,0.715,-0.875,147.222,100.000,330.556,672.222,27.778,N
