id,Pamp,Ramp,Tamp,PR,QRS,QT,RRI,dRRI,label
1,-0.320,2.225,-0.430,3066.667,69.444,277.778,741.667,25.000,N
2,-0.320,2.120,-0.370,3802.778,75.000,280.556,736.111,5.556,N
3,-0.320,2.240,-0.335,4552.778,83.333,305.556,750.000,13.889,N
4,-0.320,1.990,-0.490,5302.778,75.000,286.111,750.000,0.000,N
5,-0.320,2.065,-0.565,6055.556,66.667,258.333,752.778,2.778,N
6,-0.320,2.285,-0.460,6797.222,72.222,277.778,741.667,11.111,N
7,-0.320,1.640,-0.290,7550.000,83.333,311.111,752.778,11.111,N
8,-0.860,2.345,-0.165,127.778,66.667,283.333,747.222,5.556,N
9,-0.835,2.310,-0.185,127.778,75.000,280.556,744.444,2.778,N
10,-0.930,2.485,-0.390,130.556,63.889,275.000,761.111,16.667,N
11,-0.985,2.295,-0.305,133.333,66.667,272.222,741.667,19.444,N
12,-0.905,2.475,-0.290,125.000,66.667,286.111,752.778,11.111,N
13,-0.880,2.305,-0.235,133.333,66.667,280.556,769.444,16.667,N
14,-0.925,2.235,-0.340,136.111,80.556,283.333,750.000,19.444,N
15,-0.320,2.140,-0.395,13572.222,80.556,300.000,755.556,5.556,N
16,-0.900,2.375,-0.260,136.111,77.778,291.667,772.222,16.667,N
17,-0.320,2.290,-0.425,15094.444,83.333,280.556,750.000,22.222,N
18,-0.320,2.070,-0.290,15850.000,80.556,286.111,755.556,5.556,N
19,-0.840,2.485,-0.265,119.444,69.444,283.333,752.778,2.778,N
20,-0.890,2.365,-0.270,130.556,66.667,277.778,769.444,16.667,N
21,-0.990,2.295,-0.445,130.556,69.444,277.778,772.222,2.778,N
22,-0.320,1.970,-0.435,18894.444,83.333,294.444,750.000,22.222,N
23,-0.320,2.385,-0.320,19680.556,77.778,294.444,786.111,36.111,N
24,-0.320,2.340,-0.365,20444.444,66.667,280.556,763.889,22.222,N
25,-0.320,2.280,-0.575,21202.778,58.333,252.778,758.333,5.556,N
26,-0.320,2.180,-0.470,21972.222,61.111,277.778,769.444,11.111,N
27,-0.320,2.325,-0.445,22730.556,86.111,291.667,758.333,11.111,N
28,-0.320,2.235,-0.390,23491.667,86.111,313.889,761.111,2.778,N
29,-0.320,2.340,-0.415,24272.222,61.111,277.778,780.556,19.444,N
30,-0.320,2.285,-0.485,25027.778,83.333,291.667,755.556,25.000,N
31,-0.320,2.165,-0.395,25786.111,83.333,294.444,758.333,2.778,N
32,-0.985,2.420,-0.290,130.556,77.778,283.333,772.222,13.889,N
33,-0.870,2.590,-0.330,113.889,63.889,269.444,750.000,22.222,N
34,-0.320,2.150,-0.230,28058.333,75.000,272.222,750.000,0.000,N
35,-0.855,2.545,-0.220,136.111,63.889,263.889,752.778,2.778,N
36,-0.940,2.240,-0.370,136.111,83.333,297.222,752.778,0.000,N
37,-0.910,2.475,-0.205,130.556,86.111,288.889,763.889,11.111,N
38,-0.875,2.425,-0.305,136.111,63.889,275.000,750.000,13.889,N
39,-0.320,2.240,-0.455,31833.333,83.333,288.889,755.556,5.556,N
40,-0.975,2.220,-0.305,133.333,83.333,297.222,761.111,5.556,N
41,-0.890,2.425,-0.265,127.778,77.778,275.000,772.222,11.111,N
42,-0.320,2.225,-0.570,34119.444,63.889,272.222,752.778,19.444,N
43,-0.320,1.275,-0.880,34863.889,75.000,280.556,744.444,8.333,N
44,-0.320,0.625,-0.520,35625.000,69.444,288.889,761.111,16.667,N
45,-0.800,1.975,-0.155,138.889,66.667,280.556,797.222,36.111,N
46,-0.715,2.165,-0.100,136.111,63.889,283.333,763.889,33.333,N
47,-0.775,2.250,-0.210,138.889,77.778,308.333,775.000,11.111,N
48,-0.960,2.280,-0.430,127.778,61.111,277.778,788.889,13.889,N
49,-0.320,2.070,-0.670,39502.778,80.556,283.333,752.778,36.111,N
50,-0.320,2.185,-0.440,40269.444,83.333,288.889,766.667,13.889,N
51,-0.320,2.380,-0.410,41033.333,72.222,277.778,763.889,2.778,N
52,-0.320,2.315,-0.530,41791.667,69.444,283.333,758.333,5.556,N
53,-0.320,2.065,-0.495,42552.778,69.444,283.333,761.111,2.778,N
54,-0.320,2.365,-0.300,43305.556,77.778,286.111,752.778,8.333,N
55,-0.940,2.370,-0.380,136.111,66.667,288.889,758.333,5.556,N
56,-0.320,2.150,-0.440,44825.000,63.889,275.000,761.111,2.778,N
57,-0.910,2.470,-0.270,127.778,75.000,283.333,772.222,11.111,N
58,-0.895,2.275,-0.300,141.667,86.111,286.111,752.778,19.444,N
59,-0.320,2.155,-0.430,47091.667,63.889,277.778,741.667,11.111,N
60,-0.320,2.410,-0.290,47858.333,66.667,283.333,766.667,25.000,N
61,-0.870,2.455,-0.210,136.111,83.333,286.111,786.111,19.444,N
62,-0.875,2.415,-0.270,138.889,83.333,291.667,769.444,16.667,N
63,-0.910,2.500,-0.345,141.667,63.889,294.444,777.778,8.333,N
64,-0.985,2.520,-0.295,130.556,77.778,288.889,783.333,5.556,N
65,-0.940,2.485,-0.350,119.444,58.333,266.667,780.556,2.778,N
66,-0.985,2.380,-0.400,127.778,75.000,286.111,780.556,0.000,N
67,-0.320,2.360,-0.445,53300.000,63.889,277.778,763.889,16.667,N
68,-0.320,2.445,-0.410,54080.556,80.556,286.111,780.556,16.667,N
69,-0.320,2.450,-0.400,54869.444,63.889,277.778,788.889,8.333,N
70,-0.320,2.340,-0.470,55627.778,63.889,277.778,758.333,30.556,N
71,-0.980,2.550,-0.310,127.778,69.444,286.111,775.000,16.667,N
72,-0.955,2.570,-0.330,138.889,86.111,305.556,786.111,11.111,N
73,-0.965,2.470,-0.375,119.444,61.111,258.333,769.444,16.667,N
74,-0.320,2.480,-0.450,58736.111,66.667,277.778,777.778,8.333,N
75,-0.320,2.405,-0.530,59502.778,66.667,283.333,766.667,11.111,N
76,-0.320,2.295,-0.515,60275.000,75.000,283.333,772.222,5.556,N
77,-0.320,2.410,-0.350,61066.667,83.333,302.778,791.667,19.444,N
78,-0.970,2.565,-0.370,133.333,63.889,272.222,775.000,16.667,N
79,-0.320,2.470,-0.385,62636.111,72.222,286.111,794.444,19.444,N
80,-0.320,2.505,-0.420,63402.778,63.889,275.000,766.667,27.778,N
81,-0.320,2.295,-0.415,64158.333,61.111,269.444,755.556,11.111,N
82,-0.830,2.585,-0.145,127.778,66.667,280.556,783.333,27.778,N
83,-0.840,2.635,-0.235,122.222,63.889,272.222,763.889,19.444,N
84,-0.320,2.350,-0.450,66472.222,69.444,291.667,766.667,2.778,N
85,-0.320,2.330,-0.370,67241.667,66.667,283.333,769.444,2.778,N
86,-0.320,2.315,-0.540,68002.778,66.667,277.778,761.111,8.333,N
87,-0.320,2.330,-0.375,68783.333,69.444,280.556,780.556,19.444,N
88,-0.960,2.495,-0.325,136.111,86.111,302.778,780.556,0.000,N
89,-0.320,2.290,-0.420,70308.333,86.111,300.000,744.444,36.111,N
90,-0.905,2.425,-0.200,136.111,75.000,280.556,777.778,33.333,N
91,-0.885,2.530,-0.110,133.333,77.778,286.111,766.667,11.111,N
92,-0.895,2.450,-0.270,144.444,69.444,283.333,786.111,19.444,N
93,-0.320,2.185,-0.490,73397.222,80.556,283.333,758.333,27.778,N
94,-0.320,2.360,-0.255,74158.333,72.222,280.556,761.111,2.778,N
95,-0.975,2.290,-0.440,122.222,63.889,277.778,788.889,27.778,N
96,-0.320,2.215,-0.475,75705.556,80.556,300.000,758.333,30.556,N
97,-0.980,2.320,-0.305,138.889,80.556,291.667,758.333,0.000,N
98,-0.320,2.345,-0.425,77227.778,80.556,286.111,763.889,5.556,N
99,-0.980,2.380,-0.225,127.778,66.667,280.556,758.333,5.556,N
100,-0.320,2.215,-0.650,78763.889,77.778,286.111,777.778,19.444,N
101,-0.320,1.925,-0.515,79513.889,61.111,277.778,750.000,27.778,N
102,-0.320,2.080,-0.590,80263.889,77.778,308.333,750.000,0.000,N
103,-0.320,2.190,-0.665,81038.889,83.333,291.667,775.000,25.000,N
104,-0.320,1.405,-0.435,81794.444,83.333,291.667,755.556,19.444,N
105,-0.840,2.085,-0.160,138.889,83.333,311.111,744.444,11.111,N
106,-0.725,2.480,-0.170,136.111,75.000,280.556,758.333,13.889,N
107,-0.900,2.090,-0.315,130.556,63.889,283.333,752.778,5.556,N
108,-0.810,2.240,-0.190,133.333,72.222,286.111,777.778,25.000,N
109,-0.780,2.455,-0.270,130.556,66.667,283.333,763.889,13.889,N
110,-0.975,2.360,-0.410,136.111,80.556,305.556,752.778,11.111,N
111,-0.940,2.385,-0.330,130.556,63.889,283.333,780.556,27.778,N
112,-0.900,2.295,-0.390,136.111,69.444,280.556,772.222,8.333,N
113,-0.320,2.285,-0.550,88644.444,86.111,302.778,747.222,25.000,N
114,-0.320,2.105,-0.375,89405.556,80.556,280.556,761.111,13.889,N
115,-0.955,2.310,-0.400,130.556,66.667,280.556,755.556,5.556,N
116,-0.320,2.130,-0.535,90938.889,75.000,280.556,777.778,22.222,N
117,-0.320,2.290,-0.465,91688.889,61.111,277.778,750.000,27.778,N
118,-0.320,2.405,-0.415,92447.222,66.667,291.667,758.333,8.333,N
119,-0.995,2.375,-0.455,136.111,80.556,288.889,791.667,33.333,N
120,-0.320,2.330,-0.440,94008.333,80.556,283.333,769.444,22.222,N
121,-0.320,2.280,-0.410,94775.000,83.333,288.889,766.667,2.778,N
122,-0.975,2.310,-0.500,138.889,83.333,280.556,772.222,5.556,N
123,-0.320,2.405,-0.580,96322.222,69.444,288.889,775.000,2.778,N
124,-0.320,2.230,-0.445,97105.556,77.778,283.333,783.333,8.333,N
125,0.350,2.610,-0.320,58.333,116.667,-97530.556,483.333,300.000,V
126,-0.920,2.550,-0.090,144.444,83.333,330.556,1066.667,583.333,N
127,-0.320,2.405,-0.515,99425.000,61.111,280.556,769.444,297.222,N
128,0.220,2.510,-0.320,58.333,116.667,-99850.000,483.333,286.111,V
129,-0.925,2.485,-0.155,113.889,83.333,322.222,1044.444,561.111,N
130,-0.980,2.435,-0.565,136.111,58.333,261.111,761.111,283.333,N
131,-0.320,1.980,-0.550,102466.667,69.444,283.333,752.778,8.333,N
132,-0.320,2.355,-0.445,103244.444,66.667,275.000,777.778,25.000,N
133,-0.990,2.240,-0.430,125.000,69.444,280.556,755.556,22.222,N
134,-0.320,2.445,-0.515,104775.000,72.222,283.333,775.000,19.444,N
135,-0.320,2.225,-0.540,105538.889,72.222,286.111,763.889,11.111,N
136,-0.320,2.465,-0.405,106291.667,83.333,302.778,752.778,11.111,N
137,-0.320,2.420,-0.485,107055.556,80.556,277.778,763.889,11.111,N
138,-0.320,2.525,-0.380,107813.889,83.333,288.889,758.333,5.556,N
139,-0.960,2.360,-0.445,133.333,72.222,286.111,766.667,8.333,N
140,-0.320,2.130,-0.395,109355.556,83.333,302.778,775.000,8.333,N
141,-0.820,2.380,-0.250,138.889,80.556,283.333,766.667,8.333,N
142,-0.805,2.480,-0.180,141.667,61.111,283.333,780.556,13.889,N
143,-0.835,2.545,-0.280,130.556,69.444,291.667,769.444,11.111,N
144,-0.930,2.435,-0.500,127.778,80.556,283.333,775.000,5.556,N
145,-0.320,2.165,-0.455,113216.667,80.556,286.111,769.444,5.556,N
146,-0.970,2.505,-0.420,127.778,66.667,280.556,761.111,8.333,N
147,-0.975,2.405,-0.525,136.111,77.778,308.333,777.778,16.667,N
148,-0.320,2.475,-0.460,115536.111,61.111,277.778,780.556,2.778,N
149,-0.320,2.485,-0.525,116300.000,61.111,258.333,763.889,16.667,N
150,-0.320,2.325,-0.530,117069.444,69.444,288.889,769.444,5.556,N
151,-0.320,2.305,-0.400,117838.889,63.889,283.333,769.444,0.000,N
152,-0.900,2.505,-0.310,130.556,80.556,288.889,752.778,16.667,N
153,-0.960,2.445,-0.420,133.333,75.000,280.556,761.111,8.333,N
154,-0.970,2.360,-0.370,125.000,69.444,283.333,761.111,0.000,N
155,-0.905,2.465,-0.345,130.556,69.444,283.333,769.444,8.333,N
156,-0.920,2.580,-0.345,127.778,61.111,277.778,788.889,19.444,N
157,-0.985,2.425,-0.380,136.111,83.333,300.000,766.667,22.222,N
158,-0.980,2.485,-0.480,141.667,69.444,283.333,780.556,13.889,N
159,-0.320,2.490,-0.470,123991.667,80.556,294.444,772.222,8.333,N
160,-0.320,2.550,-0.625,124750.000,66.667,277.778,758.333,13.889,N
161,-0.320,2.125,-0.555,125519.444,69.444,283.333,769.444,11.111,N
162,-0.320,2.635,-0.375,126280.556,63.889,275.000,761.111,8.333,N
163,-0.320,2.420,-0.545,127052.778,66.667,288.889,772.222,11.111,N
164,-0.320,2.165,-0.585,127830.556,75.000,283.333,777.778,5.556,N
165,-0.940,2.515,-0.395,133.333,80.556,291.667,763.889,13.889,N
166,-0.995,2.550,-0.405,144.444,63.889,280.556,791.667,27.778,N
167,-0.990,2.380,-0.400,136.111,69.444,283.333,775.000,16.667,N
168,-0.915,2.590,-0.380,133.333,69.444,280.556,766.667,8.333,N
169,-0.320,2.570,-0.455,131702.778,83.333,288.889,775.000,8.333,N
170,-0.895,2.540,-0.335,138.889,80.556,286.111,769.444,5.556,N
171,-0.935,2.530,-0.425,141.667,63.889,283.333,777.778,8.333,N
172,-0.955,2.535,-0.315,133.333,77.778,283.333,780.556,2.778,N
173,-0.900,2.640,-0.360,130.556,77.778,283.333,766.667,13.889,N
174,-0.320,2.340,-0.340,135561.111,72.222,286.111,763.889,2.778,N
175,-0.885,2.605,-0.255,130.556,72.222,283.333,772.222,8.333,N
176,-0.905,2.625,-0.285,125.000,63.889,277.778,755.556,16.667,N
177,-0.980,2.465,-0.385,133.333,83.333,280.556,755.556,0.000,N
178,-0.885,2.630,-0.200,136.111,80.556,283.333,761.111,5.556,N
179,-0.855,2.590,-0.270,133.333,66.667,277.778,758.333,2.778,N
180,-0.320,2.440,-0.535,140122.222,63.889,258.333,758.333,0.000,N
181,-0.320,2.160,-0.515,140872.222,83.333,291.667,750.000,8.333,N
182,-0.320,2.380,-0.350,141658.333,66.667,280.556,786.111,36.111,N
183,-0.910,2.300,-0.375,136.111,69.444,283.333,752.778,33.333,N
184,-0.990,2.215,-0.435,127.778,58.333,263.889,741.667,11.111,N
185,-0.815,2.245,-0.385,133.333,69.444,277.778,780.556,38.889,N
186,-0.980,2.145,-0.355,133.333,80.556,288.889,741.667,38.889,N
187,-0.960,2.265,-0.380,141.667,63.889,286.111,780.556,38.889,N
188,-0.990,2.290,-0.480,125.000,63.889,275.000,775.000,5.556,N
189,-0.320,2.225,-0.400,146983.333,80.556,283.333,752.778,22.222,N
190,-0.930,2.355,-0.380,136.111,75.000,286.111,786.111,33.333,N
191,-0.320,2.240,-0.445,148538.889,72.222,286.111,769.444,16.667,N
192,0.120,2.410,-0.320,58.333,113.889,-148952.778,472.222,297.222,V
193,-0.965,2.415,-0.090,130.556,69.444,305.556,1027.778,555.556,N
194,-0.320,2.100,-0.600,150800.000,66.667,277.778,761.111,266.667,N
195,-0.320,2.170,-0.490,151552.778,83.333,283.333,752.778,8.333,N
196,-0.320,2.365,-0.435,152308.333,77.778,286.111,755.556,2.778,N
197,-0.320,2.225,-0.530,153061.111,66.667,277.778,752.778,2.778,N
198,-0.320,2.215,-0.440,153827.778,83.333,280.556,766.667,13.889,N
199,-0.905,2.380,-0.310,133.333,77.778,283.333,750.000,16.667,N
200,-0.870,2.400,-0.295,113.889,58.333,283.333,744.444,5.556,N
201,0.300,2.570,-0.320,58.333,116.667,-156005.556,741.667,2.778,V
202,-0.950,2.405,-0.270,130.556,69.444,280.556,777.778,36.111,N
203,-0.320,2.430,-0.445,157611.111,75.000,283.333,769.444,8.333,N
204,0.390,2.545,-0.320,58.333,111.111,-158080.556,527.778,241.667,V
205,-0.970,2.270,-0.165,125.000,80.556,302.778,975.000,447.222,N
206,-0.320,2.295,-0.660,159886.111,83.333,283.333,772.222,202.778,N
207,-0.320,2.395,-0.440,160641.667,69.444,280.556,755.556,16.667,N
208,-0.320,2.285,-0.530,161372.222,72.222,288.889,730.556,25.000,N
209,-0.320,2.150,-0.650,162113.889,72.222,277.778,741.667,11.111,N
210,-0.320,2.275,-0.595,162858.333,63.889,272.222,744.444,2.778,N
211,-0.320,2.170,-0.595,163602.778,63.889,286.111,744.444,0.000,N
212,-0.320,2.165,-0.655,164338.889,61.111,277.778,736.111,8.333,N
213,-0.320,2.190,-0.395,165088.889,69.444,275.000,750.000,13.889,N
214,-0.980,2.330,-0.520,136.111,77.778,280.556,763.889,13.889,N
215,-0.320,1.985,-0.690,166588.889,75.000,297.222,736.111,27.778,N
216,-0.320,2.210,-0.495,167330.556,63.889,288.889,741.667,5.556,N
217,-0.320,2.430,-0.480,168094.444,83.333,288.889,763.889,22.222,N
218,-0.320,2.120,-0.550,168833.333,80.556,280.556,738.889,25.000,N
219,-0.990,2.355,-0.350,141.667,61.111,288.889,769.444,30.556,N
220,-0.990,2.235,-0.435,136.111,63.889,266.667,761.111,8.333,N
221,-0.320,2.245,-0.400,171102.778,63.889,261.111,738.889,22.222,N
222,-0.935,2.170,-0.425,141.667,66.667,277.778,772.222,33.333,N
223,-0.320,2.245,-0.580,172619.444,72.222,280.556,744.444,27.778,N
224,-0.320,2.270,-0.410,173355.556,80.556,294.444,736.111,8.333,N
225,-0.965,2.400,-0.460,119.444,83.333,277.778,752.778,16.667,N
226,-0.970,2.385,-0.495,133.333,63.889,277.778,747.222,5.556,N
227,-0.320,1.900,-0.590,175594.444,80.556,280.556,738.889,8.333,N
228,-0.320,2.280,-0.435,176347.222,61.111,277.778,752.778,13.889,N
229,-0.320,2.415,-0.530,177100.000,80.556,277.778,752.778,0.000,N
230,-0.320,2.050,-0.450,177863.889,80.556,277.778,763.889,11.111,N
231,-0.860,2.480,-0.335,127.778,72.222,288.889,752.778,11.111,N
232,-0.895,2.305,-0.470,125.000,66.667,283.333,736.111,16.667,N
233,-0.320,2.025,-0.490,180116.667,63.889,275.000,763.889,27.778,N
234,-0.950,2.410,-0.465,130.556,77.778,277.778,747.222,16.667,N
235,-0.320,2.495,-0.605,181633.333,66.667,283.333,769.444,22.222,N
236,-0.320,2.115,-0.465,182388.889,63.889,277.778,755.556,13.889,N
237,-0.975,2.450,-0.400,127.778,61.111,261.111,750.000,5.556,N
238,-0.995,2.510,-0.470,141.667,63.889,280.556,777.778,27.778,N
239,-0.320,2.505,-0.455,184666.667,77.778,291.667,750.000,27.778,N
240,-0.925,2.540,-0.380,113.889,63.889,272.222,744.444,5.556,N
241,-0.980,2.460,-0.440,133.333,72.222,283.333,750.000,5.556,N
242,-0.320,2.610,-0.350,186911.111,83.333,283.333,750.000,0.000,N
243,-0.880,2.520,-0.315,133.333,80.556,311.111,755.556,5.556,N
244,-0.910,2.630,-0.340,127.778,69.444,280.556,758.333,2.778,N
245,-0.935,2.640,-0.340,138.889,86.111,286.111,750.000,8.333,N
246,-0.885,2.605,-0.275,138.889,63.889,275.000,772.222,22.222,N
247,-0.860,2.730,-0.350,133.333,72.222,286.111,750.000,22.222,N
248,-0.990,2.625,-0.445,130.556,83.333,294.444,736.111,13.889,N
249,-0.905,2.625,-0.290,130.556,72.222,280.556,769.444,33.333,N
250,-0.915,2.635,-0.365,136.111,86.111,302.778,744.444,25.000,N
251,-0.950,2.690,-0.400,138.889,86.111,311.111,766.667,22.222,N
252,-0.320,2.525,-0.575,194472.222,77.778,288.889,758.333,8.333,N
253,-0.320,1.985,-0.565,195219.444,80.556,297.222,747.222,11.111,N
254,-0.975,2.505,-0.350,141.667,69.444,280.556,775.000,27.778,N
255,-0.860,2.405,-0.310,133.333,80.556,280.556,752.778,22.222,N
256,-0.880,2.535,-0.230,130.556,63.889,275.000,747.222,5.556,N
257,-0.790,2.615,-0.215,130.556,83.333,283.333,752.778,5.556,N
258,-0.965,2.435,-0.480,136.111,66.667,280.556,744.444,8.333,N
259,-0.965,2.475,-0.390,127.778,69.444,272.222,750.000,5.556,N
260,-0.890,2.695,-0.325,130.556,72.222,283.333,761.111,11.111,N
261,-0.990,2.420,-0.520,136.111,80.556,280.556,744.444,16.667,N
262,-0.970,2.310,-0.345,136.111,66.667,288.889,747.222,2.778,N
263,-0.965,2.380,-0.485,138.889,77.778,280.556,752.778,5.556,N
264,-0.320,2.255,-0.425,203494.444,66.667,261.111,747.222,5.556,N
265,-0.995,2.430,-0.405,136.111,75.000,280.556,750.000,2.778,N
266,-0.320,2.445,-0.535,204975.000,63.889,272.222,730.556,19.444,N
267,-0.320,2.360,-0.325,205733.333,63.889,280.556,758.333,27.778,N
268,-0.925,2.385,-0.375,130.556,69.444,261.111,763.889,5.556,N
269,-0.320,2.200,-0.475,207227.778,83.333,283.333,730.556,33.333,N
270,0.560,2.820,-0.320,58.333,113.889,-207647.222,477.778,252.778,V
271,-0.865,2.520,-0.190,125.000,63.889,283.333,1030.556,552.778,N
272,-0.320,2.025,-0.510,209491.667,61.111,258.333,755.556,275.000,N
273,-0.880,2.645,-0.195,113.889,61.111,286.111,736.111,19.444,N
274,-0.920,2.365,-0.525,127.778,66.667,272.222,744.444,8.333,N
275,-0.945,2.410,-0.300,127.778,80.556,294.444,733.333,11.111,N
276,-0.840,2.510,-0.185,133.333,66.667,286.111,758.333,25.000,N
277,-0.320,2.305,-0.440,213205.556,66.667,280.556,741.667,16.667,N
278,-0.810,2.570,-0.205,122.222,66.667,288.889,730.556,11.111,N
279,-0.900,2.480,-0.430,133.333,66.667,283.333,766.667,36.111,N
280,-0.320,2.315,-0.365,215444.444,66.667,277.778,741.667,25.000,N
281,-0.895,2.560,-0.300,133.333,66.667,280.556,733.333,8.333,N
282,-0.320,2.395,-0.550,216916.667,69.444,275.000,738.889,5.556,N
283,-0.935,2.460,-0.265,127.778,63.889,261.111,750.000,11.111,N
284,-0.785,2.545,-0.255,130.556,75.000,288.889,750.000,0.000,N
285,-0.980,2.410,-0.515,133.333,80.556,280.556,741.667,8.333,N
286,-0.320,2.375,-0.525,219897.222,83.333,283.333,738.889,2.778,N
287,-0.320,2.370,-0.615,220661.111,80.556,286.111,763.889,25.000,N
288,-0.320,2.370,-0.865,221400.000,86.111,283.333,738.889,25.000,N
289,-0.320,2.275,-0.570,222127.778,80.556,288.889,727.778,11.111,N
290,-0.320,2.425,-0.440,222883.333,63.889,275.000,755.556,27.778,N
291,-0.320,2.650,-0.590,223619.444,72.222,280.556,736.111,19.444,N
292,-0.320,2.095,-0.390,224355.556,69.444,277.778,736.111,0.000,N
293,-0.770,2.760,-0.105,122.222,69.444,277.778,752.778,16.667,N
294,-0.725,2.685,-0.235,130.556,63.889,275.000,736.111,16.667,N
295,-0.950,2.545,-0.355,138.889,83.333,291.667,750.000,13.889,N
296,-0.860,2.595,-0.265,130.556,61.111,277.778,750.000,0.000,N
297,-0.955,2.545,-0.470,130.556,63.889,272.222,738.889,11.111,N
298,-0.320,2.405,-0.460,228825.000,80.556,288.889,741.667,2.778,N
299,-0.975,2.520,-0.330,136.111,61.111,266.667,747.222,5.556,N
300,-0.970,2.540,-0.425,122.222,69.444,283.333,741.667,5.556,N
301,-0.320,2.310,-0.320,231063.889,72.222,275.000,750.000,8.333,N
302,-0.880,2.570,-0.310,133.333,63.889,269.444,736.111,13.889,N
303,-0.320,2.190,-0.570,232555.556,75.000,288.889,755.556,19.444,N
304,-0.320,2.150,-0.445,233302.778,80.556,288.889,747.222,8.333,N
305,-0.320,2.350,-0.555,234044.444,63.889,255.556,741.667,5.556,N
306,-0.320,1.985,-0.695,234786.111,66.667,280.556,741.667,0.000,N
307,-0.320,2.235,-0.475,235511.111,86.111,294.444,725.000,16.667,N
308,-0.320,2.300,-0.585,236255.556,63.889,277.778,744.444,19.444,N
309,-0.320,1.760,-0.830,237016.667,66.667,277.778,761.111,16.667,N
310,-0.320,2.105,-0.570,237755.556,72.222,280.556,738.889,22.222,N
311,-0.320,2.145,-0.510,238497.222,75.000,288.889,741.667,2.778,N
312,-0.320,2.400,-0.570,239258.333,66.667,280.556,761.111,19.444,N
313,-0.320,2.235,-0.735,240008.333,80.556,280.556,750.000,11.111,N
314,-0.320,2.275,-0.580,240747.222,83.333,283.333,738.889,11.111,N
315,-0.960,2.375,-0.425,136.111,72.222,280.556,752.778,13.889,N
316,-0.320,2.250,-0.625,242247.222,80.556,286.111,747.222,5.556,N
317,-0.320,2.425,-0.430,243013.889,86.111,286.111,766.667,19.444,N
318,-0.945,2.465,-0.465,130.556,63.889,275.000,744.444,22.222,N
319,-0.320,2.030,-0.660,244516.667,86.111,305.556,758.333,13.889,N
320,-0.320,2.275,-0.510,245280.556,86.111,291.667,763.889,5.556,N
321,-0.320,2.385,-0.540,246038.889,83.333,286.111,758.333,5.556,N
322,-0.320,2.190,-0.760,246791.667,69.444,269.444,752.778,5.556,N
323,-0.320,2.090,-0.600,247527.778,69.444,280.556,736.111,16.667,N
324,-0.320,2.330,-0.605,248288.889,66.667,286.111,761.111,25.000,N
325,-0.320,2.175,-0.685,249058.333,77.778,291.667,769.444,8.333,N
326,-0.320,2.335,-0.475,249811.111,77.778,280.556,752.778,16.667,N
327,-0.320,2.510,-0.475,250569.444,72.222,288.889,758.333,5.556,N
328,-0.320,2.235,-0.545,251338.889,72.222,280.556,769.444,11.111,N
329,-0.320,2.400,-0.380,252102.778,66.667,275.000,763.889,5.556,N
330,-0.900,2.535,-0.405,125.000,72.222,277.778,761.111,2.778,N
331,-0.320,2.415,-0.585,253625.000,66.667,280.556,761.111,0.000,N
332,-0.320,2.380,-0.405,254386.111,66.667,283.333,761.111,0.000,N
333,-0.975,2.325,-0.495,119.444,66.667,283.333,772.222,11.111,N
334,-0.320,2.150,-0.705,255913.889,86.111,288.889,755.556,16.667,N
335,-0.320,2.145,-0.565,256680.556,72.222,283.333,766.667,11.111,N
336,-0.320,2.320,-0.610,257441.667,75.000,286.111,761.111,5.556,N
337,-0.320,2.280,-0.785,258183.333,83.333,280.556,741.667,19.444,N
338,-0.320,2.235,-0.575,258944.444,72.222,275.000,761.111,19.444,N
339,-0.320,2.230,-0.515,259675.000,69.444,277.778,730.556,30.556,N
340,-0.320,2.140,-0.870,260416.667,83.333,288.889,741.667,11.111,N
341,-0.320,1.400,-0.875,261180.556,77.778,283.333,763.889,22.222,N
342,-0.320,1.270,-0.865,261916.667,77.778,277.778,736.111,27.778,N
343,-0.320,1.950,-0.525,262683.333,83.333,291.667,766.667,30.556,N
344,0.310,2.590,-0.320,58.333,111.111,-263144.444,519.444,247.222,V
345,-0.320,2.135,-0.375,264180.556,75.000,294.444,977.778,458.333,N
346,-0.925,2.030,-0.600,133.333,72.222,280.556,766.667,211.111,N
347,0.575,2.535,-0.320,58.333,116.667,-265366.667,477.778,288.889,V
348,-0.320,1.805,-0.645,266444.444,72.222,322.222,1019.444,541.667,N
349,0.300,2.525,-0.320,58.333,113.889,-266911.111,525.000,494.444,V
350,-0.965,2.260,-0.390,125.000,66.667,294.444,1000.000,475.000,N
351,-0.320,2.130,-0.550,268713.889,72.222,280.556,744.444,255.556,N
352,-0.975,2.305,-0.505,122.222,63.889,286.111,755.556,11.111,N
353,-0.320,2.115,-0.640,270200.000,61.111,258.333,730.556,25.000,N
354,-0.970,2.410,-0.445,133.333,77.778,280.556,750.000,19.444,N
355,-0.920,2.175,-0.505,122.222,66.667,277.778,722.222,27.778,N
356,-0.320,2.205,-0.585,272416.667,80.556,291.667,744.444,22.222,N
357,-0.320,2.220,-0.425,273177.778,63.889,269.444,761.111,16.667,N
358,-0.970,2.420,-0.420,125.000,72.222,277.778,738.889,22.222,N
359,-0.320,2.380,-0.585,274661.111,83.333,311.111,744.444,5.556,N
360,-0.320,2.225,-0.440,275419.444,69.444,277.778,758.333,13.889,N
361,-0.995,2.390,-0.385,119.444,66.667,266.667,755.556,2.778,N
362,-0.320,2.445,-0.395,276941.667,66.667,280.556,766.667,11.111,N
363,-0.320,2.190,-0.490,277702.778,83.333,280.556,761.111,5.556,N
364,-0.320,2.375,-0.325,278475.000,69.444,286.111,772.222,11.111,N
365,-0.960,2.410,-0.360,136.111,83.333,283.333,788.889,16.667,N
366,-0.320,2.270,-0.545,280041.667,66.667,266.667,777.778,11.111,N
367,-0.320,2.200,-0.545,280811.111,69.444,286.111,769.444,8.333,N
368,-0.320,2.380,-0.380,281600.000,83.333,286.111,788.889,19.444,N
369,-0.320,2.400,-0.530,282377.778,61.111,255.556,777.778,11.111,N
370,-0.320,1.945,-0.740,283144.444,63.889,261.111,766.667,11.111,N
371,-0.320,1.280,-0.715,283900.000,80.556,288.889,755.556,11.111,N
372,-0.320,2.045,-0.445,284675.000,83.333,305.556,775.000,19.444,N
373,-0.895,2.225,-0.395,133.333,75.000,283.333,783.333,8.333,N
374,-0.970,1.955,-0.570,125.000,63.889,283.333,755.556,27.778,N
375,-0.320,1.775,-0.640,286991.667,80.556,294.444,777.778,22.222,N
376,-0.320,1.965,-0.610,287766.667,83.333,288.889,775.000,2.778,N
377,-0.990,2.015,-0.605,130.556,83.333,280.556,769.444,5.556,N
378,-0.925,2.310,-0.570,141.667,69.444,275.000,775.000,5.556,N
379,0.565,2.570,-0.320,58.333,116.667,-289744.444,491.667,283.333,V
380,-0.945,2.165,-0.165,122.222,63.889,316.667,1011.111,519.444,N
381,-0.845,2.385,-0.545,127.778,66.667,255.556,769.444,241.667,N
382,-0.975,2.030,-0.475,133.333,72.222,277.778,744.444,25.000,N
383,0.425,2.705,-0.320,58.333,116.667,-292738.889,469.444,275.000,V
384,-0.890,2.220,-0.320,116.667,69.444,294.444,1016.667,547.222,N
385,-0.320,1.915,-0.590,294555.556,61.111,255.556,741.667,275.000,N
386,-0.320,2.065,-0.445,295277.778,83.333,280.556,722.222,19.444,N
387,-0.960,2.420,-0.345,130.556,83.333,286.111,730.556,8.333,N
388,-0.945,2.205,-0.280,127.778,66.667,277.778,719.444,11.111,N
389,-0.855,2.290,-0.245,130.556,69.444,266.667,752.778,33.333,N
390,-0.865,2.365,-0.290,136.111,63.889,263.889,730.556,22.222,N
391,-0.950,2.170,-0.350,125.000,75.000,291.667,744.444,13.889,N
392,-0.890,2.205,-0.250,130.556,75.000,283.333,780.556,36.111,N
393,-0.890,2.440,-0.305,138.889,80.556,283.333,775.000,5.556,N
394,-0.320,2.205,-0.485,301283.333,69.444,297.222,772.222,2.778,N
395,-0.320,2.340,-0.430,302063.889,69.444,277.778,780.556,8.333,N
396,-0.320,2.440,-0.405,302841.667,80.556,283.333,777.778,2.778,N
397,-0.320,2.155,-0.540,303644.444,86.111,291.667,802.778,25.000,N
398,-0.320,2.185,-0.615,304413.889,83.333,286.111,769.444,33.333,N
399,-0.320,2.230,-0.480,305183.333,83.333,308.333,769.444,0.000,N
400,-0.320,2.460,-0.550,305980.556,83.333,286.111,797.222,27.778,N
401,-0.320,2.260,-0.640,306752.778,83.333,277.778,772.222,25.000,N
402,-0.320,2.220,-0.480,307497.222,72.222,286.111,744.444,27.778,N
403,-0.320,2.435,-0.490,308266.667,69.444,283.333,769.444,25.000,N
404,-0.320,2.175,-0.585,309025.000,66.667,283.333,758.333,11.111,N
405,-0.320,1.980,-0.475,309805.556,72.222,283.333,780.556,22.222,N
406,-0.320,2.220,-0.525,310569.444,66.667,277.778,763.889,16.667,N
407,-0.320,2.175,-0.535,311330.556,72.222,291.667,761.111,2.778,N
408,-0.320,2.325,-0.525,312113.889,83.333,294.444,783.333,22.222,N
409,-0.320,2.260,-0.570,312886.111,83.333,283.333,772.222,11.111,N
410,-0.320,2.100,-0.515,313647.222,77.778,280.556,761.111,11.111,N
411,-0.925,2.395,-0.445,127.778,63.889,283.333,755.556,5.556,N
412,-0.320,2.235,-0.705,315158.333,63.889,283.333,755.556,0.000,N
413,-0.320,1.810,-0.870,315930.556,61.111,275.000,772.222,16.667,N
414,-0.320,1.790,-0.850,316675.000,69.444,283.333,744.444,27.778,N
415,-0.320,1.210,-0.825,317425.000,83.333,311.111,750.000,5.556,N
416,-0.320,0.890,-0.685,318186.111,80.556,286.111,761.111,11.111,N
417,-0.915,1.680,-0.485,133.333,77.778,263.889,758.333,2.778,N
418,-0.850,2.010,-0.490,138.889,69.444,283.333,733.333,25.000,N
419,-0.875,1.740,-0.535,119.444,83.333,300.000,752.778,19.444,N
420,-0.875,1.770,-0.530,136.111,61.111,280.556,769.444,16.667,N
421,-0.730,2.070,-0.515,127.778,75.000,291.667,772.222,2.778,N
422,-0.320,1.290,-0.605,322730.556,83.333,288.889,758.333,13.889,N
423,-0.810,1.950,-0.490,141.667,77.778,291.667,763.889,5.556,N
424,-0.780,2.160,-0.385,130.556,83.333,305.556,775.000,11.111,N
425,-0.320,1.930,-0.460,325022.222,80.556,280.556,752.778,22.222,N
426,-0.950,2.035,-0.590,133.333,75.000,283.333,763.889,11.111,N
427,-0.320,2.240,-0.660,326527.778,86.111,286.111,741.667,22.222,N
428,-0.320,1.420,-0.675,327266.667,80.556,277.778,738.889,2.778,N
429,-0.320,2.245,-0.505,328036.111,66.667,286.111,769.444,30.556,N
430,-0.980,2.065,-0.590,141.667,66.667,255.556,733.333,36.111,N
431,-0.320,1.925,-0.615,329500.000,66.667,291.667,730.556,2.778,N
432,-0.320,2.290,-0.460,330261.111,63.889,280.556,761.111,30.556,N
433,-0.320,2.265,-0.500,331002.778,63.889,255.556,741.667,19.444,N
434,-0.320,2.395,-0.400,331730.556,63.889,266.667,727.778,13.889,N
435,-0.950,2.385,-0.475,125.000,66.667,277.778,738.889,11.111,N
436,-0.320,2.180,-0.545,333205.556,83.333,300.000,736.111,2.778,N
437,-0.930,2.510,-0.365,136.111,61.111,261.111,758.333,22.222,N
438,-0.995,2.440,-0.475,122.222,66.667,286.111,741.667,16.667,N
439,-0.320,2.190,-0.635,335438.889,61.111,283.333,733.333,8.333,N
440,-0.320,2.240,-0.495,336194.444,75.000,280.556,755.556,22.222,N
441,-0.930,2.370,-0.365,125.000,66.667,269.444,755.556,0.000,N
442,-0.875,2.410,-0.360,138.889,75.000,291.667,744.444,11.111,N
443,-0.945,2.240,-0.355,138.889,86.111,286.111,738.889,5.556,N
444,-0.790,2.460,-0.230,125.000,69.444,288.889,747.222,8.333,N
445,-0.915,2.460,-0.490,133.333,63.889,272.222,766.667,19.444,N
446,-0.320,1.945,-0.385,340680.556,69.444,286.111,733.333,33.333,N
447,-0.840,2.310,-0.320,133.333,66.667,291.667,738.889,5.556,N
448,-0.925,2.320,-0.430,125.000,61.111,261.111,761.111,22.222,N
449,-0.885,2.350,-0.235,127.778,75.000,280.556,744.444,16.667,N
450,-0.755,2.360,-0.305,130.556,66.667,283.333,725.000,19.444,N
451,-0.970,2.345,-0.480,130.556,75.000,283.333,741.667,16.667,N
452,-0.905,2.385,-0.325,136.111,80.556,283.333,744.444,2.778,N
453,-0.860,2.335,-0.385,130.556,72.222,280.556,752.778,8.333,N
454,-0.320,2.310,-0.495,346630.556,75.000,280.556,741.667,11.111,N
455,-0.885,2.345,-0.315,133.333,80.556,311.111,736.111,5.556,N
456,-0.905,2.495,-0.455,125.000,80.556,280.556,766.667,30.556,N
457,-0.320,2.205,-0.385,348883.333,61.111,277.778,750.000,16.667,N
458,-0.115,2.705,-0.320,58.333,116.667,-349333.333,508.333,241.667,V
459,-0.320,2.290,-0.385,350366.667,83.333,300.000,975.000,466.667,N
460,-0.320,2.260,-0.365,351108.333,83.333,291.667,741.667,233.333,N
461,-0.985,2.450,-0.480,138.889,86.111,291.667,758.333,16.667,N
462,-0.320,1.800,-0.640,352597.222,75.000,286.111,730.556,27.778,N
463,-0.320,1.745,-0.640,353330.556,72.222,277.778,733.333,2.778,N
464,-0.320,1.700,-0.445,354088.889,63.889,277.778,758.333,25.000,N
465,-0.965,1.895,-0.380,136.111,77.778,283.333,741.667,16.667,N
466,-0.895,2.025,-0.410,130.556,77.778,286.111,730.556,11.111,N
467,-0.830,2.400,-0.335,130.556,66.667,275.000,761.111,30.556,N
468,-0.915,2.500,-0.465,130.556,86.111,288.889,750.000,11.111,N
469,-0.320,2.145,-0.455,357830.556,72.222,283.333,758.333,8.333,N
470,-0.915,2.460,-0.355,125.000,63.889,277.778,761.111,2.778,N
471,-0.855,2.560,-0.385,138.889,61.111,261.111,750.000,11.111,N
472,-0.960,2.235,-0.645,136.111,80.556,277.778,766.667,16.667,N
473,-0.320,2.235,-0.510,360863.889,72.222,286.111,755.556,11.111,N
474,-0.320,2.435,-0.520,361611.111,86.111,286.111,747.222,8.333,N
475,-0.320,2.365,-0.550,362369.444,66.667,269.444,758.333,11.111,N
476,-0.320,2.325,-0.745,363113.889,83.333,280.556,744.444,13.889,N
477,-0.320,2.270,-0.515,363880.556,77.778,302.778,766.667,22.222,N
478,-0.985,2.460,-0.425,136.111,83.333,286.111,766.667,0.000,N
479,-0.985,2.340,-0.515,130.556,66.667,277.778,750.000,16.667,N
480,-0.320,2.570,-0.395,366166.667,69.444,280.556,769.444,19.444,N
481,-0.100,2.780,-0.320,58.333,116.667,-366666.667,558.333,211.111,V
482,-0.915,2.470,-0.200,119.444,66.667,291.667,927.778,369.444,N
483,-0.320,2.510,-0.525,368413.889,86.111,280.556,761.111,166.667,N
484,-0.965,2.415,-0.385,125.000,69.444,277.778,747.222,13.889,N
485,-0.985,2.400,-0.460,144.444,66.667,266.667,755.556,8.333,N
486,-0.320,2.390,-0.575,370669.444,80.556,288.889,752.778,2.778,N
487,-0.320,2.330,-0.440,371411.111,80.556,280.556,741.667,11.111,N
488,-0.980,2.540,-0.455,141.667,86.111,288.889,769.444,27.778,N
489,-0.320,2.525,-0.515,372936.111,69.444,280.556,755.556,13.889,N
490,-0.320,2.255,-0.520,373680.556,80.556,280.556,744.444,11.111,N
491,0.490,2.540,-0.320,58.333,116.667,-374102.778,480.556,263.889,V
492,-0.320,2.445,-0.265,375175.000,75.000,313.889,1013.889,533.333,N
493,-0.320,2.225,-0.710,375933.333,72.222,286.111,758.333,255.556,N
494,-0.320,2.000,-0.680,376691.667,80.556,280.556,758.333,0.000,N
495,-0.320,1.880,-0.490,377436.111,66.667,283.333,744.444,13.889,N
496,-0.915,2.335,-0.370,136.111,83.333,308.333,752.778,8.333,N
497,-0.950,2.260,-0.580,130.556,77.778,277.778,755.556,2.778,N
498,-0.320,2.065,-0.460,379688.889,80.556,277.778,744.444,11.111,N
499,-0.815,2.480,-0.280,138.889,80.556,280.556,761.111,16.667,N
500,-0.820,2.420,-0.430,133.333,83.333,277.778,733.333,27.778,N
501,-0.320,2.060,-0.675,381925.000,83.333,283.333,741.667,8.333,N
502,-0.985,2.215,-0.540,125.000,61.111,247.222,772.222,30.556,N
503,-0.945,2.100,-0.345,127.778,83.333,302.778,733.333,38.889,N
504,-0.820,2.470,-0.345,130.556,69.444,286.111,744.444,11.111,N
505,-0.910,2.335,-0.500,127.778,77.778,291.667,761.111,16.667,N
506,-0.320,2.090,-0.710,385691.667,83.333,277.778,755.556,5.556,N
507,-0.320,2.080,-0.670,386411.111,75.000,286.111,719.444,36.111,N
508,-0.320,2.260,-0.565,387152.778,80.556,283.333,741.667,22.222,N
509,-0.320,2.225,-0.635,387891.667,83.333,305.556,738.889,2.778,N
510,-0.320,2.265,-0.560,388644.444,69.444,277.778,752.778,13.889,N
511,-0.320,2.395,-0.385,389380.556,72.222,277.778,736.111,16.667,N
512,-0.940,2.335,-0.460,130.556,80.556,286.111,736.111,0.000,N
513,-0.320,2.350,-0.395,390875.000,61.111,269.444,758.333,22.222,N
514,0.000,2.665,-0.320,58.333,116.667,-391316.667,500.000,258.333,V
515,-0.910,2.380,-0.200,127.778,80.556,322.222,977.778,477.778,N
516,-0.320,2.210,-0.450,393102.778,61.111,277.778,750.000,227.778,N
517,-0.855,2.405,-0.305,130.556,75.000,286.111,747.222,2.778,N
518,-0.945,2.535,-0.495,138.889,63.889,272.222,763.889,16.667,N
519,-0.320,2.260,-0.435,395358.333,83.333,286.111,744.444,19.444,N
520,-0.925,2.490,-0.355,125.000,69.444,286.111,747.222,2.778,N
521,-0.990,2.350,-0.515,136.111,77.778,280.556,783.333,36.111,N
522,-0.320,2.385,-0.495,397647.222,66.667,277.778,758.333,25.000,N
523,-0.975,2.430,-0.430,136.111,66.667,272.222,741.667,16.667,N
524,-0.320,2.250,-0.605,399147.222,63.889,275.000,758.333,16.667,N
525,-0.320,2.165,-0.540,399897.222,83.333,280.556,750.000,8.333,N
526,-0.990,2.430,-0.420,138.889,80.556,283.333,763.889,13.889,N
527,-0.320,2.330,-0.590,401413.889,66.667,280.556,752.778,11.111,N
528,-0.320,2.240,-0.420,402155.556,80.556,288.889,741.667,11.111,N
529,-0.915,2.565,-0.355,136.111,75.000,277.778,769.444,27.778,N
530,-0.910,2.405,-0.400,138.889,72.222,280.556,733.333,36.111,N
531,-0.320,2.450,-0.550,404383.333,66.667,275.000,725.000,8.333,N
532,-0.320,2.115,-0.435,405125.000,75.000,277.778,741.667,16.667,N
533,-0.845,2.405,-0.305,130.556,75.000,280.556,733.333,8.333,N
534,-0.320,2.435,-0.510,406602.778,86.111,305.556,744.444,11.111,N
535,-0.965,2.145,-0.355,125.000,63.889,252.778,741.667,2.778,N
536,-0.885,2.390,-0.270,119.444,63.889,258.333,730.556,11.111,N
537,-0.855,2.435,-0.310,141.667,83.333,286.111,752.778,22.222,N
538,-0.960,2.450,-0.485,141.667,63.889,277.778,747.222,5.556,N
539,-0.320,2.325,-0.385,410294.444,75.000,283.333,719.444,27.778,N
540,-0.885,2.525,-0.350,130.556,63.889,269.444,758.333,38.889,N
541,-0.995,2.390,-0.515,133.333,72.222,277.778,736.111,22.222,N
542,-0.320,2.135,-0.355,412538.889,86.111,308.333,750.000,13.889,N
543,-0.895,2.410,-0.395,125.000,86.111,280.556,769.444,19.444,N
544,-0.250,2.530,-0.320,58.333,116.667,-413777.778,527.778,241.667,V
545,-0.975,2.335,-0.145,122.222,86.111,308.333,977.778,450.000,N
546,-0.975,2.310,-0.575,130.556,83.333,283.333,752.778,225.000,N
547,-0.320,2.010,-0.605,416316.667,58.333,275.000,750.000,2.778,N
548,-0.210,2.345,-0.320,58.333,116.667,-416783.333,525.000,225.000,V
549,-0.855,1.960,-0.255,105.556,72.222,291.667,955.556,430.556,N
550,-0.750,2.180,-0.425,138.889,66.667,277.778,758.333,197.222,N
551,-0.880,1.750,-0.475,130.556,83.333,280.556,750.000,8.333,N
552,-0.820,1.880,-0.495,125.000,61.111,283.333,741.667,8.333,N
553,-0.790,2.170,-0.515,144.444,63.889,283.333,766.667,25.000,N
554,-0.320,1.985,-0.700,421572.222,83.333,288.889,758.333,8.333,N
555,-0.955,2.140,-0.530,111.111,63.889,269.444,736.111,22.222,N
556,-0.320,2.040,-0.695,423063.889,72.222,280.556,755.556,19.444,N
557,-0.320,1.710,-0.655,423802.778,83.333,294.444,738.889,16.667,N
558,-0.175,2.525,-0.320,58.333,116.667,-424241.667,497.222,241.667,V
559,-0.855,2.315,-0.145,127.778,69.444,313.889,997.222,500.000,N
560,-0.875,1.960,-0.570,133.333,83.333,286.111,741.667,255.556,N
561,-0.920,2.315,-0.440,130.556,66.667,275.000,747.222,5.556,N
562,-0.115,2.560,-0.320,58.333,113.889,-427225.000,497.222,250.000,V
563,-0.320,1.975,-0.605,428238.889,80.556,319.444,955.556,458.333,N
564,-0.320,1.405,-0.665,428980.556,80.556,280.556,741.667,213.889,N
565,-0.990,1.365,-0.485,136.111,77.778,283.333,722.222,19.444,N
566,-0.735,1.850,-0.345,130.556,75.000,286.111,727.778,5.556,N
567,-0.785,2.195,-0.360,125.000,80.556,272.222,752.778,25.000,N
568,-0.765,1.895,-0.415,130.556,83.333,286.111,727.778,25.000,N
569,-0.850,1.965,-0.520,138.889,83.333,286.111,761.111,33.333,N
570,-0.815,2.065,-0.520,138.889,83.333,305.556,775.000,13.889,N
571,-0.800,2.315,-0.385,127.778,69.444,277.778,752.778,22.222,N
572,0.205,2.640,-0.320,58.333,116.667,-434675.000,533.333,219.444,V
573,-0.995,2.160,-0.400,130.556,80.556,319.444,972.222,438.889,N
574,-0.320,2.010,-0.625,436444.444,63.889,263.889,738.889,233.333,N
575,-0.320,2.430,-0.515,437205.556,77.778,283.333,761.111,22.222,N
576,-0.320,2.255,-0.555,437944.444,83.333,300.000,738.889,22.222,N
577,-0.320,2.390,-0.590,438672.222,69.444,277.778,727.778,11.111,N
578,-0.965,2.495,-0.425,119.444,83.333,288.889,741.667,13.889,N
579,-0.890,2.580,-0.390,136.111,61.111,252.778,738.889,2.778,N
580,-0.975,2.380,-0.525,136.111,80.556,280.556,722.222,16.667,N
581,-0.320,2.420,-0.460,441600.000,66.667,269.444,725.000,2.778,N
582,-0.955,2.305,-0.375,127.778,66.667,286.111,730.556,5.556,N
583,-0.320,2.365,-0.505,443080.556,77.778,277.778,750.000,19.444,N
584,-0.320,2.310,-0.400,443794.444,63.889,280.556,713.889,36.111,N
585,-0.865,2.510,-0.315,122.222,69.444,294.444,736.111,22.222,N
586,-0.320,2.515,-0.490,445288.889,83.333,283.333,758.333,22.222,N
587,-0.320,2.410,-0.320,446022.222,83.333,275.000,733.333,25.000,N
588,-0.965,2.525,-0.300,136.111,75.000,277.778,722.222,11.111,N
589,-0.920,2.575,-0.205,133.333,75.000,277.778,736.111,13.889,N
590,-0.905,2.515,-0.190,127.778,69.444,280.556,722.222,13.889,N
591,-0.750,2.380,0.015,127.778,72.222,291.667,733.333,11.111,N
592,-0.690,2.505,-0.125,133.333,66.667,275.000,738.889,5.556,N
593,-0.955,2.285,-0.460,133.333,86.111,280.556,713.889,25.000,N
594,-0.320,1.980,-0.610,451136.111,63.889,261.111,747.222,33.333,N
595,-0.320,1.700,-0.565,451866.667,69.444,286.111,730.556,16.667,N
596,-0.320,1.670,-0.435,452588.889,83.333,294.444,722.222,8.333,N
597,-0.920,2.045,-0.345,127.778,66.667,275.000,738.889,16.667,N
598,-0.910,2.280,-0.385,127.778,86.111,294.444,738.889,0.000,N
599,-0.845,2.385,-0.300,136.111,69.444,277.778,750.000,11.111,N
600,-0.845,2.315,-0.395,122.222,83.333,280.556,744.444,5.556,N
601,-0.320,2.110,-0.440,456302.778,63.889,275.000,741.667,2.778,N
602,-0.885,2.370,-0.315,136.111,66.667,294.444,755.556,13.889,N
603,-0.805,2.480,-0.310,125.000,61.111,272.222,747.222,8.333,N
604,-0.115,2.840,-0.320,58.333,116.667,-458258.333,511.111,236.111,V
605,-0.800,2.290,0.040,122.222,63.889,280.556,955.556,444.444,N
606,-0.895,2.400,-0.595,119.444,63.889,252.778,727.778,227.778,N
607,-0.320,2.050,-0.305,460719.444,77.778,283.333,719.444,8.333,N
608,-0.870,2.345,-0.340,125.000,83.333,283.333,744.444,25.000,N
609,-0.320,2.295,-0.540,462175.000,66.667,263.889,711.111,33.333,N
610,-0.870,2.425,-0.230,127.778,77.778,286.111,713.889,2.778,N
611,-0.840,2.395,-0.335,122.222,83.333,283.333,741.667,27.778,N
612,-0.320,2.325,-0.375,464358.333,83.333,283.333,727.778,13.889,N
613,-0.825,2.455,-0.160,138.889,63.889,286.111,711.111,16.667,N
614,-0.865,2.400,-0.450,125.000,66.667,269.444,733.333,22.222,N
615,-0.320,2.365,-0.370,466527.778,83.333,288.889,725.000,8.333,N
616,0.030,2.665,-0.320,58.333,116.667,-466977.778,508.333,216.667,V
617,-0.965,2.280,-0.225,122.222,83.333,308.333,961.111,452.778,N
618,-0.320,2.335,-0.400,468733.333,80.556,277.778,736.111,225.000,N
619,-0.910,2.450,-0.320,138.889,66.667,275.000,750.000,13.889,N
620,-0.320,2.450,-0.570,470211.111,66.667,275.000,727.778,22.222,N
621,-0.320,2.050,-0.580,470927.778,80.556,283.333,716.667,11.111,N
622,0.385,2.725,-0.320,58.333,116.667,-471441.667,572.222,144.444,V
623,-0.945,2.345,-0.095,127.778,69.444,283.333,883.333,311.111,N
624,-0.320,2.270,-0.340,473108.333,83.333,297.222,725.000,158.333,N
625,-0.855,2.520,-0.330,130.556,72.222,269.444,747.222,22.222,N
626,-0.320,2.025,-0.505,474555.556,77.778,286.111,700.000,47.222,N
627,-0.320,2.305,-0.305,475277.778,83.333,294.444,722.222,22.222,N
628,-0.915,2.500,-0.350,127.778,63.889,277.778,738.889,16.667,N
629,-0.320,2.080,-0.510,476736.111,83.333,277.778,719.444,19.444,N
630,-0.960,2.385,-0.335,127.778,69.444,283.333,716.667,2.778,N
631,-0.940,2.400,-0.340,122.222,63.889,280.556,727.778,11.111,N
632,-0.320,2.180,-0.505,478911.111,83.333,288.889,730.556,2.778,N
633,-0.320,2.395,-0.285,479650.000,72.222,286.111,738.889,8.333,N
634,-0.925,2.450,-0.275,127.778,69.444,277.778,736.111,2.778,N
635,-0.995,2.510,-0.375,130.556,66.667,277.778,736.111,0.000,N
636,0.065,2.735,-0.320,58.333,116.667,-481586.111,522.222,213.889,V
637,-0.850,2.430,0.075,122.222,69.444,297.222,972.222,450.000,N
638,-0.945,2.375,-0.500,141.667,63.889,269.444,727.778,244.444,N
639,-0.320,2.265,-0.325,484077.778,86.111,283.333,733.333,5.556,N
640,-0.875,2.625,-0.275,130.556,80.556,286.111,722.222,11.111,N
641,-0.985,2.380,-0.465,136.111,69.444,283.333,747.222,25.000,N
642,-0.985,2.215,-0.315,116.667,83.333,280.556,730.556,16.667,N
643,-0.870,2.455,-0.415,133.333,77.778,277.778,722.222,8.333,N
644,-0.320,2.120,-0.505,487744.444,86.111,297.222,744.444,22.222,N
645,-0.320,2.170,-0.675,488480.556,86.111,288.889,736.111,8.333,N
646,-0.320,2.190,-0.620,489202.778,83.333,288.889,722.222,13.889,N
647,-0.320,2.450,-0.425,489947.222,83.333,280.556,744.444,22.222,N
648,-0.150,2.630,-0.320,58.333,113.889,-490383.333,494.444,250.000,V
649,-0.320,2.170,-0.180,491408.333,80.556,316.667,966.667,472.222,N
650,-0.905,2.470,-0.400,133.333,66.667,277.778,755.556,211.111,N
651,-0.320,2.330,-0.540,492894.444,69.444,277.778,730.556,25.000,N
652,-0.955,2.415,-0.335,136.111,80.556,283.333,747.222,16.667,N
653,-0.895,2.455,-0.450,136.111,77.778,291.667,738.889,8.333,N
654,-0.320,1.705,-0.660,495119.444,63.889,255.556,738.889,0.000,N
655,-0.320,0.380,-0.820,495852.778,63.889,258.333,733.333,5.556,N
656,-0.635,1.460,-0.320,58.333,116.667,-496336.111,541.667,191.667,V
657,-0.835,1.220,-0.240,136.111,63.889,294.444,922.222,380.556,N
658,-0.645,1.565,-0.360,133.333,72.222,277.778,755.556,166.667,N
659,-0.870,1.580,-0.535,130.556,66.667,258.333,719.444,36.111,N
660,-0.880,2.195,-0.320,136.111,83.333,308.333,727.778,8.333,N
661,-0.775,2.075,-0.345,127.778,69.444,275.000,750.000,22.222,N
662,-0.960,2.080,-0.365,125.000,83.333,277.778,722.222,27.778,N
663,-0.320,2.185,-0.465,501727.778,69.444,266.667,736.111,13.889,N
664,-0.320,2.275,-0.600,502461.111,63.889,255.556,733.333,2.778,N
665,-0.320,2.215,-0.515,503186.111,83.333,288.889,725.000,8.333,N
666,-0.050,2.600,-0.320,58.333,116.667,-503652.778,525.000,200.000,V
667,-0.320,2.500,-0.230,504683.333,75.000,305.556,972.222,447.222,N
668,-0.320,2.375,-0.700,505422.222,77.778,302.778,738.889,233.333,N
669,-0.320,2.185,-0.510,506177.778,72.222,280.556,755.556,16.667,N
670,-0.320,2.330,-0.470,506933.333,66.667,255.556,755.556,0.000,N
671,-0.320,2.345,-0.430,507666.667,66.667,283.333,733.333,22.222,N
672,-0.320,2.460,-0.525,508413.889,83.333,288.889,747.222,13.889,N
673,-0.320,2.405,-0.405,509172.222,75.000,286.111,758.333,11.111,N
674,-0.030,2.635,-0.320,58.333,116.667,-509622.222,508.333,250.000,V
675,-0.320,2.465,-0.200,510700.000,83.333,305.556,1019.444,511.111,N
676,-0.320,2.465,-0.575,511455.556,83.333,311.111,755.556,263.889,N
677,-0.950,2.575,-0.315,133.333,69.444,277.778,788.889,33.333,N
678,-0.170,2.620,-0.320,58.333,116.667,-512700.000,513.889,275.000,V
679,-0.320,2.400,-0.215,513750.000,83.333,316.667,991.667,477.778,N
680,-0.985,2.530,-0.450,125.000,66.667,280.556,758.333,233.333,N
681,-0.320,2.370,-0.475,515258.333,83.333,291.667,750.000,8.333,N
682,-0.320,2.315,-0.550,516022.222,80.556,286.111,763.889,13.889,N
683,-0.320,2.400,-0.435,516777.778,63.889,275.000,755.556,8.333,N
684,-0.320,2.260,-0.640,517533.333,83.333,305.556,755.556,0.000,N
685,-0.320,2.265,-0.440,518291.667,86.111,291.667,758.333,2.778,N
686,-0.980,2.475,-0.405,127.778,66.667,247.222,761.111,2.778,N
687,-0.320,2.190,-0.470,519783.333,72.222,275.000,730.556,30.556,N
688,-0.845,2.390,-0.255,125.000,77.778,286.111,738.889,8.333,N
689,-0.980,2.310,-0.575,133.333,63.889,277.778,750.000,11.111,N
690,-0.320,2.200,-0.550,522030.556,83.333,286.111,758.333,8.333,N
691,-0.320,2.245,-0.550,522758.333,69.444,277.778,727.778,30.556,N
692,-0.320,2.070,-0.620,523488.889,72.222,286.111,730.556,2.778,N
693,-0.320,2.315,-0.360,524250.000,66.667,277.778,761.111,30.556,N
694,-0.990,2.315,-0.555,133.333,72.222,280.556,738.889,22.222,N
695,-0.320,2.050,-0.425,525722.222,77.778,286.111,733.333,5.556,N
696,-0.925,2.430,-0.350,136.111,77.778,280.556,741.667,8.333,N
697,-0.320,2.315,-0.495,527197.222,77.778,280.556,733.333,8.333,N
698,-0.995,2.385,-0.370,133.333,69.444,280.556,758.333,25.000,N
699,-0.915,2.475,-0.410,138.889,63.889,266.667,744.444,13.889,N
700,-0.160,2.660,-0.320,58.333,113.889,-529136.111,494.444,250.000,V
701,-0.890,2.595,-0.095,127.778,72.222,294.444,1000.000,505.556,N
702,-0.990,2.270,-0.570,133.333,83.333,283.333,747.222,252.778,N
703,-0.320,2.415,-0.365,531661.111,75.000,288.889,719.444,27.778,N
704,-0.875,2.425,-0.370,130.556,72.222,277.778,733.333,13.889,N
705,-0.995,2.505,-0.480,130.556,63.889,277.778,725.000,8.333,N
706,-0.925,2.595,-0.305,133.333,77.778,280.556,755.556,30.556,N
707,-0.860,2.430,-0.355,133.333,80.556,283.333,725.000,30.556,N
708,-0.320,2.410,-0.505,535325.000,69.444,280.556,725.000,0.000,N
709,-0.930,2.480,-0.305,136.111,66.667,275.000,758.333,33.333,N
710,-0.890,2.600,-0.410,125.000,66.667,280.556,736.111,22.222,N
711,-0.320,2.405,-0.565,537536.111,83.333,288.889,716.667,19.444,N
712,-0.955,2.460,-0.390,122.222,61.111,277.778,750.000,33.333,N
713,-0.955,2.420,-0.460,125.000,66.667,261.111,736.111,13.889,N
714,-0.320,2.340,-0.555,539752.778,69.444,283.333,730.556,5.556,N
715,-0.985,2.705,-0.395,130.556,61.111,261.111,761.111,30.556,N
716,-0.895,2.615,-0.410,122.222,63.889,261.111,736.111,25.000,N
717,-0.320,2.595,-0.525,541994.444,66.667,280.556,744.444,8.333,N
718,-0.975,2.400,-0.405,136.111,83.333,286.111,750.000,5.556,N
719,-0.815,2.525,-0.285,122.222,61.111,247.222,741.667,8.333,N
720,0.105,2.695,-0.320,58.333,116.667,-543961.111,533.333,208.333,V
721,-0.320,2.365,-0.175,544950.000,77.778,305.556,930.556,397.222,N
722,-0.885,2.565,-0.590,136.111,66.667,269.444,755.556,175.000,N
723,-0.320,2.470,-0.545,546438.889,80.556,283.333,733.333,22.222,N
724,-0.960,2.580,-0.360,127.778,83.333,286.111,733.333,0.000,N
725,-0.835,2.625,-0.380,133.333,69.444,283.333,730.556,2.778,N
726,-0.320,2.520,-0.440,548647.222,80.556,277.778,744.444,13.889,N
727,-0.850,2.500,-0.315,138.889,63.889,263.889,738.889,5.556,N
728,-0.865,2.595,-0.340,141.667,86.111,308.333,733.333,5.556,N
729,-0.970,2.550,-0.410,136.111,61.111,263.889,733.333,0.000,N
730,-0.320,2.545,-0.450,551580.556,86.111,283.333,727.778,5.556,N
731,-0.900,2.610,-0.330,130.556,69.444,277.778,758.333,30.556,N
732,-0.955,2.520,-0.485,136.111,72.222,275.000,738.889,19.444,N
733,-0.955,2.365,-0.300,130.556,80.556,283.333,738.889,0.000,N
734,0.175,2.710,-0.320,58.333,116.667,-554266.667,508.333,230.556,V
735,-0.320,2.335,-0.160,555316.667,83.333,311.111,991.667,483.333,N
736,-0.795,2.325,-0.345,133.333,75.000,283.333,725.000,266.667,N
737,-0.320,2.385,-0.530,556786.111,83.333,283.333,744.444,19.444,N
738,-0.900,2.285,-0.335,111.111,83.333,286.111,733.333,11.111,N
739,-0.880,2.185,-0.455,113.889,83.333,294.444,736.111,2.778,N
740,-0.320,2.040,-0.635,558986.111,83.333,280.556,730.556,5.556,N
741,-0.900,2.280,-0.330,130.556,77.778,277.778,730.556,0.000,N
742,-0.880,2.195,-0.480,138.889,66.667,261.111,750.000,19.444,N
743,-0.320,2.055,-0.440,561200.000,66.667,283.333,733.333,16.667,N
744,-0.845,2.260,-0.245,125.000,75.000,288.889,738.889,5.556,N
745,-0.935,2.285,-0.455,130.556,83.333,277.778,755.556,16.667,N
746,-0.320,2.055,-0.440,563433.333,63.889,261.111,738.889,16.667,N
747,-0.320,2.275,-0.505,564191.667,77.778,297.222,758.333,19.444,N
748,-0.320,2.245,-0.625,564955.556,80.556,280.556,763.889,5.556,N
749,-0.320,2.225,-0.470,565708.333,66.667,275.000,752.778,11.111,N
750,-0.135,2.635,-0.320,58.333,116.667,-566152.778,502.778,250.000,V
751,-0.320,2.490,-0.395,567241.667,66.667,297.222,1030.556,527.778,N
752,-0.320,2.345,-0.450,568000.000,58.333,252.778,758.333,272.222,N
753,-0.950,2.430,-0.415,125.000,61.111,261.111,769.444,11.111,N
754,-0.320,2.315,-0.580,569527.778,80.556,275.000,758.333,11.111,N
755,-0.320,2.600,-0.330,570286.111,75.000,283.333,758.333,0.000,N
756,-0.065,2.775,-0.320,58.333,113.889,-570733.333,505.556,252.778,V
757,-0.320,2.595,-0.280,571813.889,66.667,288.889,1022.222,516.667,N
758,-0.950,2.530,-0.360,147.222,63.889,266.667,788.889,233.333,N
759,0.565,2.770,-0.320,58.333,113.889,-573133.333,588.889,200.000,V
760,-0.320,2.550,-0.295,574133.333,83.333,311.111,941.667,352.778,N
761,-0.935,2.530,-0.340,116.667,61.111,255.556,769.444,172.222,N
762,-0.955,2.590,-0.335,136.111,80.556,286.111,755.556,13.889,N
763,-0.320,2.460,-0.510,576425.000,83.333,286.111,766.667,11.111,N
764,-0.320,2.450,-0.340,577197.222,80.556,283.333,772.222,5.556,N
765,-0.955,2.550,-0.335,130.556,77.778,280.556,761.111,11.111,N
766,-0.320,2.530,-0.495,578750.000,69.444,280.556,791.667,30.556,N
767,0.420,2.620,-0.320,58.333,116.667,-579180.556,488.889,302.778,V
768,-0.935,2.480,-0.125,119.444,83.333,313.889,1033.333,544.444,N
769,-0.320,2.275,-0.575,581052.778,69.444,283.333,780.556,252.778,N
770,-0.320,2.410,-0.350,581822.222,69.444,275.000,769.444,11.111,N
771,0.020,2.635,-0.320,58.333,116.667,-582263.889,500.000,269.444,V
772,-0.320,2.255,-0.215,583344.444,66.667,288.889,1022.222,522.222,N
773,-0.895,2.485,-0.305,138.889,80.556,277.778,761.111,261.111,N
774,-0.320,2.255,-0.490,584875.000,63.889,263.889,769.444,8.333,N
775,0.080,2.720,-0.320,58.333,113.889,-585341.667,525.000,244.444,V
776,-0.895,2.475,-0.150,133.333,83.333,316.667,972.222,447.222,N
777,-0.320,1.675,-0.400,587122.222,75.000,263.889,750.000,222.222,N
778,-0.915,2.135,-0.345,136.111,80.556,286.111,747.222,2.778,N
779,-0.320,2.010,-0.555,588636.111,80.556,280.556,766.667,19.444,N
780,-0.920,1.610,0.015,130.556,83.333,277.778,738.889,27.778,N
781,0.150,2.410,0.300,127.778,83.333,280.556,733.333,5.556,N
782,-0.800,1.950,-0.795,175.000,83.333,283.333,769.444,36.111,N
783,-0.320,1.415,-0.920,591602.778,83.333,286.111,725.000,44.444,N
784,-0.320,1.105,-0.320,592322.222,63.889,-592283.333,719.444,5.556,N
785,-0.870,2.345,-0.320,58.333,113.889,-592769.444,505.556,213.889,V
786,-0.320,1.250,-0.655,593788.889,63.889,283.333,961.111,455.556,N
787,-0.905,1.400,-0.460,130.556,63.889,277.778,736.111,225.000,N
788,-0.715,1.910,-0.415,127.778,63.889,275.000,733.333,2.778,N
789,-0.965,1.585,-0.505,136.111,77.778,272.222,722.222,11.111,N
790,-0.680,1.910,-0.225,130.556,66.667,277.778,747.222,25.000,N
791,-0.635,2.110,-0.375,133.333,66.667,277.778,733.333,13.889,N
792,-0.870,1.700,-0.430,125.000,80.556,286.111,716.667,16.667,N
793,0.110,2.745,-0.915,58.333,116.667,375.000,505.556,211.111,V
794,-0.680,2.165,-0.240,133.333,77.778,319.444,955.556,450.000,N
795,-0.865,1.665,-0.445,144.444,61.111,280.556,750.000,205.556,N
796,-0.735,2.065,-0.290,127.778,66.667,277.778,741.667,8.333,N
797,-0.655,2.275,-0.310,133.333,58.333,269.444,736.111,5.556,N
798,-0.860,1.860,-0.510,141.667,61.111,286.111,750.000,13.889,N
799,-0.900,2.020,-0.360,133.333,66.667,277.778,750.000,0.000,N
800,-0.805,2.125,-0.310,130.556,69.444,277.778,741.667,8.333,N
801,-0.120,2.550,-0.320,58.333,116.667,-604552.778,502.778,238.889,V
802,-0.320,2.010,-0.455,605641.667,77.778,308.333,1030.556,527.778,N
803,-0.985,2.040,-0.460,122.222,83.333,297.222,783.333,247.222,N
804,0.365,1.575,1.095,66.667,94.444,386.111,594.444,188.889,V
805,0.215,2.530,-0.320,58.333,108.333,-607333.333,372.222,222.222,V
806,-0.320,2.125,-0.365,608475.000,75.000,316.667,1083.333,711.111,N
807,-0.935,2.065,-0.440,133.333,80.556,283.333,802.778,280.556,N
808,-0.815,2.280,-0.330,125.000,66.667,255.556,786.111,16.667,N
809,0.000,2.660,-0.320,58.333,116.667,-610513.889,508.333,277.778,V
810,-0.905,2.320,-0.245,127.778,69.444,311.111,1027.778,519.444,N
811,-0.875,2.320,-0.335,144.444,69.444,286.111,802.778,225.000,N
812,-0.760,2.545,-0.250,125.000,66.667,283.333,794.444,8.333,N
813,-0.045,2.635,-0.320,58.333,116.667,-613641.667,502.778,291.667,V
814,-0.730,2.520,-0.060,122.222,66.667,291.667,1063.889,561.111,N
815,-0.725,2.385,-0.260,130.556,63.889,277.778,775.000,288.889,N
816,-0.820,2.310,-0.360,122.222,80.556,297.222,752.778,22.222,N
817,0.315,2.500,-0.320,58.333,113.889,-616725.000,491.667,261.111,V
818,-0.785,2.410,-0.130,130.556,83.333,319.444,1030.556,538.889,N
819,-0.845,2.090,-0.490,133.333,69.444,286.111,761.111,269.444,N
820,-0.320,2.110,-0.440,619338.889,77.778,288.889,763.889,2.778,N
821,-0.320,2.025,-0.570,620100.000,63.889,275.000,761.111,2.778,N
822,-0.320,2.120,-0.520,620891.667,63.889,266.667,791.667,30.556,N
823,-0.320,2.195,-0.315,621669.444,69.444,286.111,777.778,13.889,N
824,-0.770,2.405,-0.150,130.556,69.444,283.333,775.000,2.778,N
825,-0.755,2.495,-0.210,133.333,72.222,283.333,805.556,30.556,N
826,-0.835,2.260,-0.175,130.556,63.889,280.556,786.111,19.444,N
827,-0.800,2.435,-0.295,138.889,80.556,294.444,816.667,30.556,N
828,-0.980,2.300,-0.465,133.333,66.667,277.778,791.667,25.000,N
829,-0.960,2.325,-0.255,144.444,66.667,283.333,791.667,0.000,N
830,-0.870,2.460,-0.400,130.556,69.444,277.778,811.111,19.444,N
831,-0.320,1.835,-0.585,628025.000,80.556,280.556,777.778,33.333,N
832,-0.870,2.070,-0.280,138.889,86.111,308.333,766.667,11.111,N
833,-0.855,2.165,-0.570,130.556,66.667,283.333,780.556,13.889,N
834,-0.320,1.130,-0.730,630313.889,80.556,288.889,741.667,38.889,N
835,-0.320,1.785,-0.480,631088.889,83.333,286.111,775.000,33.333,N
836,-0.320,1.840,-0.620,631833.333,83.333,286.111,744.444,30.556,N
837,-0.320,1.420,-0.390,632563.889,80.556,277.778,730.556,13.889,N
838,-0.730,1.855,-0.280,136.111,66.667,283.333,769.444,38.889,N
839,-0.925,1.590,-0.695,138.889,66.667,275.000,747.222,22.222,N
840,-0.320,1.275,-0.470,634811.111,63.889,280.556,730.556,16.667,N
841,-0.820,1.655,-0.390,113.889,83.333,288.889,750.000,19.444,N
842,-0.995,1.625,-0.660,130.556,69.444,283.333,755.556,5.556,N
843,-0.455,2.255,-0.320,58.333,116.667,-636788.889,530.556,225.000,V
844,-0.830,1.855,-0.260,116.667,80.556,308.333,988.889,458.333,N
845,-0.320,1.315,-0.725,638583.333,69.444,275.000,747.222,241.667,N
846,-0.975,1.760,-0.565,133.333,66.667,269.444,769.444,22.222,N
847,-0.320,2.050,-0.630,640102.778,80.556,305.556,750.000,19.444,N
848,-0.320,1.595,-0.790,640830.556,83.333,288.889,727.778,22.222,N
849,-0.320,0.665,-0.650,641583.333,69.444,283.333,752.778,25.000,N
850,-0.940,1.350,-0.520,130.556,66.667,280.556,736.111,16.667,N
851,-0.890,1.610,-0.460,138.889,77.778,288.889,775.000,38.889,N
852,-0.895,1.905,-0.480,130.556,75.000,283.333,763.889,11.111,N
853,-0.320,1.730,-0.620,644611.111,58.333,272.222,752.778,11.111,N
854,-0.980,1.855,-0.470,144.444,63.889,286.111,797.222,44.444,N
855,-0.105,2.630,-0.320,58.333,116.667,-645844.444,494.444,302.778,V
856,-0.955,2.195,-0.415,125.000,66.667,311.111,1044.444,550.000,N
857,-0.320,1.870,-0.605,647727.778,75.000,280.556,780.556,263.889,N
858,-0.320,2.285,-0.450,648513.889,63.889,286.111,786.111,5.556,N
859,-0.180,2.650,-0.320,58.333,116.667,-648972.222,516.667,269.444,V
860,-0.320,2.055,-0.390,650072.222,83.333,322.222,1041.667,525.000,N
861,-0.940,2.475,-0.425,136.111,61.111,275.000,780.556,261.111,N
862,-0.895,2.330,-0.390,141.667,63.889,263.889,791.667,11.111,N
863,-0.900,2.485,-0.415,130.556,69.444,280.556,780.556,11.111,N
864,-0.320,2.350,-0.510,653183.333,61.111,272.222,758.333,22.222,N
865,-0.905,2.370,-0.435,130.556,80.556,288.889,780.556,22.222,N
866,-0.955,2.260,-0.445,138.889,80.556,297.222,777.778,2.778,N
867,-0.320,2.220,-0.580,655555.556,61.111,277.778,813.889,36.111,N
868,-0.320,2.120,-0.530,656327.778,72.222,283.333,772.222,41.667,N
869,-0.320,2.040,-0.520,657122.222,69.444,286.111,794.444,22.222,N
870,-0.990,2.350,-0.450,130.556,80.556,288.889,813.889,19.444,N
871,-0.320,2.295,-0.640,658722.222,63.889,255.556,786.111,27.778,N
872,-0.320,2.230,-0.480,659500.000,75.000,286.111,777.778,8.333,N
873,-0.965,2.300,-0.460,138.889,83.333,300.000,777.778,0.000,N
874,-0.320,2.185,-0.610,661044.444,61.111,288.889,766.667,11.111,N
875,-0.320,2.235,-0.475,661833.333,69.444,275.000,788.889,22.222,N
876,-0.955,2.440,-0.435,136.111,72.222,277.778,772.222,16.667,N
877,-0.320,2.285,-0.635,663372.222,66.667,277.778,766.667,5.556,N
878,-0.320,1.910,-0.380,664138.889,83.333,297.222,766.667,0.000,N
879,-0.100,2.700,-0.995,58.333,116.667,350.000,505.556,261.111,V
880,-0.865,2.125,-0.260,122.222,66.667,286.111,1016.667,511.111,N
881,-0.825,2.085,-0.300,111.111,80.556,277.778,755.556,261.111,N
882,-0.765,2.310,-0.265,130.556,83.333,313.889,766.667,11.111,N
883,-0.320,1.995,-0.615,667947.222,72.222,272.222,763.889,2.778,N
884,-0.980,2.135,-0.345,130.556,66.667,275.000,750.000,13.889,N
885,-0.860,1.995,-0.480,141.667,80.556,288.889,783.333,33.333,N
886,-0.320,1.860,-0.620,670236.111,66.667,272.222,755.556,27.778,N
887,-0.930,1.885,-0.270,116.667,63.889,277.778,755.556,0.000,N
888,-0.800,2.060,-0.395,133.333,69.444,280.556,772.222,16.667,N
889,-0.320,1.785,-0.425,672530.556,61.111,277.778,766.667,5.556,N
890,-0.865,2.255,-0.330,133.333,80.556,291.667,777.778,11.111,N
891,-0.320,2.040,-0.570,674083.333,83.333,283.333,775.000,2.778,N
892,-0.300,2.475,-0.320,58.333,116.667,-674525.000,500.000,275.000,V
893,-0.865,2.145,-0.320,138.889,83.333,311.111,1036.111,536.111,N
894,-0.320,1.500,-0.425,676380.556,80.556,286.111,761.111,275.000,N
895,-0.780,2.225,-0.215,125.000,66.667,286.111,752.778,8.333,N
896,-0.720,2.175,-0.295,122.222,61.111,269.444,763.889,11.111,N
897,-0.955,2.005,-0.615,161.111,63.889,283.333,738.889,25.000,N
898,-0.315,2.635,-0.320,58.333,116.667,-679080.556,502.778,236.111,V
899,-0.890,2.260,-0.190,127.778,69.444,288.889,1000.000,497.222,N
900,-0.860,2.260,-0.715,133.333,66.667,275.000,741.667,258.333,N
901,-0.320,2.140,-0.360,681641.667,66.667,275.000,761.111,19.444,N
902,-0.805,2.405,-0.335,136.111,77.778,280.556,744.444,16.667,N
903,-0.320,2.210,-0.635,683113.889,72.222,286.111,727.778,16.667,N
904,-0.320,2.305,-0.420,683866.667,63.889,280.556,752.778,25.000,N
905,-0.870,2.545,-0.330,133.333,77.778,283.333,750.000,2.778,N
906,-0.990,2.335,-0.520,136.111,69.444,283.333,761.111,11.111,N
907,-0.895,2.565,-0.230,133.333,66.667,275.000,769.444,8.333,N
908,-0.725,2.560,-0.335,127.778,66.667,280.556,761.111,8.333,N
909,-0.320,2.160,-0.360,687675.000,72.222,286.111,766.667,5.556,N
910,-0.820,2.460,-0.325,133.333,75.000,283.333,775.000,8.333,N
911,-0.925,2.375,-0.450,141.667,63.889,283.333,752.778,22.222,N
912,-0.320,2.230,-0.355,689963.889,83.333,280.556,761.111,8.333,N
913,-0.820,2.475,-0.230,133.333,77.778,283.333,763.889,2.778,N
914,0.020,2.830,-0.320,58.333,116.667,-691166.667,497.222,266.667,V
915,-0.985,2.480,-0.175,127.778,66.667,308.333,1019.444,522.222,N
916,-0.865,2.435,-0.370,136.111,63.889,277.778,761.111,258.333,N
917,-0.880,2.430,-0.410,136.111,77.778,283.333,786.111,25.000,N
918,-0.320,2.315,-0.400,694541.667,61.111,269.444,750.000,36.111,N
919,-0.725,2.520,-0.215,133.333,63.889,286.111,744.444,5.556,N
920,-0.780,2.705,-0.415,136.111,66.667,280.556,769.444,25.000,N
921,-0.320,2.295,-0.400,696813.889,63.889,277.778,758.333,11.111,N
922,-0.845,2.435,-0.255,141.667,83.333,283.333,788.889,30.556,N
923,-0.825,2.585,-0.395,136.111,86.111,291.667,763.889,25.000,N
924,-0.255,2.775,-0.320,58.333,116.667,-698800.000,491.667,272.222,V
925,-0.770,2.405,-0.020,127.778,66.667,308.333,1027.778,536.111,N
926,-0.830,2.325,-0.410,127.778,66.667,275.000,766.667,261.111,N
927,-0.835,2.410,-0.170,127.778,63.889,277.778,733.333,33.333,N
928,-0.715,2.625,-0.215,125.000,63.889,261.111,755.556,22.222,N
929,-0.875,2.555,-0.380,130.556,61.111,272.222,747.222,8.333,N
930,-0.920,2.250,-0.240,127.778,63.889,275.000,758.333,11.111,N
931,-0.790,2.500,-0.230,133.333,80.556,280.556,758.333,0.000,N
932,-0.855,2.550,-0.385,133.333,69.444,288.889,752.778,5.556,N
933,-0.320,2.350,-0.315,705947.222,61.111,261.111,788.889,36.111,N
934,-0.865,2.385,-0.290,127.778,66.667,283.333,772.222,16.667,N
935,-0.995,2.300,-0.465,141.667,66.667,286.111,761.111,11.111,N
936,-0.320,2.235,-0.350,708263.889,72.222,277.778,783.333,22.222,N
937,-0.900,2.445,-0.260,119.444,66.667,286.111,783.333,0.000,N
938,-0.915,2.500,-0.390,130.556,66.667,280.556,811.111,27.778,N
939,-0.955,2.470,-0.265,133.333,83.333,288.889,775.000,36.111,N
940,-0.800,2.685,-0.205,144.444,63.889,280.556,783.333,8.333,N
941,-0.840,2.380,-0.365,133.333,66.667,280.556,805.556,22.222,N
942,-0.980,2.480,-0.335,138.889,83.333,283.333,786.111,19.444,N
943,-0.905,2.430,-0.300,122.222,66.667,283.333,780.556,5.556,N
944,-0.875,2.510,-0.350,133.333,69.444,275.000,775.000,5.556,N
945,-0.320,2.430,-0.435,715344.444,80.556,283.333,780.556,5.556,N
946,-0.970,2.485,-0.335,133.333,72.222,280.556,791.667,11.111,N
947,-0.910,2.400,-0.370,138.889,61.111,263.889,775.000,16.667,N
948,-0.320,2.485,-0.565,717700.000,66.667,275.000,788.889,13.889,N
949,-0.320,2.350,-0.480,718477.778,80.556,291.667,777.778,11.111,N
950,-0.950,2.385,-0.395,122.222,63.889,258.333,780.556,2.778,N
951,-0.995,2.500,-0.490,133.333,66.667,277.778,775.000,5.556,N
952,-0.320,2.355,-0.435,720797.222,61.111,275.000,763.889,11.111,N
953,-0.070,2.630,-0.320,58.333,116.667,-721230.556,491.667,272.222,V
954,-0.320,2.355,-0.340,722358.333,66.667,286.111,1069.444,577.778,N
955,-0.320,2.240,-0.510,723122.222,80.556,280.556,763.889,305.556,N
956,-0.945,2.510,-0.350,144.444,86.111,308.333,769.444,5.556,N
957,-0.935,2.570,-0.450,130.556,72.222,277.778,780.556,11.111,N
958,-0.320,2.260,-0.425,725433.333,66.667,258.333,761.111,19.444,N
959,0.040,2.690,-0.320,58.333,113.889,-725869.444,494.444,266.667,V
960,-0.950,2.420,-0.230,119.444,66.667,288.889,1030.556,536.111,N
961,-0.320,2.220,-0.470,727716.667,83.333,288.889,758.333,272.222,N
962,-0.920,2.330,-0.285,125.000,63.889,272.222,783.333,25.000,N
963,-0.880,2.580,-0.345,133.333,66.667,261.111,761.111,22.222,N
964,-0.320,2.295,-0.380,730033.333,66.667,283.333,772.222,11.111,N
965,-0.200,2.625,-0.320,58.333,116.667,-730469.444,494.444,277.778,V
966,-0.870,2.450,-0.180,125.000,58.333,277.778,1038.889,544.444,N
967,-0.320,2.130,-0.485,732347.222,77.778,283.333,780.556,258.333,N
968,-0.970,2.450,-0.285,133.333,69.444,283.333,763.889,16.667,N
969,0.060,2.675,-0.320,58.333,116.667,-733569.444,516.667,247.222,V
970,-0.320,2.280,-0.335,734663.889,69.444,297.222,1036.111,519.444,N
971,-0.980,2.510,-0.320,122.222,58.333,252.778,769.444,266.667,N
972,-0.855,2.475,-0.280,141.667,80.556,300.000,791.667,22.222,N
973,-0.320,2.515,-0.470,736994.444,83.333,286.111,769.444,22.222,N
974,-0.990,2.580,-0.230,130.556,80.556,286.111,761.111,8.333,N
975,-0.845,2.495,-0.220,130.556,69.444,275.000,786.111,25.000,N
976,-0.985,2.445,-0.360,138.889,66.667,277.778,788.889,2.778,N
977,-0.965,2.400,-0.265,141.667,83.333,291.667,794.444,5.556,N
978,-0.855,2.480,-0.175,141.667,63.889,283.333,811.111,16.667,N
979,-0.910,2.510,-0.350,130.556,80.556,297.222,808.333,2.778,N
980,-0.320,2.395,-0.350,742558.333,77.778,288.889,813.889,5.556,N
981,-0.875,2.470,-0.250,144.444,63.889,266.667,808.333,5.556,N
982,-0.890,2.460,-0.300,125.000,69.444,283.333,811.111,2.778,N
983,-0.320,2.425,-0.490,744966.667,80.556,280.556,788.889,22.222,N
984,-0.970,2.380,-0.330,138.889,86.111,305.556,802.778,13.889,N
985,-0.900,2.480,-0.335,130.556,69.444,280.556,816.667,13.889,N
986,-0.320,2.430,-0.485,747361.111,77.778,283.333,775.000,41.667,N
987,-0.320,2.480,-0.395,748150.000,69.444,283.333,788.889,13.889,N
988,-0.890,2.590,-0.365,130.556,69.444,277.778,802.778,13.889,N
989,-0.320,2.330,-0.530,749719.444,72.222,280.556,766.667,36.111,N
990,-0.320,2.315,-0.445,750505.556,80.556,286.111,786.111,19.444,N
991,-0.970,2.540,-0.415,127.778,77.778,288.889,780.556,5.556,N
992,-0.320,2.235,-0.540,752069.444,83.333,308.333,783.333,2.778,N
993,-0.320,2.275,-0.430,752858.333,75.000,280.556,788.889,5.556,N
994,-0.940,2.560,-0.400,122.222,80.556,302.778,783.333,5.556,N
995,-0.320,2.375,-0.570,754444.444,66.667,261.111,802.778,19.444,N
996,-0.320,2.385,-0.450,755230.556,80.556,288.889,786.111,16.667,N
997,-0.955,2.430,-0.355,141.667,69.444,288.889,786.111,0.000,N
998,-0.990,2.220,-0.515,136.111,63.889,277.778,791.667,5.556,N
999,-0.320,2.130,-0.490,757608.333,83.333,308.333,800.000,8.333,N
1000,-0.975,2.345,-0.390,133.333,83.333,294.444,816.667,16.667,N
1001,0.620,1.765,-0.250,63.889,75.000,244.444,575.000,241.667,V
1002,-0.320,2.160,-0.420,759980.556,66.667,316.667,980.556,405.556,N
1003,-0.930,2.335,-0.385,130.556,63.889,275.000,811.111,169.444,N
1004,-0.975,2.310,-0.485,136.111,72.222,277.778,780.556,30.556,N
1005,-0.320,2.105,-0.535,762336.111,83.333,286.111,763.889,16.667,N
1006,-0.920,2.245,-0.335,136.111,83.333,280.556,772.222,8.333,N
1007,-0.885,2.385,-0.345,122.222,61.111,280.556,777.778,5.556,N
1008,-0.925,2.365,-0.420,136.111,83.333,286.111,788.889,11.111,N
1009,-0.885,2.260,-0.310,125.000,66.667,280.556,780.556,8.333,N
1010,-0.880,2.420,-0.430,147.222,69.444,286.111,800.000,19.444,N
1011,-0.320,2.350,-0.490,767038.889,77.778,283.333,783.333,16.667,N
1012,-0.895,2.285,-0.345,141.667,83.333,308.333,775.000,8.333,N
1013,-0.950,2.315,-0.535,130.556,83.333,283.333,802.778,27.778,N
1014,-0.320,2.295,-0.555,769397.222,80.556,294.444,780.556,22.222,N
1015,-0.970,2.165,-0.435,138.889,72.222,280.556,808.333,27.778,N
1016,-0.960,2.365,-0.525,138.889,61.111,275.000,783.333,25.000,N
1017,-0.320,2.170,-0.615,771752.778,66.667,291.667,763.889,19.444,N
1018,-0.320,2.305,-0.435,772566.667,69.444,283.333,813.889,50.000,N
1019,-0.945,2.200,-0.495,138.889,83.333,280.556,786.111,27.778,N
1020,-0.320,2.170,-0.630,774111.111,80.556,288.889,758.333,27.778,N
1021,-0.320,2.260,-0.500,774891.667,66.667,283.333,780.556,22.222,N
1022,-0.965,2.355,-0.440,127.778,61.111,275.000,777.778,2.778,N
1023,-0.320,2.310,-0.580,776463.889,66.667,261.111,794.444,16.667,N
1024,-0.320,2.355,-0.500,777233.333,63.889,277.778,769.444,25.000,N
1025,-0.900,2.370,-0.405,136.111,86.111,294.444,777.778,8.333,N
1026,-0.320,2.450,-0.585,778788.889,80.556,305.556,777.778,0.000,N
1027,-0.320,2.375,-0.350,779563.889,63.889,255.556,775.000,2.778,N
1028,-0.830,2.400,-0.360,133.333,63.889,272.222,769.444,5.556,N
1029,-0.940,2.335,-0.520,136.111,80.556,277.778,750.000,19.444,N
1030,-0.810,2.125,-0.285,136.111,66.667,286.111,780.556,30.556,N
1031,-0.735,2.290,-0.360,136.111,83.333,288.889,783.333,2.778,N
1032,-0.980,2.050,-0.585,125.000,58.333,252.778,747.222,36.111,N
1033,0.285,2.370,-0.320,58.333,116.667,-783808.333,472.222,275.000,V
1034,-0.875,2.250,-0.355,116.667,80.556,313.889,1058.333,586.111,N
1035,-0.320,1.695,-0.420,785672.222,86.111,288.889,747.222,311.111,N
1036,-0.995,2.245,-0.495,127.778,61.111,277.778,766.667,19.444,N
1037,-0.910,2.220,-0.580,136.111,80.556,286.111,750.000,16.667,N
1038,-0.320,2.065,-0.535,787930.556,66.667,291.667,741.667,8.333,N
1039,-0.835,2.255,-0.430,130.556,52.778,261.111,763.889,22.222,N
1040,-0.880,2.265,-0.540,141.667,69.444,269.444,761.111,2.778,N
1041,-0.320,1.965,-0.520,790202.778,63.889,283.333,747.222,13.889,N
1042,-0.955,2.130,-0.500,116.667,63.889,286.111,763.889,16.667,N
1043,-0.320,2.075,-0.670,791727.778,61.111,258.333,761.111,2.778,N
1044,-0.320,2.000,-0.605,792491.667,83.333,283.333,763.889,2.778,N
1045,-0.985,2.265,-0.555,133.333,77.778,286.111,758.333,5.556,N
1046,-0.320,2.275,-0.625,794030.556,58.333,286.111,780.556,22.222,N
1047,-0.320,2.200,-0.620,794811.111,63.889,269.444,780.556,0.000,N
1048,-0.985,2.185,-0.505,122.222,58.333,261.111,761.111,19.444,N
1049,-0.930,2.275,-0.540,144.444,83.333,311.111,791.667,30.556,N
1050,-0.320,2.340,-0.555,797136.111,63.889,277.778,772.222,19.444,N
1051,0.360,2.715,-0.320,58.333,113.889,-797566.667,488.889,283.333,V
1052,-0.985,2.485,-0.285,119.444,63.889,294.444,1047.222,558.333,N
1053,-0.320,2.325,-0.690,799433.333,83.333,277.778,761.111,286.111,N
1054,-0.320,2.225,-0.525,800191.667,75.000,302.778,758.333,2.778,N
1055,-0.960,2.340,-0.485,116.667,61.111,275.000,783.333,25.000,N
1056,-0.320,2.375,-0.590,801747.222,66.667,283.333,772.222,11.111,N
1057,-0.320,2.205,-0.515,802513.889,69.444,286.111,766.667,5.556,N
1058,-0.320,2.390,-0.480,803305.556,61.111,283.333,791.667,25.000,N
1059,-0.975,2.550,-0.520,127.778,66.667,263.889,777.778,13.889,N
1060,-0.320,2.295,-0.540,804855.556,69.444,275.000,772.222,5.556,N
1061,-0.980,2.525,-0.450,144.444,63.889,266.667,788.889,16.667,N
1062,-0.930,2.405,-0.455,138.889,83.333,308.333,791.667,2.778,N
1063,-0.320,2.180,-0.580,807219.444,63.889,277.778,783.333,8.333,N
1064,-0.320,2.195,-0.580,807994.444,72.222,280.556,775.000,8.333,N
1065,-0.320,2.235,-0.550,808797.222,72.222,286.111,802.778,27.778,N
1066,-0.320,2.425,-0.630,809580.556,63.889,286.111,783.333,19.444,N
1067,-0.320,2.065,-0.630,810344.444,61.111,283.333,763.889,19.444,N
1068,-0.320,2.250,-0.500,811136.111,75.000,280.556,791.667,27.778,N
1069,-0.320,2.360,-0.525,811908.333,80.556,280.556,772.222,19.444,N
1070,-0.320,2.145,-0.570,812686.111,63.889,280.556,777.778,5.556,N
1071,-0.320,2.285,-0.410,813472.222,83.333,286.111,786.111,8.333,N
1072,-0.900,2.600,-0.355,130.556,63.889,275.000,780.556,5.556,N
1073,-0.320,2.385,-0.500,815055.556,66.667,283.333,802.778,22.222,N
1074,-0.990,2.540,-0.380,138.889,83.333,291.667,786.111,16.667,N
1075,-0.875,2.370,-0.370,144.444,63.889,288.889,775.000,11.111,N
1076,-0.960,2.490,-0.505,141.667,80.556,288.889,794.444,19.444,N
1077,-0.320,2.270,-0.490,818200.000,69.444,280.556,788.889,5.556,N
1078,-0.990,2.210,-0.425,141.667,66.667,275.000,800.000,11.111,N
1079,-0.320,2.265,-0.560,819777.778,80.556,286.111,777.778,22.222,N
1080,-0.320,2.130,-0.525,820555.556,66.667,288.889,777.778,0.000,N
1081,-0.320,2.175,-0.395,821352.778,63.889,286.111,797.222,19.444,N
1082,-0.980,2.365,-0.495,133.333,80.556,286.111,786.111,11.111,N
1083,-0.320,2.105,-0.410,822900.000,66.667,283.333,761.111,25.000,N
1084,-0.920,2.255,-0.385,127.778,63.889,277.778,766.667,5.556,N
1085,-0.985,2.285,-0.515,133.333,69.444,277.778,769.444,2.778,N
1086,-0.320,2.265,-0.505,825227.778,66.667,255.556,791.667,22.222,N
1087,-0.950,2.285,-0.405,125.000,63.889,261.111,763.889,27.778,N
1088,-0.985,2.220,-0.490,147.222,69.444,288.889,775.000,11.111,N
1089,-0.320,2.135,-0.480,827550.000,83.333,288.889,783.333,8.333,N
1090,-0.865,2.285,-0.355,127.778,61.111,252.778,780.556,2.778,N
1091,-0.875,2.595,-0.465,136.111,69.444,275.000,780.556,0.000,N
1092,-0.320,2.200,-0.485,829888.889,61.111,261.111,777.778,2.778,N
1093,-0.885,2.385,-0.565,116.667,83.333,280.556,500.000,277.778,A
1094,-0.885,2.325,-0.250,125.000,66.667,291.667,944.444,444.444,N
1095,-0.320,2.420,-0.520,832133.333,63.889,277.778,800.000,144.444,N
1096,0.005,2.690,-0.320,58.333,113.889,-832591.667,516.667,283.333,V
1097,-0.870,2.545,-0.265,127.778,66.667,302.778,1050.000,533.333,N
1098,-0.965,2.220,-0.545,122.222,61.111,272.222,769.444,280.556,N
1099,-0.905,2.365,-0.335,133.333,75.000,283.333,777.778,8.333,N
1100,-0.825,2.520,-0.390,136.111,69.444,280.556,761.111,16.667,N
1101,-0.975,2.485,-0.470,136.111,72.222,280.556,775.000,13.889,N
1102,-0.965,2.390,-0.335,130.556,63.889,280.556,786.111,11.111,N
1103,-0.785,2.480,-0.275,127.778,66.667,277.778,769.444,16.667,N
1104,-0.880,2.425,-0.390,133.333,66.667,277.778,805.556,36.111,N
1105,0.440,2.665,-0.320,58.333,116.667,-839611.111,525.000,280.556,V
1106,-0.840,2.410,-0.180,133.333,75.000,313.889,1013.889,488.889,N
1107,-0.865,2.380,-0.520,133.333,66.667,280.556,797.222,216.667,N
1108,-0.320,2.170,-0.530,842255.556,80.556,286.111,775.000,22.222,N
1109,-0.930,2.345,-0.375,125.000,66.667,277.778,791.667,16.667,N
1110,-0.870,2.475,-0.450,136.111,69.444,275.000,772.222,19.444,N
1111,-0.320,2.290,-0.590,844594.444,80.556,286.111,775.000,2.778,N
1112,-0.320,2.245,-0.435,845383.333,75.000,283.333,788.889,13.889,N
1113,-0.945,2.335,-0.455,133.333,61.111,258.333,786.111,2.778,N
1114,-0.320,2.250,-0.570,846941.667,66.667,286.111,772.222,13.889,N
1115,-0.990,2.255,-0.420,122.222,61.111,266.667,766.667,5.556,N
1116,-0.885,2.395,-0.405,138.889,75.000,288.889,783.333,16.667,N
1117,-0.320,2.375,-0.525,849283.333,63.889,272.222,791.667,8.333,N
1118,-0.320,2.295,-0.370,850058.333,77.778,280.556,775.000,16.667,N
1119,-0.860,2.435,-0.370,150.000,69.444,280.556,797.222,22.222,N
1120,-0.935,2.365,-0.465,133.333,66.667,280.556,800.000,2.778,N
1121,-0.320,2.460,-0.470,852427.778,83.333,288.889,772.222,27.778,N
1122,-0.920,2.300,-0.410,138.889,72.222,277.778,800.000,27.778,N
1123,-0.945,2.220,-0.530,136.111,69.444,275.000,797.222,2.778,N
1124,-0.320,2.240,-0.575,854813.889,75.000,291.667,788.889,8.333,N
1125,-0.965,2.245,-0.420,138.889,83.333,283.333,788.889,0.000,N
1126,-0.955,2.345,-0.545,133.333,66.667,280.556,786.111,2.778,N
1127,-0.320,1.925,-0.670,857180.556,61.111,263.889,791.667,5.556,N
1128,-0.955,2.010,-0.440,141.667,77.778,286.111,786.111,5.556,N
1129,-0.920,2.295,-0.560,138.889,72.222,283.333,763.889,22.222,N
1130,-0.320,1.910,-0.605,859494.444,69.444,277.778,763.889,0.000,N
1131,-0.950,2.105,-0.525,133.333,75.000,286.111,769.444,5.556,N
1132,-0.320,2.070,-0.665,861052.778,66.667,280.556,788.889,19.444,N
1133,-0.320,1.375,-0.840,861813.889,80.556,277.778,761.111,27.778,N
1134,-0.985,1.710,-0.600,138.889,86.111,319.444,755.556,5.556,N
1135,-0.905,1.900,-0.540,130.556,75.000,283.333,791.667,36.111,N
1136,-0.320,1.885,-0.635,864122.222,63.889,255.556,761.111,30.556,N
1137,-0.885,2.005,-0.440,138.889,83.333,286.111,752.778,8.333,N
1138,-0.810,2.305,-0.520,138.889,61.111,261.111,772.222,19.444,N
1139,-0.320,2.070,-0.645,866402.778,75.000,280.556,755.556,16.667,N
1140,-0.970,2.125,-0.510,136.111,58.333,255.556,775.000,19.444,N
1141,-0.320,2.085,-0.640,867930.556,69.444,277.778,752.778,22.222,N
1142,-0.320,1.685,-0.580,868688.889,63.889,286.111,758.333,5.556,N
1143,-0.975,1.905,-0.565,136.111,80.556,308.333,763.889,5.556,N
1144,-0.895,2.035,-0.535,136.111,83.333,283.333,758.333,5.556,N
1145,-0.980,1.720,-0.605,138.889,69.444,288.889,750.000,8.333,N
1146,-0.880,1.950,-0.550,127.778,69.444,280.556,738.889,11.111,N
1147,-0.975,1.820,-0.645,133.333,80.556,280.556,750.000,11.111,N
1148,-0.905,2.025,-0.525,138.889,61.111,255.556,769.444,19.444,N
1149,-0.965,1.995,-0.670,130.556,61.111,275.000,747.222,22.222,N
1150,-0.320,2.210,-0.550,874705.556,66.667,280.556,738.889,8.333,N
1151,-0.910,2.330,-0.510,133.333,83.333,280.556,777.778,38.889,N
1152,-0.995,2.125,-0.640,130.556,72.222,280.556,761.111,16.667,N
1153,-0.320,2.155,-0.575,876988.889,63.889,286.111,744.444,16.667,N
1154,-0.950,2.275,-0.530,122.222,61.111,272.222,772.222,27.778,N
1155,-0.965,2.195,-0.560,125.000,63.889,277.778,772.222,0.000,N
1156,-0.320,2.175,-0.610,879316.667,80.556,286.111,783.333,11.111,N
1157,-0.970,2.355,-0.530,136.111,80.556,283.333,766.667,16.667,N
1158,-0.985,2.375,-0.560,133.333,80.556,286.111,769.444,2.778,N
1159,-0.320,2.205,-0.630,881636.111,63.889,275.000,783.333,13.889,N
1160,-0.320,2.165,-0.490,882411.111,66.667,266.667,775.000,8.333,N
1161,-0.940,2.250,-0.465,136.111,66.667,277.778,769.444,5.556,N
1162,-0.320,2.270,-0.540,883941.667,63.889,280.556,761.111,8.333,N
1163,-0.320,2.245,-0.475,884713.889,69.444,277.778,772.222,11.111,N
1164,-0.920,2.370,-0.415,127.778,66.667,280.556,797.222,25.000,N
1165,-0.965,2.250,-0.495,125.000,69.444,280.556,763.889,33.333,N
1166,-0.320,2.210,-0.590,887052.778,83.333,316.667,777.778,13.889,N
1167,-0.320,2.145,-0.500,887844.444,75.000,286.111,791.667,13.889,N
1168,-0.320,2.230,-0.575,888622.222,77.778,275.000,777.778,13.889,N
1169,-0.320,2.295,-0.610,889397.222,63.889,261.111,775.000,2.778,N
1170,-0.965,2.100,-0.395,125.000,63.889,280.556,777.778,2.778,N
1171,-0.875,2.410,-0.330,136.111,72.222,283.333,777.778,0.000,N
1172,-0.980,2.220,-0.460,125.000,61.111,277.778,788.889,11.111,N
1173,-0.945,2.015,-0.370,130.556,69.444,280.556,775.000,13.889,N
1174,-0.845,2.245,-0.405,144.444,83.333,313.889,780.556,5.556,N
1175,-0.910,2.090,-0.550,130.556,69.444,283.333,788.889,8.333,N
1176,-0.320,1.755,-0.660,894852.778,72.222,280.556,766.667,22.222,N
1177,-0.995,1.970,-0.445,130.556,75.000,277.778,772.222,5.556,N
1178,-0.910,2.295,-0.420,130.556,66.667,275.000,758.333,13.889,N
1179,-0.320,2.135,-0.630,897158.333,75.000,288.889,775.000,16.667,N
1180,-0.320,1.830,-0.460,897930.556,83.333,283.333,772.222,2.778,N
1181,-0.830,2.320,-0.375,133.333,63.889,277.778,752.778,19.444,N
1182,-0.320,2.080,-0.565,899455.556,69.444,280.556,772.222,19.444,N
1183,-0.965,2.010,-0.450,125.000,80.556,297.222,761.111,11.111,N
1184,-0.875,2.255,-0.505,119.444,61.111,280.556,761.111,0.000,N
1185,-0.320,1.860,-0.525,901750.000,63.889,277.778,772.222,11.111,N
1186,-0.885,2.230,-0.375,136.111,61.111,283.333,758.333,13.889,N
1187,-0.905,2.135,-0.490,138.889,63.889,283.333,772.222,13.889,N
1188,-0.320,1.800,-0.460,904050.000,72.222,280.556,769.444,2.778,N
1189,-0.810,2.165,-0.395,130.556,83.333,283.333,758.333,11.111,N
1190,-0.830,2.115,-0.410,147.222,66.667,283.333,775.000,16.667,N
1191,-0.820,2.375,-0.430,133.333,63.889,277.778,772.222,2.778,N
1192,-0.940,2.210,-0.535,125.000,80.556,283.333,750.000,22.222,N
1193,-0.320,1.760,-0.570,907858.333,66.667,277.778,752.778,2.778,N
1194,-0.885,2.335,-0.455,130.556,66.667,272.222,763.889,11.111,N
1195,-0.910,2.190,-0.460,136.111,66.667,283.333,769.444,5.556,N
1196,-0.945,2.235,-0.595,130.556,69.444,280.556,769.444,0.000,N
1197,-0.320,2.005,-0.645,910922.222,66.667,283.333,761.111,8.333,N
1198,-0.900,2.250,-0.435,144.444,83.333,283.333,788.889,27.778,N
1199,-0.910,2.250,-0.575,141.667,86.111,305.556,769.444,19.444,N
1200,-0.320,2.160,-0.630,913238.889,77.778,286.111,758.333,11.111,N
1201,-0.965,2.290,-0.500,136.111,66.667,277.778,791.667,33.333,N
1202,-0.970,2.345,-0.585,133.333,66.667,280.556,763.889,27.778,N
1203,-0.320,2.030,-0.625,915572.222,72.222,280.556,777.778,13.889,N
1204,-0.960,2.175,-0.490,136.111,61.111,272.222,777.778,0.000,N
1205,-0.320,1.940,-0.585,917105.556,75.000,280.556,755.556,22.222,N
1206,-0.865,2.285,-0.370,138.889,80.556,283.333,805.556,50.000,N
1207,-0.820,2.195,-0.385,133.333,63.889,261.111,777.778,27.778,N
1208,-0.805,2.325,-0.420,141.667,66.667,288.889,766.667,11.111,N
1209,-0.320,2.185,-0.650,920230.556,69.444,277.778,775.000,8.333,N
1210,-0.320,1.305,-0.815,921008.333,80.556,283.333,777.778,2.778,N
1211,-0.320,0.325,-0.715,921794.444,63.889,280.556,786.111,8.333,N
1212,-0.905,0.620,-0.595,130.556,63.889,280.556,763.889,22.222,N
1213,-0.785,1.080,-0.505,133.333,69.444,288.889,780.556,16.667,N
1214,-0.775,1.385,-0.500,127.778,61.111,286.111,786.111,5.556,N
1215,-0.740,1.555,-0.550,130.556,75.000,283.333,780.556,5.556,N
1216,-0.800,1.650,-0.570,141.667,77.778,275.000,786.111,5.556,N
1217,-0.840,1.925,-0.540,133.333,75.000,283.333,758.333,27.778,N
1218,-0.870,1.940,-0.555,138.889,63.889,286.111,777.778,19.444,N
1219,-0.990,1.975,-0.690,133.333,61.111,263.889,772.222,5.556,N
1220,-0.910,1.890,-0.535,133.333,80.556,275.000,755.556,16.667,N
1221,-0.840,2.210,-0.465,141.667,61.111,288.889,769.444,13.889,N
1222,-0.960,2.215,-0.545,144.444,63.889,263.889,769.444,0.000,N
1223,-0.820,2.220,-0.390,127.778,72.222,280.556,750.000,19.444,N
1224,-0.785,2.385,-0.400,127.778,61.111,272.222,758.333,8.333,N
1225,-0.915,2.180,-0.535,133.333,69.444,263.889,766.667,8.333,N
1226,-0.910,2.045,-0.415,144.444,66.667,283.333,763.889,2.778,N
1227,-0.860,2.305,-0.375,127.778,63.889,280.556,772.222,8.333,N
1228,-0.955,2.430,-0.495,133.333,66.667,252.778,766.667,5.556,N
1229,-0.875,2.250,-0.390,144.444,66.667,280.556,797.222,30.556,N
1230,-0.835,2.390,-0.380,136.111,61.111,263.889,783.333,13.889,N
1231,-0.930,2.345,-0.370,136.111,69.444,308.333,763.889,19.444,N
1232,-0.755,2.560,-0.310,138.889,80.556,280.556,808.333,44.444,N
1233,-0.825,2.365,-0.415,136.111,63.889,286.111,775.000,33.333,N
1234,-0.920,2.225,-0.370,144.444,77.778,283.333,794.444,19.444,N
1235,-0.855,2.495,-0.370,130.556,61.111,277.778,780.556,13.889,N
1236,-0.890,2.435,-0.435,122.222,61.111,286.111,763.889,16.667,N
1237,-0.945,2.320,-0.410,136.111,83.333,280.556,794.444,30.556,N
1238,-0.840,2.420,-0.355,127.778,61.111,255.556,780.556,13.889,N
1239,-0.870,2.360,-0.435,138.889,61.111,277.778,752.778,27.778,N
1240,-0.870,2.475,-0.320,136.111,77.778,283.333,763.889,11.111,N
1241,-0.820,2.515,-0.350,141.667,66.667,266.667,775.000,11.111,N
1242,-0.915,2.620,-0.410,130.556,63.889,275.000,777.778,2.778,N
1243,-0.940,2.405,-0.415,130.556,61.111,280.556,758.333,19.444,N
1244,-0.800,2.555,-0.310,138.889,69.444,280.556,777.778,19.444,N
1245,-0.870,2.515,-0.465,130.556,75.000,283.333,769.444,8.333,N
1246,-0.320,1.555,-0.500,948855.556,66.667,272.222,766.667,2.778,N
1247,0.045,2.660,-0.320,58.333,116.667,-949283.333,486.111,280.556,V
1248,-0.795,2.310,-0.125,127.778,80.556,319.444,1019.444,533.333,N
1249,-0.760,2.345,-0.480,138.889,66.667,277.778,769.444,250.000,N
1250,-0.320,1.690,-0.620,951900.000,77.778,286.111,769.444,0.000,N
1251,-0.890,1.825,-0.500,127.778,86.111,277.778,744.444,25.000,N
1252,-0.840,1.725,-0.440,130.556,72.222,280.556,747.222,2.778,N
1253,-0.885,1.735,-0.600,130.556,63.889,275.000,763.889,16.667,N
1254,-0.950,1.400,-0.455,130.556,75.000,252.778,744.444,19.444,N
1255,0.360,2.345,-0.930,58.333,111.111,391.667,494.444,250.000,V
1256,-0.810,1.910,-0.450,136.111,77.778,308.333,969.444,475.000,N
1257,-0.955,1.360,-0.555,133.333,75.000,280.556,741.667,227.778,N
1258,-0.765,1.870,-0.435,130.556,63.889,275.000,755.556,13.889,N
1259,-0.925,1.345,-0.605,130.556,63.889,277.778,733.333,22.222,N
1260,-0.770,1.710,-0.485,136.111,75.000,283.333,741.667,8.333,N
1261,-0.780,1.630,-0.490,122.222,61.111,266.667,747.222,5.556,N
1262,-0.700,1.795,-0.400,133.333,80.556,283.333,755.556,8.333,N
1263,-0.825,1.855,-0.620,141.667,63.889,275.000,750.000,5.556,N
1264,-0.850,1.660,-0.455,130.556,69.444,280.556,747.222,2.778,N
1265,-0.755,1.825,-0.415,127.778,61.111,283.333,752.778,5.556,N
1266,-0.745,1.900,-0.405,130.556,66.667,277.778,777.778,25.000,N
1267,-0.830,2.030,-0.485,141.667,66.667,255.556,755.556,22.222,N
1268,-0.835,2.105,-0.515,136.111,75.000,283.333,750.000,5.556,N
1269,-0.320,2.105,-0.660,966158.333,63.889,252.778,786.111,36.111,N
1270,-0.985,1.720,-0.490,133.333,77.778,283.333,747.222,38.889,N
1271,-0.830,1.965,-0.480,136.111,80.556,288.889,738.889,8.333,N
1272,-0.775,1.990,-0.440,133.333,80.556,286.111,761.111,22.222,N
1273,-0.910,2.180,-0.620,133.333,72.222,283.333,763.889,2.778,N
1274,-0.940,2.120,-0.585,141.667,77.778,280.556,775.000,11.111,N
1275,-0.890,2.025,-0.400,133.333,63.889,269.444,761.111,13.889,N
1276,-0.465,2.580,0.130,130.556,61.111,280.556,763.889,2.778,N
1277,-0.120,2.700,0.160,138.889,80.556,283.333,780.556,16.667,N
1278,-0.370,2.740,-0.070,138.889,83.333,283.333,772.222,8.333,N
1279,-0.515,2.565,-0.185,141.667,80.556,286.111,761.111,11.111,N
1280,-0.645,2.600,-0.430,133.333,75.000,277.778,761.111,0.000,N
1281,-0.320,1.585,-0.395,975302.778,80.556,294.444,758.333,2.778,N
1282,-0.880,1.315,-0.845,133.333,58.333,266.667,769.444,11.111,N
1283,-0.320,1.010,-0.320,976822.222,61.111,-976786.111,750.000,19.444,N
1284,-0.320,1.700,-0.810,977566.667,69.444,291.667,744.444,5.556,N
1285,-0.320,1.835,-0.825,978344.444,72.222,277.778,777.778,33.333,N
1286,-0.995,1.315,-0.580,133.333,77.778,277.778,738.889,38.889,N
1287,-0.170,2.685,-0.985,58.333,116.667,397.222,488.889,250.000,V
1288,-0.980,1.450,-0.665,133.333,80.556,311.111,986.111,497.222,N
1289,-0.995,0.870,-0.645,136.111,80.556,272.222,741.667,244.444,N
1290,-0.855,1.125,-0.630,138.889,77.778,283.333,752.778,11.111,N
1291,-0.985,1.260,-0.590,138.889,75.000,275.000,738.889,13.889,N
1292,-0.870,1.315,-0.505,125.000,58.333,252.778,738.889,0.000,N
1293,-0.915,1.220,-0.550,136.111,83.333,286.111,766.667,27.778,N
1294,-0.770,1.285,-0.535,136.111,77.778,283.333,752.778,13.889,N
1295,-0.995,1.170,-0.775,133.333,80.556,283.333,741.667,11.111,N
1296,-0.875,0.960,-0.600,122.222,66.667,266.667,747.222,5.556,N
1297,-0.835,1.305,-0.490,133.333,80.556,283.333,750.000,2.778,N
1298,-0.740,1.510,-0.425,136.111,75.000,288.889,755.556,5.556,N
1299,-0.840,1.310,-0.635,130.556,83.333,286.111,747.222,8.333,N
1300,-0.985,0.805,-0.590,130.556,80.556,286.111,733.333,13.889,N
1301,-0.765,1.570,-0.420,138.889,80.556,280.556,772.222,38.889,N
1302,-0.905,1.560,-0.680,138.889,75.000,263.889,741.667,30.556,N
1303,-0.320,1.150,-0.320,991763.889,83.333,-991705.556,725.000,16.667,N
1304,-0.320,0.985,-0.885,992525.000,80.556,283.333,761.111,36.111,N
1305,-0.535,2.310,-0.320,58.333,116.667,-992963.889,497.222,263.889,V
1306,-0.320,0.935,-0.645,994016.667,63.889,311.111,994.444,497.222,N
1307,-0.795,1.100,-0.625,127.778,58.333,277.778,763.889,230.556,N
1308,-0.880,1.420,-0.570,127.778,80.556,288.889,747.222,16.667,N
1309,-0.925,1.495,-0.720,138.889,75.000,280.556,766.667,19.444,N
1310,-0.965,1.345,-0.540,119.444,83.333,288.889,752.778,13.889,N
1311,-0.755,1.580,-0.545,130.556,72.222,286.111,744.444,8.333,N
1312,-0.960,1.350,-0.745,119.444,69.444,258.333,752.778,8.333,N
1313,-0.915,1.295,-0.680,125.000,69.444,300.000,741.667,11.111,N
1314,-0.935,1.335,-0.625,138.889,63.889,308.333,755.556,13.889,N
1315,-0.320,3.175,3.200,1000697.222,0.000,1000758.333,655.556,100.000,N
1316,-0.320,2.145,3.200,1001527.778,0.000,1000758.333,830.556,175.000,N
1317,-0.320,-4.430,-0.320,1002294.444,19.444,-1002286.111,766.667,63.889,N
1318,-0.320,-2.350,-0.320,1003038.889,47.222,-1003011.111,744.444,22.222,N
1319,-0.320,-0.705,-0.320,1003766.667,80.556,-1003708.333,727.778,16.667,N
1320,-0.320,-0.105,-0.320,1004527.778,63.889,-1004486.111,761.111,33.333,N
1321,-0.320,1.190,-0.320,1005269.444,75.000,-1005216.667,741.667,19.444,N
1322,-0.955,2.225,-0.430,127.778,66.667,283.333,761.111,19.444,N
1323,-0.640,2.345,-0.125,119.444,63.889,272.222,755.556,5.556,N
1324,-0.225,2.625,0.045,130.556,75.000,283.333,747.222,8.333,N
1325,-0.205,2.685,0.065,138.889,80.556,283.333,772.222,25.000,N
1326,-0.260,2.720,-0.055,136.111,77.778,280.556,763.889,8.333,N
1327,-0.475,1.870,-0.140,127.778,80.556,286.111,736.111,27.778,N
1328,-0.265,2.005,-0.045,127.778,77.778,283.333,758.333,22.222,N
1329,-0.340,2.055,-0.075,127.778,63.889,283.333,755.556,2.778,N
1330,-0.305,2.245,-0.065,141.667,63.889,283.333,763.889,8.333,N
1331,-0.325,2.290,-0.110,127.778,63.889,272.222,747.222,16.667,N
1332,-0.500,2.220,-0.295,127.778,77.778,283.333,741.667,5.556,N
1333,-0.740,2.105,-0.400,138.889,77.778,283.333,769.444,27.778,N
1334,-0.665,1.945,-0.415,133.333,77.778,277.778,738.889,30.556,N
1335,-0.675,2.010,-0.390,130.556,77.778,286.111,725.000,13.889,N
1336,-0.810,1.910,-0.570,133.333,66.667,275.000,761.111,36.111,N
1337,-0.875,1.405,-0.540,127.778,61.111,277.778,725.000,36.111,N
1338,-0.775,1.775,-0.535,136.111,83.333,311.111,758.333,33.333,N
1339,-0.815,1.495,-0.475,127.778,80.556,288.889,755.556,2.778,N
1340,-0.790,1.750,-0.540,122.222,58.333,258.333,744.444,11.111,N
1341,-0.850,1.930,-0.580,138.889,61.111,275.000,777.778,33.333,N
1342,-0.950,1.785,-0.555,136.111,75.000,280.556,752.778,25.000,N
1343,-0.770,1.865,-0.430,122.222,61.111,283.333,744.444,8.333,N
1344,-0.715,2.045,-0.405,130.556,83.333,277.778,761.111,16.667,N
1345,-0.705,2.020,-0.415,130.556,66.667,275.000,752.778,8.333,N
1346,-0.780,1.890,-0.480,133.333,61.111,272.222,761.111,8.333,N
1347,-0.885,1.560,-0.495,133.333,77.778,286.111,738.889,22.222,N
1348,-0.850,1.755,-0.540,130.556,77.778,280.556,747.222,8.333,N
1349,-0.860,1.750,-0.560,138.889,63.889,258.333,772.222,25.000,N
1350,-0.925,2.180,-0.600,136.111,75.000,280.556,752.778,19.444,N
1351,-0.320,1.660,-0.660,1027830.556,58.333,280.556,719.444,33.333,N
1352,-0.885,1.770,-0.565,136.111,61.111,286.111,761.111,41.667,N
1353,-0.920,2.045,-0.600,138.889,66.667,277.778,747.222,13.889,N
1354,-0.320,1.965,-0.680,1030108.333,69.444,283.333,769.444,22.222,N
1355,-0.320,1.580,-0.320,1030852.778,80.556,-1030797.222,744.444,25.000,N
1356,-0.320,1.065,-0.320,1031591.667,80.556,-1031533.333,738.889,5.556,N
1357,-0.620,2.305,0.295,119.444,66.667,288.889,775.000,36.111,N
1358,0.195,3.115,0.585,138.889,80.556,280.556,761.111,13.889,N
1359,0.195,2.960,0.545,125.000,83.333,305.556,736.111,25.000,N
1360,0.050,3.070,0.230,133.333,58.333,252.778,766.667,30.556,N
1361,-0.420,2.310,-0.275,133.333,75.000,283.333,750.000,16.667,N
1362,-0.650,2.270,-0.400,138.889,66.667,283.333,761.111,11.111,N
1363,-0.850,1.995,-0.660,136.111,77.778,275.000,752.778,8.333,N
1364,-0.320,1.215,-0.870,1037636.111,66.667,247.222,741.667,11.111,N
1365,-0.320,1.555,-0.995,1038416.667,69.444,277.778,780.556,38.889,N
1366,-0.320,1.560,-0.945,1039161.111,80.556,286.111,744.444,36.111,N
1367,-0.665,2.275,-0.320,58.333,116.667,-1039577.778,475.000,269.444,V
1368,-0.320,1.830,-0.740,1040655.556,80.556,311.111,1019.444,544.444,N
1369,-0.320,1.675,-0.320,1041402.778,61.111,-1041366.667,747.222,272.222,N
1370,-0.320,1.355,-0.320,1042155.556,86.111,-1042097.222,752.778,5.556,N
1371,-0.320,0.840,-0.965,1042900.000,83.333,283.333,744.444,8.333,N
1372,-0.320,1.510,-0.825,1043638.889,63.889,258.333,738.889,5.556,N
1373,-0.320,1.495,-0.775,1044408.333,61.111,283.333,769.444,30.556,N
1374,-0.320,1.420,-0.810,1045163.889,80.556,277.778,755.556,13.889,N
1375,-0.320,1.525,-0.320,1045897.222,80.556,-1045844.444,733.333,22.222,N
1376,-0.320,1.500,-0.775,1046658.333,63.889,272.222,761.111,27.778,N
1377,-0.320,1.590,-0.745,1047419.444,66.667,283.333,761.111,0.000,N
1378,-0.320,1.440,-0.820,1048175.000,61.111,283.333,755.556,5.556,N
1379,-0.260,2.425,-0.320,58.333,113.889,-1048625.000,508.333,247.222,V
1380,-0.985,1.825,-0.470,130.556,63.889,280.556,997.222,488.889,N
1381,-0.950,1.945,-0.655,138.889,63.889,275.000,775.000,222.222,N
1382,-0.320,1.790,-0.730,1051188.889,69.444,277.778,733.333,41.667,N
1383,-0.320,1.315,-0.655,1051916.667,72.222,291.667,727.778,5.556,N
1384,-0.890,1.640,-0.555,130.556,63.889,255.556,761.111,33.333,N
1385,-0.890,1.770,-0.605,127.778,61.111,283.333,733.333,27.778,N
1386,-0.320,1.650,-0.655,1054161.111,75.000,280.556,750.000,16.667,N
1387,-0.855,1.785,-0.550,127.778,63.889,277.778,758.333,8.333,N
1388,-0.970,2.045,-0.675,130.556,69.444,275.000,741.667,16.667,N
1389,-0.320,1.615,-0.590,1056416.667,83.333,300.000,755.556,13.889,N
1390,-0.840,2.155,-0.480,136.111,83.333,291.667,758.333,2.778,N
1391,-0.915,2.190,-0.540,130.556,69.444,275.000,750.000,8.333,N
1392,-0.815,2.115,-0.400,138.889,77.778,280.556,747.222,2.778,N
1393,-0.090,2.645,-0.320,58.333,116.667,-1059119.444,505.556,241.667,V
1394,-0.830,2.365,-0.235,133.333,83.333,322.222,991.667,486.111,N
1395,-0.980,2.035,-0.750,130.556,72.222,280.556,761.111,230.556,N
1396,-0.955,1.860,-0.535,136.111,77.778,283.333,738.889,22.222,N
1397,-0.855,2.270,-0.545,144.444,66.667,286.111,747.222,8.333,N
1398,-0.980,1.780,-0.700,127.778,69.444,269.444,741.667,5.556,N
1399,-0.805,1.780,-0.465,127.778,63.889,275.000,738.889,2.778,N
1400,-0.775,2.215,-0.455,141.667,61.111,255.556,752.778,13.889,N
1401,-0.895,1.905,-0.615,136.111,69.444,275.000,719.444,33.333,N
1402,-0.870,1.855,-0.510,136.111,83.333,277.778,747.222,27.778,N
1403,-0.860,2.065,-0.485,138.889,61.111,261.111,766.667,19.444,N
1404,-0.985,1.985,-0.610,122.222,66.667,258.333,738.889,27.778,N
1405,-0.975,1.820,-0.570,133.333,77.778,316.667,750.000,11.111,N
1406,-0.865,1.895,-0.540,136.111,61.111,255.556,780.556,30.556,N
1407,-0.275,2.540,-0.320,58.333,116.667,-1069591.667,497.222,283.333,V
1408,-0.860,1.800,-0.385,141.667,77.778,327.778,1013.889,516.667,N
1409,-0.840,1.905,-0.605,138.889,61.111,247.222,763.889,250.000,N
1410,-0.815,1.940,-0.505,136.111,75.000,283.333,750.000,13.889,N
1411,-0.800,2.080,-0.585,133.333,80.556,288.889,769.444,19.444,N
1412,-0.320,1.255,-0.800,1073688.889,83.333,291.667,741.667,27.778,N
1413,-0.320,1.450,-0.780,1074436.111,66.667,311.111,747.222,5.556,N
1414,-0.320,1.455,-0.860,1075194.444,69.444,255.556,758.333,11.111,N
1415,-0.320,1.320,-0.525,1075933.333,61.111,236.111,738.889,19.444,N
1416,-0.490,1.820,-0.180,138.889,61.111,275.000,736.111,2.778,N
1417,-0.390,1.745,-0.190,122.222,58.333,272.222,730.556,5.556,N
1418,-0.515,2.010,-0.320,136.111,72.222,272.222,750.000,19.444,N
1419,-0.595,1.905,-0.395,136.111,63.889,261.111,766.667,16.667,N
1420,-0.775,1.940,-0.520,138.889,61.111,255.556,741.667,25.000,N
1421,-0.175,2.490,-0.320,58.333,113.889,-1080088.889,488.889,252.778,V
1422,-0.745,1.855,-0.330,127.778,83.333,327.778,1025.000,536.111,N
1423,-0.705,1.845,-0.590,119.444,61.111,255.556,763.889,261.111,N
1424,-0.965,1.990,-0.630,127.778,80.556,297.222,736.111,27.778,N
1425,-0.905,1.970,-0.625,141.667,77.778,294.444,750.000,13.889,N
1426,-0.950,1.940,-0.680,138.889,58.333,261.111,738.889,11.111,N
1427,-0.320,1.720,-0.695,1084908.333,61.111,275.000,747.222,8.333,N
1428,-0.865,1.990,-0.565,130.556,80.556,288.889,744.444,2.778,N
1429,-0.885,2.125,-0.600,133.333,63.889,263.889,736.111,8.333,N
1430,-0.895,2.030,-0.585,130.556,69.444,277.778,761.111,25.000,N
1431,-0.320,1.695,-0.585,1087897.222,80.556,283.333,747.222,13.889,N
1432,-0.880,1.890,-0.600,138.889,58.333,272.222,741.667,5.556,N
1433,-0.915,2.020,-0.600,133.333,72.222,283.333,750.000,8.333,N
1434,-0.985,1.625,-0.570,138.889,61.111,261.111,747.222,2.778,N
1435,0.005,2.580,-0.320,58.333,116.667,-1090588.889,511.111,236.111,V
1436,-0.840,2.135,-0.310,127.778,77.778,319.444,1002.778,491.667,N
1437,-0.895,2.090,-0.655,144.444,61.111,294.444,750.000,252.778,N
1438,-0.975,1.925,-0.515,133.333,80.556,283.333,766.667,16.667,N
1439,-0.840,2.110,-0.495,136.111,75.000,277.778,758.333,8.333,N
1440,-0.850,2.400,-0.460,138.889,80.556,283.333,738.889,19.444,N
1441,-0.935,2.030,-0.560,133.333,63.889,261.111,741.667,2.778,N
1442,-0.845,2.210,-0.465,133.333,69.444,277.778,752.778,11.111,N
1443,-0.805,2.320,-0.480,136.111,66.667,272.222,769.444,16.667,N
1444,-0.930,2.190,-0.580,130.556,61.111,258.333,747.222,22.222,N
1445,-0.850,2.190,-0.435,133.333,63.889,269.444,752.778,5.556,N
1446,-0.870,2.290,-0.480,133.333,58.333,263.889,772.222,19.444,N
1447,-0.960,2.300,-0.610,130.556,69.444,280.556,758.333,13.889,N
1448,-0.320,1.945,-0.565,1100705.556,83.333,280.556,747.222,11.111,N
1449,-0.880,2.285,-0.525,130.556,63.889,280.556,752.778,5.556,N
1450,-0.955,2.300,-0.600,133.333,61.111,258.333,752.778,0.000,N
1451,-0.995,2.280,-0.620,138.889,61.111,250.000,775.000,22.222,N
1452,-0.320,2.145,-0.695,1103719.444,63.889,252.778,733.333,41.667,N
1453,-0.320,2.030,-0.670,1104469.444,83.333,291.667,750.000,16.667,N
1454,-0.920,2.120,-0.455,130.556,83.333,280.556,772.222,22.222,N
1455,-0.790,2.360,-0.465,133.333,66.667,272.222,761.111,11.111,N
1456,-0.905,2.100,-0.540,138.889,63.889,283.333,750.000,11.111,N
1457,-0.165,2.390,-0.320,58.333,116.667,-1107194.444,500.000,250.000,V
1458,-0.320,1.235,-0.885,1108238.889,75.000,319.444,986.111,486.111,N
1459,-0.320,1.305,-0.755,1109011.111,77.778,277.778,772.222,213.889,N
1460,-0.975,1.530,-0.655,138.889,58.333,255.556,747.222,25.000,N
1461,-0.915,1.685,-0.635,136.111,66.667,280.556,741.667,5.556,N
1462,-0.320,1.780,-0.865,1111244.444,77.778,280.556,744.444,2.778,N
1463,-0.320,0.640,-0.715,1111980.556,83.333,280.556,736.111,8.333,N
1464,-0.840,1.425,-0.540,136.111,58.333,250.000,741.667,5.556,N
1465,-0.815,1.215,-0.715,138.889,77.778,277.778,727.778,13.889,N
1466,-0.320,1.015,-0.555,1114186.111,86.111,291.667,736.111,8.333,N
1467,-0.695,1.755,-0.355,133.333,66.667,275.000,752.778,16.667,N
1468,-0.605,2.085,-0.320,125.000,63.889,275.000,725.000,27.778,N
1469,-0.645,2.090,-0.360,136.111,63.889,277.778,738.889,13.889,N
1470,-0.855,1.850,-0.550,133.333,61.111,258.333,752.778,13.889,N
1471,-0.820,1.650,-0.505,127.778,63.889,277.778,747.222,5.556,N
1472,-0.820,1.780,-0.465,136.111,66.667,280.556,730.556,16.667,N
1473,-0.890,1.705,-0.600,133.333,69.444,280.556,741.667,11.111,N
1474,-0.865,1.470,-0.515,130.556,69.444,283.333,738.889,2.778,N
1475,-0.810,1.685,-0.465,136.111,80.556,291.667,766.667,27.778,N
1476,-0.815,1.835,-0.520,130.556,61.111,280.556,752.778,13.889,N
1477,-0.985,1.660,-0.660,136.111,72.222,277.778,752.778,0.000,N
1478,-0.930,1.580,-0.585,133.333,83.333,280.556,769.444,16.667,N
1479,-0.915,1.850,-0.560,127.778,80.556,286.111,761.111,8.333,N
1480,-0.850,2.075,-0.480,133.333,66.667,277.778,761.111,0.000,N
1481,-0.210,2.495,-0.320,58.333,116.667,-1125097.222,477.778,283.333,V
1482,-0.890,1.950,-0.385,130.556,83.333,322.222,1036.111,558.333,N
1483,-0.320,1.670,-0.865,1126969.444,61.111,247.222,777.778,258.333,N
1484,-0.320,1.620,-0.750,1127713.889,66.667,283.333,744.444,33.333,N
1485,-0.320,1.660,-0.720,1128472.222,66.667,286.111,758.333,13.889,N
1486,-0.320,1.700,-0.695,1129247.222,66.667,288.889,775.000,16.667,N
1487,-0.970,2.055,-0.640,133.333,75.000,261.111,769.444,5.556,N
1488,-0.935,1.730,-0.595,138.889,86.111,305.556,752.778,16.667,N
1489,-0.270,2.475,-0.320,58.333,116.667,-1131202.778,491.667,261.111,V
1490,-0.320,1.610,-0.470,1132261.111,77.778,316.667,1000.000,508.333,N
1491,-0.915,1.910,-0.650,138.889,61.111,255.556,780.556,219.444,N
1492,-0.860,1.855,-0.545,136.111,77.778,283.333,752.778,27.778,N
1493,-0.870,1.965,-0.585,133.333,80.556,291.667,736.111,16.667,N
1494,-0.885,2.020,-0.600,133.333,77.778,280.556,763.889,27.778,N
1495,-0.320,2.015,-0.735,1136047.222,63.889,252.778,752.778,11.111,N
1496,-0.320,1.295,-0.845,1136772.222,83.333,277.778,725.000,27.778,N
1497,-0.320,1.730,-0.635,1137511.111,69.444,288.889,738.889,13.889,N
1498,-0.875,1.665,-0.570,133.333,80.556,283.333,752.778,13.889,N
1499,0.020,2.615,-0.320,58.333,116.667,-1138705.556,500.000,252.778,V
1500,-0.895,1.965,-0.445,130.556,63.889,302.778,994.444,494.444,N
1501,-0.320,1.695,-0.815,1140502.778,77.778,283.333,744.444,250.000,N
1502,-0.320,1.645,-0.590,1141272.222,83.333,280.556,769.444,25.000,N
1503,-0.820,1.935,-0.540,127.778,66.667,277.778,750.000,19.444,N
1504,-0.850,1.855,-0.545,133.333,77.778,288.889,741.667,8.333,N
1505,-0.970,1.620,-0.650,130.556,69.444,283.333,761.111,19.444,N
1506,-0.855,1.915,-0.515,136.111,75.000,283.333,744.444,16.667,N
1507,-0.250,2.510,-0.320,58.333,116.667,-1144711.111,500.000,244.444,V
1508,-0.945,1.810,-0.430,116.667,63.889,291.667,1013.889,513.889,N
1509,-0.955,1.720,-0.730,130.556,66.667,255.556,741.667,272.222,N
1510,-0.320,1.895,-0.650,1147291.667,63.889,277.778,766.667,25.000,N
1511,-0.970,1.760,-0.685,136.111,77.778,283.333,750.000,16.667,N
1512,-0.320,1.890,-0.720,1148775.000,83.333,286.111,733.333,16.667,N
1513,-0.320,1.970,-0.845,1149519.444,63.889,263.889,744.444,11.111,N
1514,-0.320,1.325,-0.690,1150258.333,63.889,263.889,738.889,5.556,N
1515,-0.915,1.670,-0.665,136.111,77.778,275.000,750.000,11.111,N
1516,-0.920,1.830,-0.640,127.778,63.889,280.556,750.000,0.000,N
1517,-0.905,1.795,-0.650,133.333,72.222,277.778,747.222,2.778,N
1518,-0.320,1.530,-0.765,1153272.222,72.222,277.778,766.667,19.444,N
1519,-0.985,1.540,-0.655,133.333,69.444,288.889,752.778,13.889,N
1520,-0.875,1.775,-0.665,130.556,75.000,291.667,741.667,11.111,N
1521,-0.915,1.655,-0.610,130.556,75.000,286.111,766.667,25.000,N
1522,-0.970,1.910,-0.695,136.111,75.000,275.000,750.000,16.667,N
1523,-0.930,1.780,-0.560,141.667,80.556,311.111,766.667,16.667,N
1524,-0.815,1.955,-0.530,133.333,83.333,283.333,769.444,2.778,N
1525,-0.805,2.155,-0.555,130.556,75.000,258.333,747.222,22.222,N
1526,-0.840,1.995,-0.590,138.889,75.000,280.556,777.778,30.556,N
1527,-0.955,1.870,-0.675,133.333,63.889,280.556,752.778,25.000,N
1528,-0.320,2.150,-0.725,1160836.111,63.889,277.778,738.889,13.889,N
1529,-0.320,2.140,-0.740,1161591.667,61.111,280.556,755.556,16.667,N
1530,-0.980,1.950,-0.615,127.778,69.444,280.556,747.222,8.333,N
1531,-0.950,2.075,-0.630,138.889,61.111,280.556,758.333,11.111,N
1532,-0.915,2.130,-0.610,136.111,83.333,283.333,755.556,2.778,N
1533,-0.995,2.180,-0.690,130.556,69.444,283.333,750.000,5.556,N
1534,-0.320,1.975,-0.680,1165369.444,69.444,255.556,766.667,16.667,N
1535,-0.090,2.650,-0.320,58.333,116.667,-1165805.556,494.444,272.222,V
1536,-0.865,2.305,-0.335,125.000,83.333,319.444,988.889,494.444,N
1537,-0.870,2.290,-0.670,125.000,75.000,280.556,761.111,227.778,N
1538,-0.845,2.230,-0.490,133.333,77.778,283.333,738.889,22.222,N
1539,-0.790,2.260,-0.485,136.111,77.778,288.889,761.111,22.222,N
1540,-0.920,2.235,-0.645,133.333,63.889,255.556,755.556,5.556,N
1541,-0.320,1.690,-0.625,1170597.222,83.333,275.000,727.778,27.778,N
1542,-0.840,1.720,-0.545,133.333,83.333,286.111,758.333,30.556,N
1543,-0.890,1.835,-0.615,136.111,63.889,263.889,744.444,13.889,N
1544,-0.320,1.825,-0.770,1172819.444,83.333,288.889,719.444,25.000,N
1545,-0.975,1.565,-0.665,133.333,80.556,275.000,747.222,27.778,N
1546,-0.915,1.785,-0.645,130.556,63.889,275.000,741.667,5.556,N
1547,-0.955,1.920,-0.675,136.111,75.000,280.556,747.222,5.556,N
1548,-0.320,0.865,-0.785,1175794.444,80.556,277.778,738.889,8.333,N
1549,-0.320,0.265,-0.825,1176530.556,80.556,291.667,736.111,2.778,N
1550,-0.940,0.725,-0.620,138.889,83.333,280.556,769.444,33.333,N
1551,-0.680,1.255,-0.460,127.778,63.889,283.333,744.444,25.000,N
1552,-0.615,1.540,-0.465,130.556,63.889,277.778,736.111,8.333,N
1553,-0.650,1.720,-0.460,130.556,58.333,247.222,761.111,25.000,N
1554,-0.755,1.705,-0.575,130.556,61.111,250.000,738.889,22.222,N
1555,0.050,2.675,-0.320,58.333,116.667,-1180722.222,500.000,238.889,V
1556,-0.765,1.880,-0.330,127.778,72.222,319.444,1005.556,505.556,N
1557,-0.755,1.940,-0.575,133.333,77.778,255.556,736.111,269.444,N
1558,-0.935,1.865,-0.630,133.333,86.111,308.333,750.000,13.889,N
1559,-0.815,2.110,-0.495,130.556,61.111,283.333,736.111,13.889,N
1560,-0.840,2.245,-0.570,122.222,80.556,283.333,722.222,13.889,N
1561,-0.880,2.000,-0.455,133.333,61.111,258.333,741.667,19.444,N
1562,-0.765,2.240,-0.460,133.333,63.889,277.778,744.444,2.778,N
1563,-0.780,2.145,-0.535,136.111,80.556,300.000,750.000,5.556,N
1564,-0.825,2.405,-0.630,130.556,66.667,272.222,755.556,5.556,N
1565,-0.985,2.240,-0.640,141.667,83.333,272.222,750.000,5.556,N
1566,-0.890,2.235,-0.545,138.889,63.889,283.333,777.778,27.778,N
1567,-0.940,2.345,-0.620,141.667,83.333,291.667,758.333,19.444,N
1568,-0.790,2.275,-0.415,127.778,66.667,277.778,750.000,8.333,N
1569,-0.720,2.235,-0.375,136.111,77.778,280.556,775.000,25.000,N
1570,-0.715,2.385,-0.360,127.778,66.667,283.333,750.000,25.000,N
1571,-0.715,2.515,-0.470,138.889,80.556,311.111,788.889,38.889,N
1572,-0.855,2.420,-0.565,133.333,83.333,280.556,769.444,19.444,N
1573,-0.120,2.715,-0.320,58.333,116.667,-1194261.111,477.778,291.667,V
1574,-0.725,2.610,-0.190,133.333,63.889,302.778,1044.444,566.667,N
1575,-0.760,2.200,-0.515,136.111,66.667,277.778,763.889,280.556,N
1576,-0.775,2.490,-0.515,136.111,83.333,288.889,741.667,22.222,N
1577,-0.880,2.305,-0.645,133.333,66.667,275.000,761.111,19.444,N
1578,-0.940,2.270,-0.590,133.333,83.333,283.333,744.444,16.667,N
1579,-0.850,2.255,-0.535,141.667,80.556,280.556,766.667,22.222,N
1580,-0.895,2.240,-0.590,136.111,61.111,261.111,741.667,25.000,N
1581,-0.860,2.485,-0.485,127.778,63.889,275.000,744.444,2.778,N
1582,-0.895,2.155,-0.625,130.556,63.889,261.111,766.667,22.222,N
1583,-0.880,1.970,-0.505,144.444,63.889,261.111,758.333,8.333,N
1584,-0.795,2.220,-0.490,141.667,63.889,280.556,741.667,16.667,N
1585,-0.800,2.105,-0.500,130.556,58.333,252.778,755.556,13.889,N
1586,-0.780,2.230,-0.515,136.111,66.667,275.000,752.778,2.778,N
1587,0.155,2.720,-0.320,58.333,116.667,-1204838.889,494.444,258.333,V
1588,-0.320,1.590,-0.405,1205916.667,80.556,313.889,1019.444,525.000,N
1589,-0.755,1.935,-0.520,122.222,63.889,286.111,741.667,277.778,N
1590,-0.710,1.980,-0.485,136.111,63.889,280.556,775.000,33.333,N
1591,-0.840,1.885,-0.660,138.889,77.778,272.222,750.000,25.000,N
1592,-0.320,1.495,-0.700,1208902.778,72.222,283.333,719.444,30.556,N
1593,-0.980,1.760,-0.695,133.333,80.556,277.778,747.222,27.778,N
1594,-0.320,1.810,-0.735,1210388.889,83.333,283.333,738.889,8.333,N
1595,-0.915,1.820,-0.540,133.333,75.000,283.333,752.778,13.889,N
1596,-0.850,2.275,-0.520,136.111,80.556,288.889,738.889,13.889,N
1597,-0.925,2.145,-0.580,136.111,61.111,252.778,747.222,8.333,N
1598,-0.960,2.210,-0.635,138.889,63.889,258.333,766.667,19.444,N
1599,-0.135,2.645,-0.320,58.333,116.667,-1213836.111,500.000,266.667,V
1600,-0.830,2.315,-0.320,130.556,72.222,316.667,986.111,486.111,N
1601,-0.980,1.830,-0.705,125.000,63.889,255.556,750.000,236.111,N
1602,-0.875,2.085,-0.485,130.556,61.111,280.556,736.111,13.889,N
1603,-0.905,2.130,-0.625,144.444,75.000,297.222,761.111,25.000,N
1604,-0.850,2.170,-0.520,127.778,66.667,255.556,747.222,13.889,N
1605,-0.850,2.095,-0.560,125.000,61.111,266.667,727.778,19.444,N
1606,-0.320,2.155,-0.710,1219372.222,69.444,286.111,769.444,41.667,N
1607,-0.870,1.870,-0.570,133.333,72.222,283.333,738.889,30.556,N
1608,-0.830,1.855,-0.525,125.000,69.444,277.778,733.333,5.556,N
1609,-0.860,1.695,-0.555,133.333,66.667,263.889,752.778,19.444,N
1610,-0.840,1.825,-0.600,122.222,66.667,280.556,744.444,8.333,N
1611,-0.805,2.290,-0.575,136.111,80.556,291.667,744.444,0.000,N
1612,-0.990,2.225,-0.860,130.556,66.667,258.333,755.556,11.111,N
1613,-0.320,1.925,-0.630,1224580.556,72.222,283.333,738.889,16.667,N
1614,-0.840,1.910,-0.680,138.889,80.556,280.556,750.000,11.111,N
1615,-0.920,1.780,-0.575,130.556,63.889,280.556,747.222,2.778,N
1616,-0.805,1.860,-0.605,133.333,75.000,283.333,744.444,2.778,N
1617,-0.920,1.805,-0.705,141.667,80.556,277.778,744.444,0.000,N
1618,-0.810,1.835,-0.565,133.333,80.556,283.333,722.222,22.222,N
1619,-0.815,2.000,-0.540,130.556,80.556,280.556,744.444,22.222,N
1620,-0.890,1.995,-0.690,133.333,75.000,280.556,758.333,13.889,N
1621,-0.960,1.545,-0.610,127.778,63.889,247.222,725.000,33.333,N
1622,-0.805,1.900,-0.555,133.333,63.889,277.778,736.111,11.111,N
1623,-0.955,1.820,-0.640,133.333,83.333,286.111,747.222,11.111,N
1624,-0.775,1.690,-0.500,133.333,80.556,275.000,736.111,11.111,N
1625,-0.765,2.075,-0.555,138.889,80.556,283.333,730.556,5.556,N
1626,-0.865,1.975,-0.570,133.333,77.778,269.444,738.889,8.333,N
1627,-0.970,1.965,-0.715,138.889,77.778,277.778,727.778,11.111,N
1628,-0.880,1.770,-0.520,133.333,61.111,266.667,750.000,22.222,N
1629,-0.765,1.970,-0.465,127.778,66.667,283.333,733.333,16.667,N
1630,-0.730,2.205,-0.505,133.333,69.444,286.111,738.889,5.556,N
1631,-0.790,2.080,-0.525,125.000,69.444,288.889,761.111,22.222,N
1632,-0.755,2.330,-0.540,141.667,83.333,280.556,752.778,8.333,N
1633,-0.800,2.290,-0.505,138.889,77.778,280.556,730.556,22.222,N
1634,-0.765,2.410,-0.595,136.111,72.222,261.111,730.556,0.000,N
1635,-0.935,2.015,-0.710,141.667,80.556,283.333,738.889,8.333,N
1636,-0.910,1.575,-0.640,138.889,63.889,255.556,744.444,5.556,N
1637,-0.875,1.550,-0.640,125.000,61.111,258.333,730.556,13.889,N
1638,-0.865,1.775,-0.625,136.111,77.778,283.333,725.000,5.556,N
1639,-0.875,1.870,-0.650,136.111,69.444,247.222,758.333,33.333,N
1640,-0.835,1.915,-0.630,127.778,63.889,275.000,727.778,30.556,N
1641,-0.320,1.710,-0.705,1245269.444,77.778,283.333,713.889,13.889,N
1642,-0.815,1.770,-0.580,127.778,58.333,250.000,747.222,33.333,N
1643,-0.815,1.855,-0.580,133.333,80.556,280.556,725.000,22.222,N
1644,-0.815,1.775,-0.620,138.889,80.556,275.000,741.667,16.667,N
1645,-0.945,1.900,-0.780,133.333,63.889,269.444,741.667,0.000,N
1646,-0.815,1.810,-0.580,127.778,66.667,275.000,738.889,2.778,N
1647,-0.765,1.895,-0.515,144.444,80.556,280.556,752.778,13.889,N
1648,-0.735,2.010,-0.415,141.667,66.667,283.333,741.667,11.111,N
1649,-0.725,1.920,-0.465,127.778,58.333,250.000,725.000,16.667,N
1650,-0.775,2.225,-0.510,130.556,61.111,252.778,738.889,13.889,N
1651,-0.855,2.245,-0.665,138.889,61.111,275.000,730.556,8.333,N
1652,-0.320,1.505,-0.675,1253383.333,83.333,291.667,730.556,0.000,N
1653,-0.890,1.850,-0.610,130.556,61.111,250.000,738.889,8.333,N
1654,-0.815,1.975,-0.505,133.333,80.556,283.333,719.444,19.444,N
1655,-0.800,2.030,-0.485,141.667,83.333,286.111,741.667,22.222,N
1656,-0.775,2.050,-0.465,127.778,63.889,275.000,722.222,19.444,N
1657,-0.780,2.210,-0.510,122.222,61.111,252.778,725.000,2.778,N
1658,-0.320,1.870,-0.855,1257763.889,63.889,250.000,733.333,8.333,N
1659,-0.320,1.405,-0.655,1258480.556,77.778,280.556,716.667,16.667,N
1660,-0.835,1.895,-0.605,136.111,69.444,277.778,727.778,11.111,N
1661,-0.830,1.710,-0.560,130.556,83.333,280.556,747.222,19.444,N
1662,-0.850,2.105,-0.670,136.111,61.111,258.333,733.333,13.889,N
1663,-0.095,2.520,-0.320,58.333,113.889,-1261111.111,480.556,252.778,V
1664,-0.860,1.710,-0.450,125.000,61.111,313.889,994.444,513.889,N
1665,-0.845,1.720,-0.750,133.333,75.000,250.000,747.222,247.222,N
1666,-0.885,1.970,-0.620,130.556,63.889,277.778,727.778,19.444,N
1667,-0.320,1.930,-0.850,1264361.111,83.333,275.000,722.222,5.556,N
1668,-0.320,1.595,-0.705,1265094.444,80.556,280.556,733.333,11.111,N
1669,-0.885,1.745,-0.605,130.556,61.111,250.000,738.889,5.556,N
1670,-0.825,1.895,-0.635,133.333,75.000,277.778,719.444,19.444,N
1671,-0.320,1.925,-0.840,1267277.778,63.889,275.000,725.000,5.556,N
1672,-0.320,1.385,-0.820,1268011.111,72.222,255.556,733.333,8.333,N
1673,-0.920,1.555,-0.675,127.778,69.444,252.778,727.778,5.556,N
1674,-0.840,1.840,-0.645,144.444,66.667,266.667,719.444,8.333,N
1675,-0.885,1.870,-0.680,136.111,83.333,280.556,733.333,13.889,N
1676,-0.900,1.900,-0.685,130.556,66.667,263.889,719.444,13.889,N
1677,-0.105,2.565,-0.320,58.333,116.667,-1271347.222,494.444,225.000,V
1678,-0.840,1.830,-0.385,127.778,66.667,311.111,977.778,483.333,N
1679,-0.840,1.970,-0.790,136.111,63.889,272.222,733.333,244.444,N
1680,-0.320,1.695,-0.595,1273866.667,58.333,269.444,750.000,16.667,N
1681,-0.820,2.005,-0.655,136.111,61.111,272.222,738.889,11.111,N
1682,-0.855,1.970,-0.715,138.889,80.556,280.556,722.222,16.667,N
1683,-0.320,1.760,-0.760,1276055.556,72.222,272.222,727.778,5.556,N
1684,-0.955,1.510,-0.670,130.556,75.000,258.333,727.778,0.000,N
1685,-0.885,1.860,-0.665,138.889,77.778,280.556,744.444,16.667,N
1686,-0.790,2.005,-0.660,133.333,77.778,286.111,727.778,16.667,N
1687,-0.930,1.890,-0.695,133.333,66.667,283.333,722.222,5.556,N
1688,-0.870,2.075,-0.610,136.111,80.556,272.222,761.111,38.889,N
1689,-0.145,2.675,-0.320,58.333,116.667,-1280169.444,488.889,272.222,V
1690,-0.865,2.335,-0.340,133.333,66.667,311.111,958.333,469.444,N
1691,-0.960,2.115,-0.800,136.111,58.333,252.778,752.778,205.556,N
1692,-0.320,1.985,-0.825,1282669.444,75.000,269.444,730.556,22.222,N
1693,-0.320,1.430,-0.680,1283411.111,61.111,286.111,741.667,11.111,N
1694,-0.780,1.825,-0.525,133.333,83.333,283.333,733.333,8.333,N
1695,-0.740,2.025,-0.565,133.333,66.667,255.556,736.111,2.778,N
1696,-0.825,1.695,-0.665,141.667,77.778,277.778,755.556,19.444,N
1697,-0.250,2.505,-0.320,58.333,116.667,-1286069.444,491.667,263.889,V
1698,-0.995,1.400,-0.505,122.222,61.111,311.111,961.111,469.444,N
1699,-0.780,1.580,-0.625,133.333,77.778,255.556,744.444,216.667,N
1700,-0.770,1.760,-0.605,136.111,66.667,277.778,727.778,16.667,N
1701,-0.320,1.510,-0.715,1289291.667,80.556,294.444,730.556,2.778,N
1702,-0.890,1.750,-0.680,130.556,69.444,280.556,733.333,2.778,N
1703,-0.995,1.810,-0.795,136.111,58.333,258.333,719.444,13.889,N
1704,-0.320,1.440,-0.710,1291486.111,63.889,280.556,741.667,22.222,N
1705,-0.805,1.605,-0.550,138.889,72.222,272.222,722.222,19.444,N
1706,-0.830,1.920,-0.640,127.778,66.667,252.778,727.778,5.556,N
1707,-0.200,2.515,-0.320,58.333,116.667,-1293358.333,480.556,247.222,V
1708,-0.825,2.025,-0.390,127.778,61.111,286.111,977.778,497.222,N
1709,-0.865,1.850,-0.745,133.333,63.889,272.222,736.111,241.667,N
1710,-0.880,1.695,-0.590,133.333,77.778,283.333,738.889,2.778,N
1711,-0.815,1.965,-0.565,136.111,72.222,277.778,733.333,5.556,N
1712,-0.775,1.915,-0.495,130.556,63.889,280.556,727.778,5.556,N
1713,-0.720,1.935,-0.495,136.111,58.333,261.111,750.000,22.222,N
1714,-0.815,1.865,-0.650,130.556,61.111,247.222,744.444,5.556,N
1715,-0.985,1.530,-0.615,144.444,83.333,275.000,725.000,19.444,N
1716,-0.745,1.955,-0.540,136.111,66.667,272.222,725.000,0.000,N
1717,-0.895,1.930,-0.670,136.111,80.556,291.667,733.333,8.333,N
1718,-0.830,1.855,-0.435,136.111,83.333,275.000,744.444,11.111,N
1719,-0.695,2.135,-0.535,133.333,77.778,283.333,722.222,22.222,N
1720,-0.940,1.825,-0.700,130.556,63.889,252.778,716.667,5.556,N
1721,-0.950,1.260,-0.590,130.556,77.778,255.556,744.444,27.778,N
1722,-0.730,1.960,-0.545,130.556,63.889,252.778,727.778,16.667,N
1723,-0.785,1.680,-0.610,133.333,80.556,283.333,716.667,11.111,N
1724,-0.865,1.775,-0.685,136.111,63.889,252.778,747.222,30.556,N
1725,-0.920,1.755,-0.735,138.889,63.889,261.111,727.778,19.444,N
1726,-0.990,1.700,-0.755,133.333,63.889,280.556,744.444,16.667,N
1727,-0.925,2.130,-0.755,136.111,61.111,266.667,750.000,5.556,N
1728,-0.320,1.820,-0.820,1309080.556,75.000,269.444,730.556,19.444,N
1729,-0.995,1.655,-0.685,144.444,66.667,280.556,755.556,25.000,N
1730,-0.905,1.780,-0.640,138.889,77.778,280.556,744.444,11.111,N
1731,-0.870,1.980,-0.760,127.778,69.444,280.556,727.778,16.667,N
1732,-0.320,1.730,-0.825,1312038.889,66.667,252.778,730.556,2.778,N
1733,-0.230,2.335,-0.320,58.333,116.667,-1312463.889,483.333,247.222,V
1734,-0.810,1.610,-0.425,122.222,61.111,313.889,977.778,494.444,N
1735,-0.830,1.755,-0.755,133.333,58.333,255.556,758.333,219.444,N
1736,-0.320,1.590,-0.890,1314977.778,66.667,272.222,719.444,38.889,N
1737,-0.975,1.620,-0.670,136.111,75.000,280.556,741.667,22.222,N
1738,-0.845,1.815,-0.570,127.778,75.000,277.778,736.111,5.556,N
1739,-0.835,1.860,-0.620,127.778,58.333,252.778,738.889,2.778,N
1740,-0.985,1.885,-0.675,133.333,77.778,266.667,750.000,11.111,N
1741,-0.885,2.055,-0.615,136.111,63.889,252.778,727.778,22.222,N
1742,-0.900,2.030,-0.700,133.333,72.222,280.556,744.444,16.667,N
1743,-0.320,1.465,-0.840,1320166.667,83.333,275.000,750.000,5.556,N
1744,-0.955,1.600,-0.710,122.222,58.333,252.778,738.889,11.111,N
1745,-0.320,1.685,-0.905,1321641.667,69.444,286.111,736.111,2.778,N
1746,-0.320,1.630,-0.845,1322408.333,61.111,275.000,766.667,30.556,N
1747,-0.320,1.565,-0.985,1323155.556,77.778,255.556,747.222,19.444,N
1748,-0.320,1.515,-0.320,1323880.556,61.111,-1323844.444,725.000,22.222,N
1749,-0.320,1.450,-0.320,1324625.000,72.222,-1324577.778,744.444,19.444,N
1750,-0.320,1.325,-0.320,1325372.222,58.333,-1325338.889,747.222,2.778,N
1751,-0.320,1.355,-0.320,1326127.778,77.778,-1326072.222,755.556,8.333,N
1752,-0.320,1.650,-0.895,1326869.444,61.111,263.889,741.667,13.889,N
1753,-0.320,1.640,-0.955,1327611.111,63.889,283.333,741.667,0.000,N
1754,-0.320,1.770,-0.965,1328363.889,80.556,283.333,752.778,11.111,N
1755,-0.220,2.235,-0.320,58.333,116.667,-1328791.667,486.111,266.667,V
1756,-0.970,1.980,-0.515,136.111,69.444,322.222,994.444,508.333,N
1757,-0.320,1.700,-0.610,1330583.333,61.111,250.000,738.889,255.556,N
1758,-0.615,1.970,-0.325,136.111,75.000,283.333,741.667,2.778,N
1759,-0.880,1.785,-0.320,141.667,83.333,-1332016.667,750.000,8.333,N
1760,-0.320,1.325,-0.885,1332811.111,80.556,277.778,736.111,13.889,N
1761,-0.995,1.535,-0.745,136.111,66.667,288.889,736.111,0.000,N
1762,-0.885,1.780,-0.665,133.333,61.111,247.222,772.222,36.111,N
1763,-0.950,1.440,-0.670,136.111,69.444,275.000,744.444,27.778,N
1764,-0.670,1.645,-0.425,130.556,63.889,280.556,725.000,19.444,N
1765,-0.595,1.885,-0.510,136.111,61.111,258.333,750.000,25.000,N
1766,-0.630,1.945,-0.320,133.333,61.111,250.000,750.000,0.000,N
1767,-0.525,2.200,-0.315,138.889,63.889,252.778,758.333,8.333,N
1768,-0.470,2.280,-0.260,125.000,61.111,255.556,738.889,19.444,N
1769,0.290,2.970,-0.920,58.333,113.889,366.667,502.778,236.111,V
1770,-0.790,1.535,-0.285,127.778,75.000,313.889,983.333,480.556,N
1771,-0.580,1.815,-0.450,136.111,66.667,247.222,752.778,230.556,N
1772,-0.605,1.775,-0.400,136.111,63.889,263.889,725.000,27.778,N
1773,-0.620,1.875,-0.450,130.556,66.667,280.556,747.222,22.222,N
1774,-0.640,2.035,-0.470,133.333,83.333,288.889,738.889,8.333,N
1775,-0.735,1.970,-0.540,133.333,63.889,275.000,761.111,22.222,N
1776,-0.760,2.080,-0.475,136.111,80.556,277.778,747.222,13.889,N
1777,-0.755,1.970,-0.605,133.333,83.333,288.889,730.556,16.667,N
1778,-0.965,1.720,-0.725,141.667,58.333,252.778,775.000,44.444,N
1779,-0.830,1.520,-0.555,127.778,63.889,252.778,744.444,30.556,N
1780,-0.780,1.575,-0.610,133.333,61.111,280.556,725.000,19.444,N
1781,-0.800,1.520,-0.665,130.556,72.222,286.111,752.778,27.778,N
1782,-0.950,1.560,-0.715,127.778,61.111,247.222,755.556,2.778,N
1783,-0.215,2.450,-0.320,58.333,116.667,-1349675.000,505.556,250.000,V
1784,-0.885,1.510,-0.525,119.444,61.111,288.889,988.889,483.333,N
1785,-0.885,1.355,-0.765,127.778,58.333,277.778,738.889,250.000,N
1786,-0.910,1.360,-0.695,130.556,77.778,280.556,752.778,13.889,N
1787,-0.885,1.380,-0.590,136.111,61.111,255.556,744.444,8.333,N
1788,-0.885,1.685,-0.575,138.889,61.111,280.556,730.556,13.889,N
1789,-0.165,2.110,3.335,61.111,86.111,405.556,733.333,2.778,N
1790,-0.320,3.100,3.385,1355152.778,0.000,1354844.444,730.556,2.778,N
1791,-0.320,2.150,3.385,1355905.556,0.000,1354844.444,752.778,22.222,N
1792,-0.320,1.385,3.385,1356633.333,0.000,1354844.444,727.778,25.000,N
1793,1.065,0.930,0.915,197.222,50.000,61.111,550.000,177.778,V
1794,0.510,0.400,0.410,172.222,63.889,80.556,936.111,386.111,N
1795,0.245,0.150,0.180,186.111,25.000,44.444,744.444,191.667,N
1796,0.105,0.040,0.075,41.667,38.889,86.111,725.000,19.444,N
1797,0.070,0.015,0.105,19.444,33.333,250.000,744.444,19.444,N
1798,0.080,0.050,0.000,163.889,72.222,88.889,744.444,0.000,N
1799,-0.270,-0.230,-0.395,122.222,58.333,247.222,755.556,11.111,N
1800,-0.645,-0.300,-0.610,125.000,63.889,283.333,733.333,22.222,N
1801,-0.835,-0.405,-0.905,116.667,61.111,250.000,730.556,2.778,N
1802,-0.320,-0.470,-0.320,1364047.222,69.444,-1364002.778,750.000,19.444,N
1803,-0.320,-0.630,-0.320,1364780.556,66.667,-1364738.889,733.333,16.667,N
1804,-0.320,-0.695,-0.320,1365500.000,61.111,-1365466.667,719.444,13.889,N
1805,-0.320,-0.685,-0.320,1366250.000,72.222,-1366202.778,750.000,30.556,N
1806,-0.320,-0.840,-0.320,1366969.444,61.111,-1366933.333,719.444,30.556,N
1807,-0.320,-0.715,-0.320,1367713.889,72.222,-1367666.667,744.444,25.000,N
1808,-0.320,-0.605,-0.320,1368455.556,72.222,-1368408.333,741.667,2.778,N
1809,-0.320,-0.440,-0.320,1369188.889,80.556,-1369130.556,733.333,8.333,N
1810,-0.320,-0.375,-0.320,1369958.333,80.556,-1369902.778,769.444,36.111,N
1811,-0.320,-0.345,-0.320,1370700.000,80.556,-1370644.444,741.667,27.778,N
1812,-0.320,-0.310,-0.320,1371427.778,83.333,-1371369.444,727.778,13.889,N
1813,-0.320,-0.320,-0.320,1372180.556,61.111,-1372144.444,752.778,25.000,N
1814,-0.320,-0.710,-0.320,1372919.444,80.556,-1372866.667,738.889,13.889,N
1815,-0.320,0.430,-0.320,1373416.667,113.889,-1373358.333,497.222,241.667,V
1816,-0.320,-0.400,-0.320,1374405.556,63.889,-1374366.667,988.889,491.667,N
1817,-0.320,0.295,-0.985,1375150.000,72.222,263.889,744.444,244.444,N
1818,-0.320,0.400,-0.975,1375902.778,83.333,277.778,752.778,8.333,N
1819,-0.320,0.505,-0.895,1376627.778,77.778,280.556,725.000,27.778,N
1820,-0.320,0.310,-0.320,1377350.000,66.667,-1377308.333,722.222,2.778,N
1821,-0.320,0.375,-0.320,1378105.556,61.111,-1378066.667,755.556,33.333,N
1822,-0.320,0.465,-0.320,1378825.000,69.444,-1378777.778,719.444,36.111,N
1823,-0.320,0.635,-0.320,1379572.222,83.333,-1379513.889,747.222,27.778,N
1824,-0.320,0.765,-0.320,1380327.778,77.778,-1380272.222,755.556,8.333,N
1825,-0.320,0.415,-0.320,1381058.333,75.000,-1381008.333,730.556,25.000,N
1826,-0.320,0.575,-0.320,1381808.333,86.111,-1381750.000,750.000,19.444,N
