id,Pamp,Ramp,Tamp,PR,QRS,QT,RRI,dRRI,label
1,0.275,-1.080,-0.195,88.889,5.556,344.444,675.000,777.778,V
2,-0.110,0.775,0.070,55.556,77.778,380.556,1416.667,741.667,R
3,0.225,-0.995,-0.375,38.889,5.556,347.222,647.222,769.444,V
4,-0.095,0.770,0.065,69.444,83.333,386.111,1447.222,800.000,R
5,0.200,-1.105,-0.255,83.333,8.333,347.222,697.222,750.000,V
6,-0.105,0.750,0.040,52.778,86.111,388.889,1438.889,741.667,R
7,0.245,-1.030,-0.180,86.111,2.778,344.444,683.333,755.556,V
8,-0.080,0.765,0.095,94.444,72.222,377.778,1388.889,705.556,R
9,0.245,-0.995,-0.220,91.667,2.778,347.222,652.778,736.111,V
10,-0.035,0.820,0.085,80.556,86.111,383.333,1513.889,861.111,R
11,0.265,-0.960,-0.185,91.667,5.556,347.222,700.000,813.889,V
12,-0.040,0.800,0.100,58.333,88.889,369.444,1444.444,744.444,R
13,0.260,-0.875,-0.175,83.333,0.000,347.222,663.889,780.556,V
14,-0.015,0.815,0.120,61.111,80.556,375.000,1422.222,758.333,R
15,0.275,-0.815,-0.300,83.333,8.333,344.444,688.889,733.333,V
16,0.005,0.830,0.140,72.222,94.444,388.889,1475.000,786.111,R
17,0.320,-0.855,-0.165,91.667,2.778,341.667,700.000,775.000,V
18,0.075,0.850,0.205,58.333,91.667,386.111,1413.889,713.889,R
19,0.375,-0.695,-0.195,80.556,5.556,347.222,658.333,755.556,V
20,0.040,0.865,0.290,88.889,86.111,388.889,1388.889,730.556,R
21,0.550,-0.580,0.360,69.444,5.556,347.222,713.889,675.000,V
22,-0.130,0.670,0.335,55.556,88.889,391.667,1447.222,733.333,R
23,0.750,-0.265,-0.065,50.000,52.778,347.222,688.889,758.333,V
24,0.015,0.705,0.135,72.222,91.667,394.444,1350.000,661.111,R
25,0.285,-0.900,-0.090,91.667,0.000,341.667,686.111,663.889,V
26,0.005,0.750,0.195,61.111,80.556,372.222,1369.444,683.333,R
27,0.335,-0.830,-0.150,86.111,2.778,344.444,694.444,675.000,V
28,-0.045,0.630,0.120,58.333,80.556,375.000,1419.444,725.000,R
29,0.235,-0.620,-0.315,105.556,58.333,347.222,691.667,727.778,V
30,-0.020,0.655,0.200,69.444,83.333,372.222,1383.333,691.667,R
31,0.410,-0.605,-0.075,47.222,8.333,330.556,663.889,719.444,V
32,0.055,0.760,0.145,58.333,94.444,388.889,1388.889,725.000,R
33,0.310,-0.840,0.200,52.778,2.778,347.222,733.333,655.556,V
34,0.240,0.475,-0.050,58.333,111.111,355.556,411.111,322.222,V
35,-0.095,-1.090,0.265,58.333,2.778,341.667,1025.000,613.889,L
36,0.580,0.370,-0.055,155.556,80.556,88.889,694.444,330.556,V
37,-0.145,0.795,0.480,58.333,116.667,405.556,438.889,255.556,V
38,0.055,1.210,-0.360,58.333,108.333,397.222,383.333,55.556,V
39,-0.085,-1.100,0.350,61.111,0.000,319.444,719.444,336.111,L
40,0.350,0.385,0.505,77.778,55.556,125.000,397.222,322.222,!
41,-0.195,-0.665,0.155,83.333,2.778,255.556,636.111,238.889,!
42,0.155,-1.075,0.405,91.667,2.778,241.667,344.444,291.667,!
43,0.405,-0.930,0.595,94.444,11.111,250.000,333.333,11.111,!
44,0.595,-0.825,0.600,77.778,0.000,291.667,333.333,0.000,!
45,0.600,-0.640,0.205,66.667,2.778,302.778,358.333,25.000,!
46,0.205,-0.300,0.115,63.889,5.556,219.444,366.667,8.333,!
47,0.115,-0.850,0.330,127.778,13.889,236.111,341.667,25.000,!
48,0.330,-0.270,0.465,102.778,55.556,233.333,325.000,16.667,!
49,0.465,-0.735,0.635,169.444,16.667,152.778,408.333,83.333,!
50,0.635,-0.370,0.620,147.222,33.333,186.111,302.778,105.556,!
51,0.620,-0.340,0.525,155.556,52.778,180.556,341.667,38.889,!
52,0.525,-0.470,0.540,163.889,41.667,169.444,344.444,2.778,!
53,0.540,-0.620,0.485,166.667,22.222,163.889,336.111,8.333,!
54,0.485,-0.800,0.455,150.000,11.111,150.000,313.889,22.222,!
55,0.455,-0.865,0.505,169.444,5.556,150.000,319.444,5.556,!
56,0.505,-0.390,0.640,125.000,36.111,238.889,275.000,44.444,!
57,0.640,-0.890,0.640,69.444,13.889,258.333,311.111,36.111,!
58,0.640,-0.675,0.605,58.333,33.333,275.000,316.667,5.556,!
59,0.605,-0.640,0.840,52.778,55.556,344.444,330.556,13.889,!
60,0.840,-0.840,0.445,108.333,50.000,227.778,452.778,122.222,!
61,0.445,-0.495,0.385,125.000,27.778,202.778,355.556,97.222,!
62,0.230,-0.670,0.580,197.222,8.333,100.000,452.778,97.222,!
63,0.530,-0.405,0.725,197.222,38.889,147.222,302.778,150.000,!
64,0.725,-0.555,0.790,163.889,30.556,188.889,311.111,8.333,!
65,0.790,-0.835,0.780,163.889,8.333,183.333,352.778,41.667,!
66,0.780,-0.765,1.155,147.222,16.667,286.111,330.556,22.222,!
67,1.155,-0.715,1.170,147.222,8.333,327.778,433.333,102.778,!
68,1.170,0.215,-0.115,25.000,19.444,258.333,344.444,88.889,!
69,-0.180,-0.135,-0.125,63.889,113.889,322.222,261.111,83.333,]
70,-0.035,0.645,0.265,119.444,80.556,391.667,1319.444,1058.333,R
71,-0.025,-0.945,0.330,197.222,2.778,230.556,680.556,638.889,V
72,-0.375,0.420,0.035,63.889,88.889,388.889,1413.889,733.333,R
73,0.000,0.070,0.315,58.333,61.111,238.889,377.778,1036.111,!
74,0.315,-1.725,0.285,147.222,8.333,225.000,336.111,41.667,!
75,0.285,-1.440,0.335,138.889,8.333,191.667,355.556,19.444,!
76,0.335,-1.285,0.620,122.222,11.111,180.556,313.889,41.667,!
77,0.620,-1.045,0.550,113.889,30.556,202.778,294.444,19.444,!
78,0.550,-1.015,0.665,113.889,30.556,188.889,316.667,22.222,!
79,0.665,-0.980,0.920,105.556,8.333,244.444,291.667,25.000,!
80,0.920,-0.815,0.755,86.111,11.111,247.222,330.556,38.889,!
81,0.755,-0.790,0.510,83.333,2.778,219.444,330.556,0.000,!
82,0.510,-0.580,0.330,83.333,16.667,225.000,300.000,30.556,!
83,0.330,-0.420,0.130,66.667,25.000,247.222,286.111,13.889,!
84,0.130,-0.385,0.530,61.111,13.889,238.889,308.333,22.222,!
85,0.530,-0.575,0.405,122.222,19.444,347.222,361.111,52.778,!
86,-0.285,-1.220,0.670,75.000,0.000,163.889,252.778,108.333,!
87,0.620,-1.080,0.765,175.000,30.556,188.889,366.667,113.889,!
88,0.765,-1.010,1.050,166.667,5.556,255.556,325.000,41.667,!
89,0.955,-1.495,0.495,197.222,2.778,163.889,488.889,163.889,!
90,0.495,0.230,0.020,180.556,58.333,58.333,341.667,147.222,]
91,-0.290,0.450,0.260,55.556,83.333,391.667,1072.222,730.556,R
92,0.420,-1.265,-0.040,191.667,2.778,341.667,738.889,333.333,V
93,-0.040,-0.400,-0.175,22.222,55.556,347.222,361.111,377.778,V
94,-0.045,1.030,-0.430,58.333,108.333,397.222,422.222,61.111,V
95,-0.195,-1.055,0.480,75.000,8.333,291.667,605.556,183.333,L
96,-0.290,-1.605,-0.055,155.556,2.778,297.222,808.333,202.778,L
97,-0.665,-1.900,0.145,69.444,0.000,333.333,911.111,102.778,L
98,0.655,1.315,-0.240,58.333,116.667,394.444,677.778,233.333,V
99,-0.165,0.660,0.135,194.444,86.111,377.778,1197.222,519.444,R
100,-0.185,-1.465,0.600,69.444,0.000,327.778,994.444,202.778,L
101,-0.070,-1.430,0.355,58.333,2.778,311.111,919.444,75.000,L
102,-0.380,-1.660,0.190,63.889,2.778,291.667,886.111,33.333,L
103,-0.350,-1.625,0.300,58.333,2.778,308.333,863.889,22.222,L
104,0.500,0.900,-0.565,58.333,108.333,402.778,727.778,136.111,V
105,-0.280,-1.495,0.335,66.667,5.556,325.000,1127.778,400.000,L
106,0.235,0.565,-0.440,186.111,113.889,113.889,652.778,475.000,V
107,-0.240,0.650,0.150,75.000,77.778,358.333,1141.667,488.889,R
108,0.265,1.520,-0.655,58.333,116.667,400.000,680.556,461.111,V
109,-0.260,0.595,0.085,63.889,83.333,372.222,1119.444,438.889,R
110,-0.210,-1.470,0.320,72.222,0.000,291.667,908.333,211.111,L
111,0.470,1.400,0.155,58.333,116.667,402.778,705.556,202.778,V
112,0.120,0.845,-0.245,58.333,116.667,116.667,397.222,308.333,V
113,0.125,0.920,0.205,91.667,83.333,375.000,1486.111,1088.889,R
114,0.220,0.775,-0.460,102.778,113.889,366.667,688.889,797.222,V
115,-0.310,0.055,-0.070,50.000,69.444,263.889,416.667,272.222,V
116,-0.210,0.655,-0.010,97.222,80.556,377.778,944.444,527.778,R
117,-0.225,-1.535,0.365,58.333,2.778,297.222,1088.889,144.444,L
118,0.605,1.375,-0.655,58.333,111.111,405.556,669.444,419.444,V
119,-0.060,0.850,0.215,188.889,88.889,391.667,1330.556,661.111,R
120,0.490,1.395,-0.450,58.333,113.889,405.556,733.333,597.222,V
121,-0.080,0.830,0.160,183.333,83.333,375.000,1194.444,461.111,R
122,-0.150,-1.540,0.340,58.333,0.000,269.444,980.556,213.889,L
123,-0.220,-1.540,0.290,58.333,2.778,272.222,916.667,63.889,L
124,-0.345,-1.710,0.150,58.333,0.000,308.333,944.444,27.778,L
125,-0.310,-1.635,0.215,69.444,2.778,277.778,980.556,36.111,L
126,-0.275,-1.630,0.230,69.444,0.000,294.444,966.667,13.889,L
127,-0.195,-1.530,0.320,55.556,0.000,294.444,983.333,16.667,L
128,0.420,1.225,-0.500,58.333,116.667,394.444,736.111,247.222,V
129,-0.095,0.745,0.265,63.889,77.778,355.556,1088.889,352.778,R
130,-0.055,-1.400,0.390,58.333,0.000,275.000,975.000,113.889,L
131,-0.130,-1.430,0.360,61.111,2.778,308.333,1002.778,27.778,L
132,-0.155,-1.410,0.330,63.889,0.000,280.556,1022.222,19.444,L
133,-0.220,-1.500,0.270,55.556,0.000,275.000,955.556,66.667,L
134,-0.180,-1.385,0.345,66.667,0.000,297.222,944.444,11.111,L
135,-0.185,-1.450,0.370,58.333,2.778,291.667,958.333,13.889,L
136,-0.165,-1.420,0.360,61.111,2.778,300.000,927.778,30.556,L
137,-0.085,-1.320,0.400,69.444,2.778,313.889,980.556,52.778,L
138,-0.105,-1.310,0.390,72.222,2.778,300.000,986.111,5.556,L
139,-0.175,-1.380,0.295,69.444,2.778,302.778,980.556,5.556,L
140,-0.165,-1.375,0.355,69.444,2.778,294.444,966.667,13.889,L
141,-0.125,-1.270,0.305,66.667,2.778,272.222,927.778,38.889,L
142,-0.155,-1.400,0.250,58.333,2.778,277.778,908.333,19.444,L
143,-0.235,-1.445,0.235,66.667,2.778,297.222,994.444,86.111,L
144,-0.250,-1.385,0.200,66.667,2.778,297.222,1019.444,25.000,L
145,-0.265,-1.330,0.205,58.333,2.778,297.222,947.222,72.222,L
146,-0.305,-1.430,0.175,72.222,2.778,294.444,969.444,22.222,L
147,-0.285,-1.415,0.215,63.889,5.556,302.778,944.444,25.000,L
148,-0.260,-1.350,0.195,61.111,5.556,305.556,930.556,13.889,L
149,-0.290,-1.485,0.185,63.889,2.778,325.000,977.778,47.222,L
150,-0.265,-1.380,0.200,66.667,2.778,316.667,972.222,5.556,L
151,-0.210,-1.290,0.235,66.667,2.778,302.778,980.556,8.333,L
152,-0.250,-1.415,0.245,58.333,2.778,308.333,961.111,19.444,L
153,-0.185,-1.220,0.250,58.333,2.778,275.000,919.444,41.667,L
154,-0.160,-1.185,0.245,58.333,0.000,275.000,913.889,5.556,L
155,-0.170,-1.110,0.270,63.889,2.778,305.556,902.778,11.111,L
156,-0.135,-1.070,0.270,66.667,2.778,336.111,969.444,66.667,L
157,-0.160,-1.165,0.275,58.333,0.000,291.667,975.000,5.556,L
158,-0.125,-1.105,0.275,63.889,2.778,280.556,930.556,44.444,L
159,-0.150,-1.125,0.250,66.667,2.778,302.778,927.778,2.778,L
160,-0.180,-1.200,0.240,63.889,2.778,291.667,927.778,0.000,L
161,-0.210,-1.135,0.220,69.444,2.778,313.889,891.667,36.111,L
162,-0.195,-1.170,0.250,61.111,2.778,291.667,936.111,44.444,L
163,-0.210,-1.175,0.230,69.444,0.000,277.778,947.222,11.111,L
164,-0.120,-0.725,0.205,63.889,2.778,291.667,938.889,8.333,L
165,0.340,0.995,-0.465,55.556,113.889,113.889,733.333,205.556,V
166,-0.155,-1.030,0.415,63.889,2.778,322.222,1086.111,352.778,L
167,0.315,0.555,-0.095,166.667,116.667,116.667,619.444,466.667,V
168,-0.085,0.440,0.180,91.667,97.222,391.667,1122.222,502.778,R
169,0.560,1.025,0.235,58.333,116.667,405.556,802.778,319.444,V
170,0.395,0.805,-0.350,58.333,116.667,405.556,422.222,380.556,V
171,-0.100,-1.085,0.420,69.444,0.000,313.889,752.778,330.556,L
172,0.370,0.595,-0.160,152.778,113.889,113.889,633.333,119.444,V
173,-0.070,0.595,0.190,58.333,80.556,383.333,1172.222,538.889,R
174,0.155,-1.105,0.255,194.444,0.000,305.556,600.000,572.222,V
175,-0.095,0.560,0.020,197.222,83.333,388.889,1238.889,638.889,R
176,0.000,-0.915,0.150,88.889,5.556,302.778,633.333,605.556,V
177,-0.135,0.480,-0.035,163.889,83.333,375.000,1294.444,661.111,R
178,-0.090,-0.885,0.115,94.444,2.778,280.556,661.111,633.333,V
179,-0.065,0.460,0.075,186.111,86.111,388.889,1280.556,619.444,R
180,0.020,-0.745,0.205,194.444,2.778,241.667,622.222,658.333,V
181,-0.145,0.450,0.015,183.333,83.333,388.889,1208.333,586.111,R
182,-0.015,-0.825,0.205,197.222,0.000,269.444,611.111,597.222,V
183,-0.180,0.460,-0.090,80.556,88.889,377.778,1350.000,738.889,R
184,-0.100,-0.950,0.220,188.889,0.000,277.778,641.667,708.333,V
185,-0.120,0.565,-0.020,197.222,86.111,388.889,1291.667,650.000,R
186,-0.050,-0.940,0.240,194.444,2.778,288.889,630.556,661.111,V
187,-0.090,0.635,0.055,186.111,75.000,377.778,1275.000,644.444,R
188,-0.010,-0.920,0.290,197.222,13.889,272.222,613.889,661.111,V
189,-0.140,0.635,0.010,188.889,83.333,386.111,1300.000,686.111,R
190,-0.050,-0.925,0.315,197.222,13.889,288.889,669.444,630.556,V
191,-0.170,0.630,0.020,152.778,83.333,388.889,1297.222,627.778,R
192,-0.045,-0.795,0.300,191.667,27.778,280.556,652.778,644.444,V
193,-0.130,0.665,0.070,186.111,72.222,375.000,1263.889,611.111,R
194,0.005,-0.810,0.410,194.444,5.556,280.556,602.778,661.111,V
195,-0.045,0.750,0.130,186.111,91.667,388.889,1363.889,761.111,R
196,0.025,-0.820,0.375,194.444,19.444,280.556,672.222,691.667,V
197,-0.095,0.775,0.165,69.444,83.333,391.667,1294.444,622.222,R
198,0.120,-1.050,0.760,197.222,8.333,275.000,644.444,650.000,V
199,-0.125,0.645,0.005,197.222,80.556,375.000,1277.778,633.333,R
200,-0.010,-1.000,0.430,191.667,22.222,300.000,630.556,647.222,V
201,-0.160,0.465,0.015,52.778,88.889,391.667,1325.000,694.444,R
202,-0.040,-1.215,0.390,197.222,2.778,275.000,658.333,666.667,V
203,-0.200,0.450,0.030,66.667,83.333,388.889,1338.889,680.556,R
204,-0.015,-1.430,0.575,194.444,2.778,277.778,641.667,697.222,V
205,-0.280,0.415,-0.055,183.333,80.556,386.111,1291.667,650.000,R
206,-0.060,-1.220,0.455,191.667,5.556,263.889,608.333,683.333,V
207,-0.190,0.335,-0.115,194.444,97.222,391.667,1352.778,744.444,R
208,-0.100,-1.615,0.505,197.222,2.778,272.222,666.667,686.111,V
209,-0.130,0.495,0.025,197.222,83.333,383.333,1350.000,683.333,R
210,0.000,-1.330,0.355,197.222,5.556,302.778,622.222,727.778,V
211,-0.130,0.510,0.070,191.667,83.333,377.778,1305.556,683.333,R
212,0.070,-1.190,0.360,197.222,8.333,288.889,625.000,680.556,V
213,-0.235,0.565,0.000,194.444,77.778,380.556,1291.667,666.667,R
214,0.025,-1.285,0.415,191.667,2.778,311.111,650.000,641.667,V
215,-0.185,0.590,-0.030,186.111,86.111,391.667,1358.333,708.333,R
216,0.000,-1.155,0.430,197.222,19.444,300.000,633.333,725.000,V
217,-0.130,0.575,0.015,186.111,86.111,391.667,1333.333,700.000,R
218,0.020,-1.150,0.310,191.667,2.778,244.444,602.778,730.556,V
219,-0.165,0.500,-0.030,188.889,94.444,388.889,1333.333,730.556,R
220,-0.010,-1.180,0.195,197.222,8.333,286.111,661.111,672.222,V
221,-0.220,0.580,-0.025,197.222,80.556,372.222,1361.111,700.000,R
222,0.010,-0.955,0.180,197.222,13.889,288.889,622.222,738.889,V
223,-0.260,0.485,-0.110,191.667,75.000,375.000,1322.222,700.000,R
224,-0.065,-1.180,0.170,180.556,0.000,302.778,605.556,716.667,V
225,-0.285,0.340,-0.170,188.889,94.444,388.889,1344.444,738.889,R
226,-0.165,-1.105,0.070,186.111,8.333,288.889,661.111,683.333,V
227,-0.270,0.330,-0.105,191.667,94.444,386.111,1372.222,711.111,R
228,-0.060,-0.965,0.100,191.667,13.889,280.556,633.333,738.889,V
229,-0.160,0.465,-0.025,197.222,80.556,377.778,1336.111,702.778,R
230,-0.025,-0.960,0.065,194.444,0.000,291.667,613.889,722.222,V
231,-0.240,0.500,-0.110,191.667,97.222,391.667,1316.667,702.778,R
232,-0.030,-0.315,0.040,166.667,80.556,386.111,588.889,727.778,V
233,-0.220,0.615,-0.045,194.444,86.111,383.333,1461.111,872.222,R
234,0.020,-0.265,0.010,147.222,69.444,377.778,555.556,905.556,V
235,-0.160,0.690,0.000,194.444,88.889,386.111,1391.667,836.111,R
236,0.010,-0.875,0.005,197.222,5.556,286.111,641.667,750.000,V
237,-0.205,0.650,-0.050,197.222,80.556,375.000,1294.444,652.778,R
238,0.025,-0.170,-0.025,161.111,97.222,388.889,580.556,713.889,V
239,-0.215,0.650,-0.025,66.667,83.333,388.889,1458.333,877.778,R
240,0.035,-0.155,0.010,158.333,97.222,388.889,572.222,886.111,V
241,-0.165,0.540,-0.010,191.667,80.556,383.333,1416.667,844.444,R
242,0.025,-0.810,-0.010,191.667,16.667,308.333,583.333,833.333,V
243,-0.190,0.265,-0.110,66.667,102.778,391.667,1355.556,772.222,R
244,-0.030,-0.300,-0.100,177.778,97.222,375.000,597.222,758.333,V
245,-0.210,0.610,-0.020,72.222,83.333,391.667,1458.333,861.111,R
246,0.030,-0.850,0.015,197.222,11.111,319.444,594.444,863.889,V
247,-0.220,0.325,-0.050,69.444,97.222,400.000,1369.444,775.000,R
248,-0.015,-0.655,-0.060,188.889,2.778,308.333,602.778,766.667,V
249,-0.190,0.230,-0.085,55.556,100.000,391.667,1350.000,747.222,R
250,-0.010,-0.240,-0.040,155.556,97.222,388.889,583.333,766.667,V
251,-0.190,0.615,-0.055,66.667,86.111,388.889,1480.556,897.222,R
252,-0.005,-0.155,-0.045,150.000,94.444,400.000,577.778,902.778,V
253,-0.210,0.640,-0.030,191.667,75.000,380.556,1405.556,827.778,R
254,-0.010,-0.175,-0.025,147.222,66.667,361.111,544.444,861.111,V
255,-0.175,0.675,-0.010,75.000,86.111,377.778,1394.444,850.000,R
256,0.075,-0.175,-0.050,175.000,83.333,375.000,583.333,811.111,V
257,-0.240,0.600,-0.090,197.222,86.111,388.889,1488.889,905.556,R
258,-0.025,-0.240,-0.045,180.556,77.778,383.333,563.889,925.000,V
259,-0.305,0.530,-0.150,161.111,86.111,383.333,1427.778,863.889,R
260,-0.095,-0.235,-0.095,169.444,100.000,388.889,561.111,866.667,V
261,-0.195,0.625,-0.060,105.556,88.889,391.667,1383.333,822.222,R
262,0.035,-0.145,-0.070,155.556,75.000,375.000,586.111,797.222,V
263,-0.290,0.550,-0.125,136.111,86.111,388.889,1477.778,891.667,R
264,-0.055,-0.275,-0.100,172.222,80.556,372.222,575.000,902.778,V
265,-0.220,0.520,-0.025,191.667,83.333,377.778,1430.556,855.556,R
266,0.015,-0.155,-0.040,158.333,83.333,375.000,550.000,880.556,V
267,-0.255,0.450,-0.090,191.667,94.444,386.111,1386.111,836.111,R
268,-0.020,-0.225,-0.075,166.667,86.111,375.000,588.889,797.222,V
269,-0.280,0.470,-0.060,186.111,86.111,388.889,1450.000,861.111,R
270,-0.015,-0.250,-0.030,147.222,94.444,375.000,558.333,891.667,V
271,-0.245,0.490,-0.070,197.222,83.333,386.111,1419.444,861.111,R
272,0.010,-0.305,0.065,172.222,80.556,369.444,561.111,858.333,V
273,-0.035,0.570,0.010,194.444,83.333,375.000,1402.778,841.667,R
274,0.020,-0.925,0.100,197.222,0.000,294.444,661.111,741.667,V
275,-0.060,0.535,0.025,194.444,83.333,375.000,1405.556,744.444,R
276,0.085,-0.030,0.000,158.333,97.222,391.667,577.778,827.778,V
277,-0.020,0.560,0.100,177.778,83.333,380.556,1388.889,811.111,R
278,0.155,0.010,0.000,144.444,80.556,372.222,550.000,838.889,V
279,-0.105,0.545,0.035,194.444,80.556,372.222,1397.222,847.222,R
280,0.140,-0.070,-0.020,158.333,91.667,372.222,583.333,813.889,V
281,0.035,0.320,0.115,186.111,80.556,116.667,641.667,58.333,R
282,-0.135,-1.205,0.290,63.889,2.778,300.000,1063.889,422.222,L
283,0.290,0.275,0.425,19.444,30.556,136.111,369.444,694.444,!
284,0.425,-0.325,-0.210,152.778,22.222,277.778,280.556,88.889,!
285,-0.210,-0.650,0.180,77.778,13.889,241.667,361.111,80.556,!
286,0.180,-0.770,0.510,86.111,19.444,261.111,327.778,33.333,!
287,0.510,-0.845,0.520,69.444,13.889,266.667,341.667,13.889,!
288,0.520,-0.275,0.410,36.111,41.667,297.222,302.778,38.889,!
289,0.410,-0.515,0.285,58.333,19.444,261.111,355.556,52.778,!
290,0.285,-0.385,0.475,66.667,25.000,247.222,327.778,27.778,!
291,0.475,-0.395,0.645,88.889,47.222,277.778,338.889,11.111,!
292,0.645,-0.580,0.375,105.556,16.667,244.444,383.333,44.444,!
293,0.375,-0.560,0.560,125.000,2.778,275.000,369.444,13.889,!
294,0.560,-0.465,-0.400,75.000,30.556,191.667,347.222,22.222,!
295,-0.400,-1.005,0.140,111.111,0.000,255.556,336.111,11.111,!
296,0.065,0.080,0.140,61.111,52.778,91.667,216.667,119.444,]
297,-0.235,0.025,-0.060,58.333,100.000,391.667,1152.778,936.111,R
298,-0.185,-0.130,-0.035,50.000,44.444,138.889,308.333,844.444,!
299,-0.065,-0.355,0.160,197.222,100.000,341.667,361.111,52.778,!
300,-0.145,0.140,-0.140,52.778,111.111,111.111,291.667,69.444,!
301,-0.220,-0.085,-0.080,58.333,105.556,397.222,416.667,125.000,!
302,-0.180,0.005,0.055,58.333,116.667,377.778,386.111,30.556,!
303,-0.200,-0.090,-0.080,58.333,111.111,383.333,344.444,41.667,!
304,-0.295,-0.125,-0.180,166.667,113.889,222.222,311.111,33.333,!
305,-0.180,-0.230,-0.225,191.667,100.000,177.778,358.333,47.222,!
306,-0.225,-0.670,-0.175,169.444,2.778,130.556,294.444,63.889,!
307,-0.195,-0.715,-0.125,197.222,16.667,186.111,341.667,47.222,!
308,-0.125,-0.740,0.115,125.000,19.444,272.222,294.444,47.222,!
309,0.115,-0.010,0.035,75.000,63.889,344.444,355.556,61.111,!
310,-0.075,-0.005,0.095,58.333,116.667,366.667,361.111,5.556,!
311,0.095,-0.005,0.170,50.000,58.333,300.000,358.333,2.778,!
312,0.055,0.145,0.320,58.333,116.667,361.111,313.889,44.444,!
313,0.140,0.320,0.440,58.333,113.889,372.222,308.333,5.556,!
314,0.180,0.400,0.545,58.333,113.889,386.111,300.000,8.333,!
315,0.545,0.450,0.645,33.333,58.333,286.111,361.111,61.111,!
316,0.645,0.505,0.670,19.444,58.333,297.222,305.556,55.556,!
317,0.550,0.620,0.625,58.333,116.667,375.000,313.889,8.333,!
318,0.625,0.425,0.610,41.667,58.333,261.111,358.333,44.444,!
319,0.610,0.330,0.705,30.556,58.333,272.222,302.778,55.556,!
320,0.420,0.620,0.630,58.333,116.667,361.111,286.111,16.667,!
321,0.420,0.485,0.680,58.333,116.667,336.111,322.222,36.111,!
322,0.360,0.670,0.610,58.333,116.667,355.556,294.444,27.778,!
323,0.270,0.580,0.550,58.333,116.667,352.778,302.778,8.333,!
324,0.255,0.470,0.440,55.556,113.889,327.778,308.333,5.556,!
325,0.130,0.310,0.295,58.333,116.667,311.111,286.111,22.222,!
326,0.085,0.240,0.285,58.333,111.111,333.333,277.778,8.333,!
327,0.010,0.260,0.240,58.333,116.667,358.333,288.889,11.111,!
328,-0.060,0.230,0.325,58.333,116.667,355.556,302.778,13.889,!
329,-0.070,0.290,0.325,58.333,116.667,375.000,280.556,22.222,!
330,0.020,0.320,0.360,58.333,116.667,358.333,319.444,38.889,!
331,-0.160,0.180,0.360,58.333,58.333,91.667,266.667,52.778,!
332,0.005,0.220,0.230,58.333,116.667,400.000,341.667,75.000,!
333,0.155,0.215,0.515,58.333,111.111,388.889,347.222,5.556,!
334,0.515,0.115,-0.205,30.556,58.333,205.556,369.444,22.222,!
335,-0.205,-0.480,0.085,97.222,2.778,241.667,302.778,66.667,!
336,0.085,-0.915,0.390,119.444,25.000,213.889,358.333,55.556,!
337,0.390,-1.270,0.490,158.333,2.778,197.222,372.222,13.889,!
338,0.490,-1.430,0.505,177.778,16.667,208.333,386.111,13.889,!
339,0.265,-0.150,-0.150,197.222,47.222,58.333,502.778,116.667,]
340,-0.170,-1.370,0.170,180.556,0.000,347.222,875.000,372.222,L
341,0.650,-0.015,-0.245,183.333,97.222,97.222,675.000,200.000,V
342,-0.335,-1.455,0.385,69.444,2.778,341.667,1461.111,786.111,L
343,-0.255,-1.545,0.225,61.111,2.778,294.444,1000.000,461.111,L
344,-0.155,-1.370,0.490,61.111,2.778,294.444,983.333,16.667,L
345,0.480,1.210,0.550,66.667,113.889,405.556,675.000,308.333,V
346,0.065,1.105,-0.420,58.333,116.667,405.556,380.556,294.444,V
347,0.095,-1.000,0.535,66.667,2.778,338.889,1680.556,1300.000,L
348,0.400,0.505,0.860,63.889,66.667,275.000,286.111,1394.444,!
349,0.860,-1.385,0.305,122.222,8.333,244.444,338.889,52.778,!
350,0.305,-0.965,0.635,141.667,11.111,152.778,416.667,77.778,!
351,0.635,-0.655,0.850,147.222,5.556,191.667,288.889,127.778,!
352,0.850,-0.875,0.995,122.222,22.222,200.000,308.333,19.444,!
353,0.995,-0.780,0.870,113.889,33.333,238.889,313.889,5.556,!
354,0.870,-0.620,0.600,105.556,38.889,213.889,336.111,22.222,!
355,0.600,-0.360,0.315,69.444,19.444,208.333,266.667,69.444,!
356,0.315,-0.565,0.395,108.333,19.444,227.778,316.667,50.000,!
357,0.395,-0.730,0.360,91.667,2.778,225.000,319.444,2.778,!
358,0.360,-0.630,0.310,91.667,0.000,216.667,316.667,2.778,!
359,0.310,-0.465,0.260,86.111,0.000,191.667,302.778,13.889,!
360,0.260,-0.360,0.215,83.333,19.444,208.333,275.000,27.778,!
361,0.215,-0.500,0.185,102.778,5.556,180.556,300.000,25.000,!
362,-0.310,0.110,0.230,138.889,113.889,305.556,186.111,113.889,!
363,-0.155,0.135,0.300,58.333,116.667,341.667,277.778,91.667,!
364,-0.030,0.270,0.400,58.333,116.667,352.778,275.000,2.778,!
365,0.000,0.400,0.215,61.111,108.333,266.667,294.444,19.444,!
366,-0.005,0.120,0.070,58.333,116.667,369.444,250.000,44.444,!
367,-0.120,0.065,0.065,72.222,111.111,344.444,305.556,55.556,!
368,-0.045,0.060,0.085,86.111,83.333,372.222,294.444,11.111,!
369,-0.150,0.020,-0.010,58.333,116.667,236.111,319.444,25.000,!
370,-0.010,-0.060,0.120,91.667,111.111,375.000,269.444,50.000,!
371,0.000,0.095,0.205,50.000,100.000,336.111,325.000,55.556,!
372,0.145,0.205,0.890,97.222,113.889,338.889,294.444,30.556,!
373,0.285,0.805,0.590,58.333,116.667,380.556,261.111,33.333,!
374,0.240,0.580,0.390,58.333,116.667,341.667,327.778,66.667,!
375,-0.050,0.350,0.415,58.333,116.667,336.111,277.778,50.000,!
376,-0.375,0.295,0.535,58.333,116.667,358.333,255.556,22.222,!
377,-0.055,0.470,0.595,58.333,116.667,355.556,294.444,38.889,!
378,0.025,0.595,0.745,58.333,116.667,363.889,297.222,2.778,!
379,-0.260,0.545,0.820,61.111,113.889,375.000,272.222,25.000,!
380,-0.340,0.765,0.805,58.333,116.667,400.000,311.111,38.889,!
381,0.045,0.700,-0.120,80.556,116.667,347.222,336.111,25.000,!
382,-0.120,-0.935,0.585,61.111,30.556,219.444,350.000,13.889,!
383,0.585,-0.700,0.035,150.000,13.889,186.111,369.444,19.444,!
384,-0.015,0.155,0.950,191.667,83.333,375.000,422.222,52.778,!
385,-0.215,1.855,2.150,280905.556,0.000,280997.222,472.222,50.000,]
386,1.105,0.140,1.130,102.778,8.333,202.778,825.000,352.778,L
387,0.655,0.580,0.430,197.222,77.778,100.000,811.111,13.889,V
388,-0.600,-3.955,-0.215,191.667,0.000,-283741.667,1200.000,388.889,L
389,-0.215,-1.125,-0.215,284394.444,102.778,-284344.444,652.778,547.222,V
390,-0.215,-1.990,-0.235,285505.556,0.000,325.000,1111.111,458.333,L
391,-0.475,-1.565,0.040,63.889,2.778,266.667,850.000,261.111,L
392,-0.150,-1.125,0.380,63.889,2.778,308.333,827.778,22.222,L
393,0.290,-0.710,1.280,86.111,5.556,347.222,861.111,33.333,L
394,0.220,-0.575,0.880,44.444,5.556,308.333,861.111,0.000,L
395,0.185,-1.275,1.060,194.444,0.000,269.444,833.333,27.778,L
396,0.920,-0.255,0.685,88.889,5.556,63.889,811.111,22.222,L
397,-0.100,-1.290,0.175,194.444,2.778,222.222,800.000,11.111,L
398,-0.660,-1.740,0.005,61.111,0.000,252.778,802.778,2.778,L
399,-0.515,-1.575,0.130,86.111,2.778,280.556,755.556,47.222,L
400,-0.185,-1.160,0.985,69.444,2.778,302.778,797.222,41.667,L
401,0.550,-0.875,0.140,180.556,0.000,69.444,852.778,55.556,L
402,-0.500,-1.540,0.195,111.111,2.778,272.222,827.778,25.000,L
403,-0.215,-1.545,-0.035,66.667,2.778,269.444,802.778,25.000,L
404,0.130,-0.645,1.435,197.222,2.778,272.222,808.333,5.556,L
405,-0.040,-1.435,0.080,197.222,5.556,236.111,775.000,33.333,L
406,-0.400,-1.445,-0.025,72.222,5.556,216.667,755.556,19.444,L
407,-0.600,-1.775,-0.435,41.667,2.778,261.111,769.444,13.889,L
408,-0.965,-1.805,-0.285,133.333,5.556,275.000,794.444,25.000,L
409,-0.985,-1.680,-0.500,197.222,8.333,302.778,780.556,13.889,L
410,-0.665,-1.270,0.125,172.222,0.000,252.778,741.667,38.889,L
411,-0.095,-1.010,0.440,75.000,0.000,225.000,763.889,22.222,L
412,0.065,-0.830,0.665,55.556,5.556,275.000,727.778,36.111,L
413,0.140,-0.895,0.490,197.222,2.778,236.111,747.222,19.444,L
414,0.075,-0.940,0.675,58.333,2.778,263.889,741.667,5.556,L
415,0.285,-0.840,0.690,69.444,2.778,308.333,722.222,19.444,L
416,0.300,-0.880,0.810,155.556,2.778,280.556,758.333,36.111,L
417,0.225,-0.990,0.965,127.778,2.778,275.000,786.111,27.778,L
418,0.310,-1.015,0.630,180.556,0.000,238.889,769.444,16.667,L
419,-0.060,-1.215,0.400,63.889,5.556,272.222,750.000,19.444,L
420,-0.125,-1.405,0.410,72.222,2.778,261.111,741.667,8.333,L
421,0.030,-1.190,0.560,61.111,5.556,236.111,713.889,27.778,L
422,-0.215,-1.585,0.070,172.222,2.778,216.667,733.333,19.444,L
423,-0.540,-1.775,0.075,72.222,5.556,280.556,716.667,16.667,L
424,-0.340,-1.615,0.160,97.222,2.778,288.889,783.333,66.667,L
425,-0.270,-1.455,0.430,66.667,5.556,244.444,775.000,8.333,L
426,0.205,-1.050,1.010,52.778,2.778,216.667,755.556,19.444,L
427,0.610,-0.705,1.135,83.333,0.000,252.778,730.556,25.000,L
428,0.600,-0.745,0.910,144.444,2.778,258.333,744.444,13.889,L
429,0.250,-1.080,0.985,72.222,2.778,266.667,744.444,0.000,L
430,0.290,-1.180,0.675,116.667,2.778,219.444,738.889,5.556,L
431,-0.025,-1.460,0.290,58.333,2.778,266.667,708.333,30.556,L
432,-0.350,-1.680,0.110,69.444,5.556,266.667,769.444,61.111,L
433,-0.415,-1.725,0.175,66.667,2.778,272.222,775.000,5.556,L
434,-0.405,-1.810,0.010,161.111,2.778,258.333,780.556,5.556,L
435,-0.400,-1.640,0.195,55.556,2.778,227.778,755.556,25.000,L
436,0.230,-1.840,0.675,194.444,2.778,308.333,744.444,11.111,L
437,-0.090,-1.745,0.130,183.333,5.556,266.667,719.444,25.000,L
438,-0.270,-2.010,0.205,113.889,2.778,286.111,711.111,8.333,L
439,0.345,-1.935,0.960,125.000,0.000,130.556,733.333,22.222,L
440,0.030,-1.315,0.480,175.000,5.556,127.778,763.889,30.556,L
441,-0.160,-1.670,0.455,138.889,2.778,263.889,766.667,2.778,L
442,0.270,-1.125,0.775,133.333,5.556,219.444,763.889,2.778,L
443,0.240,-1.275,0.655,105.556,0.000,233.333,733.333,30.556,L
444,-0.015,-1.420,0.615,177.778,13.889,247.222,705.556,27.778,L
445,-0.005,-1.620,0.330,61.111,2.778,280.556,711.111,5.556,L
446,0.115,-1.665,0.420,138.889,2.778,183.333,661.111,50.000,L
447,0.090,-1.470,0.540,75.000,0.000,230.556,655.556,5.556,L
448,0.095,-1.500,0.500,94.444,2.778,191.667,688.889,33.333,L
449,0.165,-1.455,0.585,163.889,2.778,261.111,677.778,11.111,L
450,0.405,-1.250,0.405,69.444,16.667,213.889,738.889,61.111,L
451,-0.135,-1.595,0.405,113.889,2.778,266.667,686.111,52.778,L
452,-0.165,-1.495,0.580,136.111,2.778,211.111,686.111,0.000,L
453,0.045,-1.520,0.385,161.111,5.556,177.778,688.889,2.778,L
454,0.020,-1.535,0.245,77.778,2.778,266.667,641.667,47.222,L
455,-0.160,-1.610,0.220,50.000,5.556,125.000,688.889,47.222,L
456,-0.200,-1.710,-0.140,163.889,5.556,238.889,694.444,5.556,L
457,-0.715,-1.940,-0.290,186.111,2.778,266.667,697.222,2.778,L
458,-0.775,-1.895,-0.320,69.444,5.556,263.889,766.667,69.444,L
459,-0.710,-1.890,-0.150,58.333,2.778,263.889,722.222,44.444,L
460,-0.355,-1.465,0.235,72.222,5.556,252.778,694.444,27.778,L
461,-0.265,-1.370,0.165,69.444,5.556,219.444,733.333,38.889,L
462,-0.350,-1.410,0.460,63.889,5.556,255.556,683.333,50.000,L
463,-0.210,-1.450,0.250,55.556,2.778,269.444,744.444,61.111,L
464,0.095,-1.010,0.495,58.333,5.556,330.556,713.889,30.556,L
465,-0.350,-1.590,0.260,180.556,2.778,283.333,772.222,58.333,L
466,-0.410,-1.535,0.090,61.111,2.778,272.222,808.333,36.111,L
467,-0.205,-1.295,-0.075,61.111,2.778,311.111,797.222,11.111,L
468,-0.100,-1.140,0.505,72.222,11.111,247.222,783.333,13.889,L
469,-0.300,-1.620,-0.130,172.222,5.556,236.111,763.889,19.444,L
470,-0.380,-1.465,0.145,61.111,2.778,258.333,755.556,8.333,L
471,-0.180,-1.230,0.205,63.889,5.556,238.889,755.556,0.000,L
472,-0.230,-1.350,0.215,63.889,2.778,272.222,761.111,5.556,L
473,-0.080,-1.115,0.270,66.667,5.556,255.556,788.889,27.778,L
474,-0.210,-1.290,0.780,61.111,2.778,322.222,780.556,8.333,L
475,0.860,-0.420,0.870,186.111,5.556,225.000,788.889,8.333,L
476,-0.075,-1.500,-0.075,197.222,2.778,238.889,761.111,27.778,L
477,-0.590,-1.675,-0.090,191.667,2.778,280.556,758.333,2.778,L
478,-0.370,-1.425,0.235,69.444,5.556,269.444,763.889,5.556,L
479,0.255,-0.905,0.190,55.556,2.778,66.667,736.111,27.778,L
480,-0.260,-1.395,0.220,77.778,2.778,258.333,738.889,2.778,L
481,-0.270,-1.490,0.050,197.222,2.778,263.889,780.556,41.667,L
482,-0.320,-1.410,0.230,66.667,5.556,255.556,808.333,27.778,L
483,0.015,-1.025,0.400,66.667,5.556,236.111,783.333,25.000,L
484,-0.300,-1.370,0.105,197.222,5.556,236.111,769.444,13.889,L
485,-0.315,-1.400,-0.050,63.889,5.556,225.000,744.444,25.000,L
486,-0.550,-1.645,-0.075,61.111,5.556,250.000,738.889,5.556,L
487,-0.390,-1.405,0.060,52.778,5.556,250.000,730.556,8.333,L
488,-0.220,-1.310,0.425,63.889,2.778,266.667,761.111,30.556,L
489,0.125,-0.995,0.405,80.556,2.778,250.000,802.778,41.667,L
490,-0.060,-1.180,0.280,61.111,5.556,244.444,794.444,8.333,L
491,-0.220,-1.375,0.070,86.111,2.778,233.333,758.333,36.111,L
492,-0.280,-1.700,-0.065,186.111,5.556,250.000,761.111,2.778,L
493,-0.460,-1.595,-0.100,72.222,2.778,236.111,777.778,16.667,L
494,-0.470,-1.515,0.065,63.889,5.556,255.556,755.556,22.222,L
495,-0.225,-1.250,0.245,69.444,5.556,255.556,713.889,41.667,L
496,-0.175,-1.270,0.365,69.444,5.556,269.444,772.222,58.333,L
497,0.260,-0.860,0.765,58.333,5.556,255.556,797.222,25.000,L
498,0.080,-1.265,0.285,194.444,5.556,244.444,797.222,0.000,L
499,-0.250,-1.405,0.420,63.889,5.556,272.222,786.111,11.111,L
500,-0.070,-1.350,0.255,69.444,5.556,236.111,769.444,16.667,L
501,-0.295,-1.585,0.195,61.111,2.778,225.000,741.667,27.778,L
502,-0.120,-1.315,0.510,58.333,2.778,230.556,747.222,5.556,L
503,-0.260,-1.550,0.290,61.111,2.778,255.556,755.556,8.333,L
504,-0.180,-1.445,0.340,75.000,2.778,277.778,777.778,22.222,L
505,-0.120,-1.390,0.385,61.111,2.778,258.333,802.778,25.000,L
506,-0.100,-1.375,0.380,63.889,5.556,236.111,788.889,13.889,L
507,-0.090,-1.275,0.555,61.111,5.556,263.889,772.222,16.667,L
508,-0.070,-1.365,0.380,166.667,5.556,238.889,775.000,2.778,L
509,-0.240,-1.550,0.270,197.222,2.778,238.889,766.667,8.333,L
510,-0.205,-1.495,0.235,58.333,2.778,230.556,758.333,8.333,L
511,-0.290,-1.580,0.205,61.111,2.778,255.556,755.556,2.778,L
512,-0.340,-1.600,0.155,69.444,5.556,252.778,788.889,33.333,L
513,-0.430,-1.700,0.005,72.222,5.556,250.000,819.444,30.556,L
514,-0.505,-1.790,0.105,66.667,2.778,250.000,813.889,5.556,L
515,-0.230,-1.480,0.390,58.333,2.778,230.556,788.889,25.000,L
516,-0.185,-1.520,0.295,194.444,2.778,261.111,755.556,33.333,L
517,-0.185,-1.515,0.315,61.111,2.778,261.111,763.889,8.333,L
518,-0.170,-1.460,0.350,61.111,2.778,222.222,750.000,13.889,L
519,-0.115,-1.360,0.425,66.667,5.556,269.444,775.000,25.000,L
520,0.215,-1.115,0.625,58.333,2.778,263.889,825.000,50.000,L
521,-0.200,-1.735,-0.380,122.222,5.556,219.444,822.222,2.778,L
522,-0.215,-2.265,-0.470,385813.889,8.333,213.889,788.889,33.333,L
523,-0.675,-1.820,-0.160,61.111,5.556,277.778,802.778,13.889,L
524,-0.300,-1.430,0.335,61.111,5.556,258.333,802.778,0.000,L
525,0.010,-1.275,0.535,58.333,5.556,233.333,775.000,27.778,L
526,-0.100,-1.405,0.260,191.667,2.778,261.111,755.556,19.444,L
527,-0.150,-1.395,0.420,66.667,5.556,300.000,805.556,50.000,L
528,0.110,-1.145,0.700,63.889,2.778,286.111,816.667,11.111,L
529,0.190,-1.185,0.630,75.000,5.556,266.667,841.667,25.000,L
530,0.035,-1.200,0.545,61.111,5.556,266.667,816.667,25.000,L
531,0.175,-1.105,0.675,63.889,5.556,261.111,788.889,27.778,L
532,0.060,-1.265,0.505,69.444,2.778,236.111,772.222,16.667,L
533,-0.030,-1.360,0.460,72.222,5.556,250.000,783.333,11.111,L
534,-0.095,-1.405,0.265,197.222,8.333,263.889,797.222,13.889,L
535,-0.295,-1.605,0.195,66.667,5.556,261.111,838.889,41.667,L
536,-0.205,-1.430,0.330,61.111,5.556,277.778,819.444,19.444,L
537,-0.165,-1.435,0.200,169.444,8.333,269.444,811.111,8.333,L
538,-0.335,-1.550,0.135,66.667,5.556,252.778,813.889,2.778,L
539,-0.250,-1.470,0.205,66.667,2.778,250.000,802.778,11.111,L
540,-0.275,-1.515,0.130,66.667,2.778,233.333,794.444,8.333,L
541,-0.285,-1.440,0.195,66.667,5.556,252.778,786.111,8.333,L
542,-0.230,-1.395,0.190,66.667,8.333,266.667,777.778,8.333,L
543,-0.285,-1.415,0.160,63.889,5.556,297.222,852.778,75.000,L
544,-0.220,-1.435,0.020,55.556,2.778,250.000,855.556,2.778,L
545,-0.490,-1.700,-0.115,169.444,5.556,252.778,813.889,41.667,L
546,-0.505,-1.610,0.035,72.222,5.556,247.222,805.556,8.333,L
547,-0.345,-1.520,0.155,72.222,2.778,247.222,797.222,8.333,L
548,-0.230,-1.410,0.235,61.111,2.778,266.667,761.111,36.111,L
549,-0.230,-1.405,0.240,75.000,5.556,250.000,822.222,61.111,L
550,-0.050,-1.250,0.440,58.333,2.778,261.111,855.556,33.333,L
551,-0.005,-1.195,0.335,66.667,8.333,255.556,838.889,16.667,L
552,-0.155,-1.410,0.245,69.444,5.556,261.111,816.667,22.222,L
553,-0.175,-1.440,0.280,61.111,5.556,258.333,827.778,11.111,L
554,-0.145,-1.390,0.245,55.556,2.778,238.889,794.444,33.333,L
555,-0.245,-1.450,0.215,133.333,5.556,222.222,794.444,0.000,L
556,-0.230,-1.420,0.250,58.333,5.556,247.222,772.222,22.222,L
557,-0.270,-1.530,0.080,147.222,2.778,275.000,825.000,52.778,L
558,-0.080,-1.205,0.495,108.333,5.556,272.222,825.000,0.000,L
559,0.585,-0.870,0.655,133.333,5.556,261.111,825.000,0.000,L
560,0.040,-1.225,0.245,183.333,5.556,252.778,802.778,22.222,L
561,-0.265,-1.430,0.090,186.111,5.556,236.111,786.111,16.667,L
562,-0.075,-1.245,0.330,66.667,5.556,252.778,763.889,22.222,L
563,-0.270,-1.410,2.130,191.667,5.556,288.889,772.222,8.333,L
564,-0.485,-1.875,0.775,186.111,5.556,352.778,811.111,38.889,L
565,0.830,-0.545,0.455,194.444,5.556,75.000,827.778,16.667,L
566,-0.215,-2.440,-0.755,421258.333,2.778,244.444,794.444,33.333,L
567,-0.830,-1.965,-0.255,72.222,5.556,263.889,800.000,5.556,L
568,-0.580,-1.730,-0.070,69.444,5.556,269.444,777.778,22.222,L
569,-0.330,-1.525,0.180,61.111,5.556,261.111,777.778,0.000,L
570,-0.300,-1.485,0.215,52.778,2.778,236.111,769.444,8.333,L
571,-0.210,-1.390,0.280,55.556,5.556,252.778,752.778,16.667,L
572,-0.130,-1.360,0.320,72.222,2.778,263.889,786.111,33.333,L
573,-0.100,-1.350,0.370,58.333,2.778,272.222,836.111,50.000,L
574,-0.075,-1.240,0.390,55.556,5.556,247.222,813.889,22.222,L
575,-0.140,-1.390,0.330,66.667,2.778,236.111,777.778,36.111,L
576,-0.070,-1.290,0.450,63.889,5.556,241.667,761.111,16.667,L
577,-0.065,-1.295,0.395,63.889,5.556,241.667,766.667,5.556,L
578,-0.035,-1.260,0.350,47.222,2.778,241.667,733.333,33.333,L
579,-0.160,-1.350,0.300,66.667,5.556,255.556,788.889,55.556,L
580,-0.110,-1.310,0.355,69.444,2.778,266.667,819.444,30.556,L
581,-0.080,-1.250,0.375,61.111,5.556,250.000,802.778,16.667,L
582,-0.110,-1.350,0.325,58.333,2.778,244.444,783.333,19.444,L
583,-0.075,-1.235,0.355,69.444,5.556,269.444,794.444,11.111,L
584,-0.100,-1.285,0.360,61.111,2.778,255.556,775.000,19.444,L
585,-0.055,-1.195,0.360,58.333,5.556,230.556,763.889,11.111,L
586,-0.150,-1.335,0.290,63.889,5.556,261.111,736.111,27.778,L
587,-0.170,-1.335,0.300,61.111,2.778,269.444,772.222,36.111,L
588,-0.140,-1.265,0.355,61.111,5.556,280.556,808.333,36.111,L
589,-0.165,-1.335,0.240,63.889,5.556,263.889,811.111,2.778,L
590,-0.240,-1.455,0.220,63.889,2.778,255.556,791.667,19.444,L
591,-0.240,-1.485,0.220,58.333,2.778,261.111,777.778,13.889,L
592,-0.215,-1.445,0.275,61.111,5.556,244.444,755.556,22.222,L
593,-0.125,-1.315,0.325,58.333,2.778,244.444,761.111,5.556,L
594,-0.205,-1.430,0.275,63.889,5.556,275.000,772.222,11.111,L
595,0.085,-1.030,2.285,63.889,5.556,269.444,802.778,30.556,L
596,-0.550,-2.115,-0.545,172.222,2.778,266.667,788.889,13.889,L
597,-0.915,-2.185,-0.515,80.556,2.778,288.889,788.889,0.000,L
598,-0.475,-1.595,-0.025,130.556,13.889,261.111,772.222,16.667,L
599,-0.190,-1.475,0.335,63.889,2.778,258.333,761.111,11.111,L
600,-0.065,-1.295,0.265,166.667,2.778,250.000,772.222,11.111,L
601,0.005,-1.205,0.400,113.889,5.556,225.000,750.000,22.222,L
602,0.055,-1.140,0.415,150.000,2.778,233.333,730.556,19.444,L
603,-0.120,-1.280,0.400,125.000,5.556,275.000,797.222,66.667,L
604,0.125,-1.020,0.570,66.667,2.778,236.111,825.000,27.778,L
605,0.140,-1.035,0.545,186.111,2.778,272.222,777.778,47.222,L
606,0.100,-1.160,0.500,58.333,2.778,241.667,758.333,19.444,L
607,0.025,-1.185,0.365,163.889,5.556,233.333,758.333,0.000,L
608,-0.035,-1.225,0.350,58.333,2.778,247.222,755.556,2.778,L
609,-0.025,-1.275,0.345,63.889,0.000,252.778,741.667,13.889,L
610,-0.070,-1.310,0.320,138.889,2.778,266.667,791.667,50.000,L
611,-0.140,-1.545,0.150,183.333,2.778,258.333,791.667,0.000,L
612,-0.205,-1.305,0.330,88.889,5.556,255.556,791.667,0.000,L
613,-0.095,-1.295,0.340,61.111,8.333,283.333,780.556,11.111,L
614,-0.105,-1.380,0.350,180.556,2.778,241.667,791.667,11.111,L
615,-0.070,-1.265,0.150,86.111,11.111,244.444,755.556,36.111,L
616,-0.430,-1.585,0.060,163.889,5.556,255.556,750.000,5.556,L
617,-0.320,-1.520,0.160,55.556,2.778,291.667,722.222,27.778,L
618,-0.010,-1.360,0.425,55.556,5.556,308.333,775.000,52.778,L
619,0.220,-1.170,0.505,94.444,5.556,211.111,805.556,30.556,L
620,0.090,-1.115,0.555,69.444,5.556,280.556,802.778,2.778,L
621,0.085,-1.220,0.480,127.778,5.556,280.556,775.000,27.778,L
622,-0.015,-1.295,0.540,138.889,2.778,244.444,775.000,0.000,L
623,0.175,-1.210,0.575,38.889,11.111,263.889,744.444,30.556,L
624,-0.040,-1.460,0.380,69.444,2.778,252.778,758.333,13.889,L
625,-0.150,-1.490,0.400,136.111,2.778,255.556,755.556,2.778,L
626,-0.210,-1.600,0.125,86.111,5.556,261.111,780.556,25.000,L
627,-0.475,-1.765,0.140,66.667,5.556,258.333,788.889,8.333,L
628,-0.400,-1.615,0.215,183.333,5.556,272.222,783.333,5.556,L
629,0.240,-1.080,0.895,86.111,5.556,277.778,755.556,27.778,L
630,0.325,-1.135,0.665,150.000,5.556,230.556,763.889,8.333,L
631,0.075,-1.305,0.360,152.778,5.556,222.222,763.889,0.000,L
632,-0.160,-1.625,0.335,58.333,5.556,269.444,736.111,27.778,L
633,-0.120,-1.670,0.025,197.222,5.556,255.556,722.222,13.889,L
634,-0.370,-1.750,0.445,69.444,2.778,283.333,791.667,69.444,L
635,0.100,-1.355,0.225,177.778,8.333,261.111,825.000,33.333,L
636,-0.100,-1.340,0.860,47.222,2.778,269.444,783.333,41.667,L
637,-0.120,-1.635,0.425,186.111,2.778,283.333,755.556,27.778,L
638,0.395,-0.840,0.640,61.111,5.556,150.000,744.444,11.111,L
639,-0.070,-1.690,0.470,94.444,2.778,227.778,744.444,0.000,L
640,-0.250,-1.785,0.370,52.778,2.778,216.667,741.667,2.778,L
641,0.055,-1.645,0.465,91.667,8.333,250.000,755.556,13.889,L
642,-0.135,-1.530,0.240,158.333,16.667,277.778,775.000,19.444,L
643,-0.320,-1.780,0.190,83.333,5.556,269.444,786.111,11.111,L
644,-0.350,-1.735,0.400,63.889,5.556,275.000,775.000,11.111,L
645,-0.115,-1.705,0.330,172.222,2.778,272.222,780.556,5.556,L
646,0.215,-1.740,0.045,188.889,5.556,252.778,761.111,19.444,L
647,-0.600,-2.150,-0.015,58.333,5.556,247.222,755.556,5.556,L
648,-0.560,-2.015,0.095,61.111,5.556,236.111,725.000,30.556,L
649,-0.415,-1.900,0.105,69.444,5.556,283.333,772.222,47.222,L
650,-0.405,-1.880,0.095,69.444,2.778,252.778,797.222,25.000,L
651,-0.530,-1.875,0.280,172.222,5.556,283.333,800.000,2.778,L
652,-0.350,-1.875,0.135,177.778,2.778,277.778,788.889,11.111,L
653,-0.280,-1.560,0.435,69.444,5.556,280.556,777.778,11.111,L
654,0.100,-1.300,0.610,69.444,5.556,241.667,747.222,30.556,L
655,0.135,-1.335,0.720,63.889,2.778,280.556,763.889,16.667,L
656,0.660,-0.710,1.690,152.778,5.556,288.889,752.778,11.111,L
657,0.570,-1.785,-0.415,197.222,0.000,280.556,780.556,27.778,L
658,-0.840,-2.275,-0.270,63.889,2.778,263.889,794.444,13.889,L
659,-0.725,-2.185,-0.175,72.222,5.556,280.556,797.222,2.778,L
660,-0.535,-1.880,1.540,55.556,2.778,341.667,763.889,33.333,L
661,1.065,-1.320,-0.080,194.444,8.333,66.667,780.556,16.667,L
662,-0.215,-2.515,-0.430,495561.111,5.556,272.222,777.778,2.778,L
663,-0.575,-1.955,0.065,69.444,5.556,252.778,752.778,25.000,L
664,-0.430,-1.875,0.130,58.333,5.556,266.667,736.111,16.667,L
665,1.190,-0.075,1.745,63.889,5.556,230.556,805.556,69.444,L
666,0.735,-0.740,0.945,191.667,5.556,238.889,825.000,19.444,L
667,0.490,-1.010,0.625,144.444,2.778,227.778,791.667,33.333,L
668,-0.215,-3.380,-0.215,500236.111,2.778,-500233.333,763.889,27.778,L
669,-0.215,-2.800,-0.215,500997.222,8.333,-500991.667,761.111,2.778,L
670,-0.930,-2.190,-0.215,61.111,5.556,244.444,755.556,5.556,L
671,-0.490,-1.800,0.150,58.333,2.778,247.222,763.889,8.333,L
672,-0.205,-1.490,0.405,75.000,5.556,277.778,766.667,2.778,L
673,-0.020,-1.330,0.570,69.444,2.778,233.333,794.444,27.778,L
674,-0.375,-1.825,0.045,197.222,5.556,255.556,811.111,16.667,L
675,-0.475,-1.790,0.065,63.889,2.778,252.778,783.333,27.778,L
676,-0.285,-1.510,0.275,63.889,5.556,255.556,797.222,13.889,L
677,-0.190,-1.520,0.255,63.889,5.556,261.111,766.667,30.556,L
678,-0.215,-1.485,0.270,52.778,5.556,255.556,755.556,11.111,L
679,-0.150,-1.375,0.310,61.111,5.556,241.667,727.778,27.778,L
680,-0.125,-1.415,0.340,63.889,5.556,255.556,800.000,72.222,L
681,-0.100,-1.390,0.365,69.444,5.556,266.667,805.556,5.556,L
682,-0.230,-1.550,0.265,69.444,2.778,277.778,802.778,2.778,L
683,-0.040,-1.310,0.305,61.111,2.778,241.667,788.889,13.889,L
684,-0.300,-1.565,0.160,55.556,2.778,250.000,775.000,13.889,L
685,-0.145,-1.385,0.445,61.111,5.556,244.444,755.556,19.444,L
686,-0.050,-1.305,0.320,69.444,5.556,250.000,777.778,22.222,L
687,-0.430,-1.640,0.075,55.556,5.556,266.667,750.000,27.778,L
688,-0.180,-1.360,0.420,61.111,5.556,247.222,786.111,36.111,L
689,-0.015,-1.250,0.415,63.889,5.556,277.778,805.556,19.444,L
690,-0.040,-1.325,1.830,69.444,2.778,327.778,808.333,2.778,L
691,1.795,0.295,1.855,194.444,8.333,188.889,775.000,33.333,L
692,-0.215,-2.360,-0.675,518941.667,5.556,261.111,791.667,16.667,L
693,-0.905,-2.030,-0.265,55.556,5.556,272.222,775.000,16.667,L
694,-0.470,-1.690,-0.080,61.111,5.556,230.556,761.111,13.889,L
695,-0.380,-1.535,0.365,58.333,2.778,280.556,750.000,11.111,L
696,0.135,-1.080,0.600,63.889,5.556,275.000,819.444,69.444,L
697,-0.040,-1.290,0.335,197.222,5.556,255.556,816.667,2.778,L
698,-0.030,-1.295,0.415,63.889,2.778,255.556,800.000,16.667,L
699,-0.025,-1.200,0.670,66.667,5.556,272.222,769.444,30.556,L
700,0.420,-0.850,0.750,72.222,5.556,266.667,769.444,0.000,L
701,-0.020,-1.350,0.390,55.556,5.556,263.889,769.444,0.000,L
702,-0.145,-1.505,0.240,197.222,5.556,255.556,758.333,11.111,L
703,-0.180,-1.460,0.230,55.556,5.556,252.778,788.889,30.556,L
704,-0.390,-1.745,-0.055,69.444,5.556,266.667,816.667,27.778,L
705,-0.530,-1.790,0.040,61.111,5.556,266.667,802.778,13.889,L
706,-0.140,-1.395,0.505,58.333,2.778,277.778,797.222,5.556,L
707,0.165,-1.105,0.655,63.889,2.778,250.000,811.111,13.889,L
708,0.160,-1.125,0.550,61.111,2.778,236.111,780.556,30.556,L
709,0.055,-1.155,0.520,69.444,5.556,247.222,755.556,25.000,L
710,0.115,-1.105,0.495,63.889,5.556,275.000,758.333,2.778,L
711,-0.105,-1.425,0.165,166.667,5.556,255.556,802.778,44.444,L
712,-0.300,-1.560,0.215,66.667,5.556,269.444,836.111,33.333,L
713,-0.200,-1.465,0.355,58.333,2.778,275.000,825.000,11.111,L
714,0.015,-1.220,0.415,66.667,8.333,258.333,788.889,36.111,L
715,-0.195,-1.500,0.175,197.222,5.556,258.333,763.889,25.000,L
716,-0.265,-1.510,0.195,58.333,5.556,263.889,791.667,27.778,L
717,-0.190,-1.395,0.335,50.000,5.556,261.111,772.222,19.444,L
718,-0.085,-1.345,0.225,66.667,5.556,236.111,788.889,16.667,L
719,-0.320,-1.610,0.130,69.444,5.556,266.667,819.444,30.556,L
720,-0.310,-1.540,0.120,75.000,5.556,261.111,822.222,2.778,L
721,-0.315,-1.545,0.125,63.889,5.556,261.111,800.000,22.222,L
722,-0.290,-1.500,0.170,55.556,2.778,261.111,811.111,11.111,L
723,-0.265,-1.500,0.170,63.889,2.778,236.111,791.667,19.444,L
724,-0.195,-1.430,0.235,58.333,2.778,250.000,772.222,19.444,L
725,-0.150,-1.365,0.325,63.889,5.556,272.222,761.111,11.111,L
726,-0.165,-1.370,0.225,63.889,5.556,275.000,827.778,66.667,L
727,-0.215,-1.400,0.220,66.667,5.556,272.222,838.889,11.111,L
728,-0.305,-1.570,0.005,188.889,2.778,233.333,825.000,13.889,L
729,-0.295,-1.480,0.305,61.111,2.778,258.333,786.111,38.889,L
730,0.030,-1.150,0.455,63.889,2.778,255.556,786.111,0.000,L
731,0.010,-1.155,0.405,66.667,2.778,255.556,783.333,2.778,L
732,-0.025,-1.170,0.310,55.556,5.556,247.222,775.000,8.333,L
733,-0.105,-1.255,0.285,108.333,5.556,261.111,816.667,41.667,L
734,-0.160,-1.380,0.190,61.111,2.778,255.556,838.889,22.222,L
735,-0.235,-1.425,0.140,58.333,2.778,261.111,827.778,11.111,L
736,-0.260,-1.405,0.065,61.111,5.556,277.778,833.333,5.556,L
737,-0.410,-1.575,-0.085,61.111,5.556,244.444,816.667,16.667,L
738,-0.430,-1.570,-0.015,61.111,5.556,244.444,786.111,30.556,L
739,-0.215,-1.260,0.380,58.333,5.556,250.000,777.778,8.333,L
740,-0.210,-1.320,0.165,58.333,5.556,263.889,783.333,5.556,L
741,-0.315,-1.460,0.070,61.111,2.778,272.222,822.222,38.889,L
742,-0.275,-1.380,0.180,66.667,5.556,286.111,855.556,33.333,L
743,-0.190,-1.305,0.190,58.333,2.778,244.444,822.222,33.333,L
744,-0.200,-1.355,0.195,61.111,2.778,272.222,805.556,16.667,L
745,-0.165,-1.295,0.230,91.667,2.778,238.889,800.000,5.556,L
746,-0.170,-1.340,0.195,150.000,2.778,247.222,811.111,11.111,L
747,-0.210,-1.430,0.125,108.333,2.778,258.333,769.444,41.667,L
748,-0.275,-1.365,0.130,50.000,5.556,275.000,816.667,47.222,L
749,-0.200,-1.270,0.170,63.889,2.778,272.222,833.333,16.667,L
750,-0.150,-1.250,0.240,58.333,2.778,261.111,827.778,5.556,L
751,0.060,-1.150,0.290,63.889,5.556,263.889,825.000,2.778,L
752,-0.050,-1.280,0.270,50.000,2.778,258.333,811.111,13.889,L
753,-0.090,-1.115,0.235,66.667,5.556,263.889,780.556,30.556,L
754,-0.095,-1.160,0.245,58.333,8.333,238.889,777.778,2.778,L
755,-0.130,-1.215,0.225,72.222,5.556,252.778,783.333,5.556,L
756,-0.145,-1.250,0.220,69.444,2.778,250.000,847.222,63.889,L
757,-0.115,-1.305,0.135,61.111,2.778,241.667,841.667,5.556,L
758,-0.230,-1.355,0.060,63.889,2.778,266.667,808.333,33.333,L
759,-0.280,-1.355,0.105,75.000,5.556,263.889,805.556,2.778,L
760,-0.260,-1.345,0.120,69.444,5.556,266.667,797.222,8.333,L
761,-0.305,-1.400,0.070,63.889,5.556,272.222,794.444,2.778,L
762,-0.270,-1.370,0.095,63.889,5.556,272.222,780.556,13.889,L
763,0.135,-1.010,0.325,136.111,8.333,272.222,819.444,38.889,L
764,-0.455,-1.630,-0.150,186.111,5.556,269.444,816.667,2.778,L
765,-0.580,-1.740,-0.125,61.111,2.778,288.889,827.778,11.111,L
766,-0.415,-1.495,0.060,66.667,5.556,252.778,825.000,2.778,L
767,-0.480,-1.580,-0.015,52.778,5.556,252.778,797.222,27.778,L
768,-0.440,-1.665,0.040,58.333,2.778,263.889,772.222,25.000,L
769,-0.250,-1.410,0.110,61.111,2.778,233.333,775.000,2.778,L
770,-0.455,-1.595,-0.050,63.889,5.556,272.222,780.556,5.556,L
771,-0.420,-1.570,0.105,61.111,2.778,280.556,841.667,61.111,L
772,-0.195,-1.335,0.190,72.222,5.556,263.889,850.000,8.333,L
773,-0.310,-1.520,0.100,69.444,5.556,266.667,813.889,36.111,L
774,-0.335,-1.575,0.100,66.667,2.778,252.778,794.444,19.444,L
775,-0.200,-1.385,0.275,61.111,5.556,277.778,808.333,13.889,L
776,-0.260,-1.590,0.100,191.667,5.556,263.889,797.222,11.111,L
777,-0.350,-1.650,0.075,61.111,5.556,277.778,786.111,11.111,L
778,-0.285,-1.485,0.310,63.889,5.556,277.778,819.444,33.333,L
779,-0.130,-1.425,0.190,63.889,5.556,258.333,836.111,16.667,L
780,-0.260,-1.585,0.215,58.333,2.778,277.778,825.000,11.111,L
781,-0.315,-1.645,0.195,61.111,2.778,272.222,822.222,2.778,L
782,-0.090,-1.335,0.305,66.667,5.556,250.000,802.778,19.444,L
783,-0.315,-1.660,0.115,197.222,5.556,258.333,794.444,8.333,L
784,-0.260,-1.590,0.245,55.556,2.778,263.889,758.333,36.111,L
785,-0.090,-1.350,0.370,66.667,5.556,288.889,830.556,72.222,L
786,-0.055,-1.380,0.585,66.667,2.778,280.556,852.778,22.222,L
787,0.120,-1.365,0.250,172.222,2.778,258.333,838.889,13.889,L
788,-0.595,-1.955,-0.250,188.889,5.556,247.222,811.111,27.778,L
789,-0.610,-1.860,0.020,58.333,5.556,263.889,819.444,8.333,L
790,-0.160,-1.435,0.300,61.111,5.556,250.000,794.444,25.000,L
791,-0.475,-1.910,-0.050,197.222,2.778,258.333,805.556,11.111,L
792,-0.460,-1.765,0.060,72.222,5.556,277.778,797.222,8.333,L
793,-0.285,-1.580,0.245,61.111,5.556,263.889,836.111,38.889,L
794,-0.190,-1.450,0.255,61.111,5.556,275.000,838.889,2.778,L
795,-0.380,-1.730,0.110,61.111,2.778,261.111,861.111,22.222,L
796,-0.345,-1.645,0.150,61.111,5.556,277.778,816.667,44.444,L
797,-0.335,-1.675,0.175,58.333,2.778,263.889,794.444,22.222,L
798,-0.270,-1.640,0.200,58.333,2.778,261.111,800.000,5.556,L
799,-0.305,-1.680,0.140,61.111,2.778,263.889,786.111,13.889,L
800,-0.245,-1.555,0.250,61.111,2.778,272.222,852.778,66.667,L
801,-0.235,-1.585,0.255,58.333,2.778,275.000,880.556,27.778,L
802,-0.230,-1.535,0.245,63.889,5.556,275.000,838.889,41.667,L
803,-0.225,-1.530,0.280,61.111,5.556,261.111,827.778,11.111,L
804,-0.170,-1.500,0.325,66.667,2.778,263.889,825.000,2.778,L
805,-0.145,-1.475,0.305,58.333,5.556,261.111,825.000,0.000,L
806,-0.180,-1.500,0.320,58.333,5.556,261.111,797.222,27.778,L
807,-0.180,-1.495,0.310,69.444,5.556,269.444,827.778,30.556,L
808,-0.220,-1.555,0.255,61.111,2.778,261.111,855.556,27.778,L
809,-0.215,-1.515,0.245,63.889,5.556,291.667,852.778,2.778,L
810,-0.260,-1.590,0.215,55.556,2.778,266.667,838.889,13.889,L
811,-0.290,-1.590,0.165,63.889,2.778,258.333,827.778,11.111,L
812,-0.300,-1.585,0.180,63.889,5.556,272.222,819.444,8.333,L
813,-0.280,-1.555,0.270,52.778,2.778,258.333,780.556,38.889,L
814,-0.110,-1.360,0.395,69.444,5.556,272.222,852.778,72.222,L
815,-0.105,-1.465,0.235,69.444,5.556,283.333,872.222,19.444,L
816,-0.455,-1.760,0.060,63.889,5.556,255.556,861.111,11.111,L
817,-0.360,-1.655,0.190,66.667,5.556,286.111,833.333,27.778,L
818,-0.220,-1.460,0.300,55.556,5.556,250.000,836.111,2.778,L
819,-0.130,-1.410,0.245,69.444,5.556,266.667,816.667,19.444,L
820,-0.380,-1.725,0.040,197.222,2.778,252.778,827.778,11.111,L
821,-0.410,-1.660,0.065,66.667,5.556,272.222,816.667,11.111,L
822,-0.315,-1.585,0.230,63.889,2.778,277.778,858.333,41.667,L
823,-0.125,-1.315,0.380,66.667,8.333,288.889,875.000,16.667,L
824,-0.140,-1.475,0.170,197.222,2.778,272.222,863.889,11.111,L
825,-0.305,-1.605,0.165,69.444,2.778,266.667,836.111,27.778,L
826,-0.215,-1.440,0.315,66.667,5.556,286.111,816.667,19.444,L
827,-0.100,-1.370,0.295,66.667,5.556,252.778,813.889,2.778,L
828,-0.260,-1.500,0.170,63.889,5.556,288.889,816.667,2.778,L
829,-0.290,-1.585,0.170,66.667,2.778,286.111,886.111,69.444,L
830,-0.240,-1.570,0.210,58.333,2.778,275.000,872.222,13.889,L
831,-0.235,-1.505,0.210,63.889,2.778,272.222,855.556,16.667,L
832,-0.225,-1.525,0.210,61.111,2.778,272.222,830.556,25.000,L
833,-0.270,-1.540,0.130,58.333,2.778,275.000,833.333,2.778,L
834,-0.325,-1.590,0.130,58.333,2.778,263.889,825.000,8.333,L
835,-0.175,-1.380,0.275,58.333,2.778,272.222,805.556,19.444,L
836,0.115,-1.095,0.400,66.667,8.333,180.556,852.778,47.222,L
837,-0.380,-1.635,0.050,58.333,5.556,263.889,877.778,25.000,L
838,-0.235,-1.445,0.240,61.111,5.556,241.667,852.778,25.000,L
839,-0.280,-1.505,0.155,61.111,5.556,263.889,847.222,5.556,L
840,-0.270,-1.540,0.145,158.333,5.556,261.111,830.556,16.667,L
841,-0.210,-1.375,0.275,63.889,5.556,255.556,808.333,22.222,L
842,-0.320,-1.575,0.175,63.889,5.556,277.778,811.111,2.778,L
843,-0.295,-1.570,0.155,66.667,2.778,283.333,888.889,77.778,L
844,-0.265,-1.515,0.200,63.889,5.556,275.000,877.778,11.111,L
845,-0.200,-1.390,0.285,58.333,2.778,283.333,841.667,36.111,L
846,-0.050,-1.220,0.370,63.889,5.556,261.111,841.667,0.000,L
847,-0.025,-1.185,0.410,63.889,5.556,272.222,819.444,22.222,L
848,-0.025,-1.240,0.355,58.333,2.778,255.556,841.667,22.222,L
849,-0.120,-1.315,0.275,72.222,5.556,275.000,822.222,19.444,L
850,-0.200,-1.465,0.050,97.222,5.556,294.444,863.889,41.667,L
851,-0.335,-1.600,0.085,63.889,2.778,275.000,883.333,19.444,L
852,-0.300,-1.510,0.155,69.444,5.556,266.667,894.444,11.111,L
853,-0.240,-1.475,0.205,61.111,2.778,272.222,841.667,52.778,L
854,-0.220,-1.465,0.175,61.111,5.556,277.778,827.778,13.889,L
855,-0.245,-1.500,0.245,61.111,5.556,277.778,816.667,11.111,L
856,-0.170,-1.405,0.180,61.111,5.556,275.000,802.778,13.889,L
857,-0.250,-1.525,0.210,72.222,5.556,280.556,877.778,75.000,L
858,-0.235,-1.525,0.220,58.333,2.778,300.000,880.556,2.778,L
859,-0.250,-1.555,0.195,61.111,5.556,258.333,855.556,25.000,L
860,-0.210,-1.455,0.230,61.111,5.556,275.000,833.333,22.222,L
861,-0.210,-1.470,0.235,66.667,2.778,266.667,838.889,5.556,L
862,-0.255,-1.525,0.190,55.556,2.778,280.556,836.111,2.778,L
863,-0.110,-1.305,0.265,58.333,5.556,252.778,802.778,33.333,L
864,-0.210,-1.425,0.205,66.667,5.556,272.222,841.667,38.889,L
865,-0.185,-1.365,0.310,61.111,5.556,275.000,883.333,41.667,L
866,-0.125,-1.325,0.205,66.667,5.556,272.222,866.667,16.667,L
867,-0.210,-1.380,0.260,63.889,5.556,291.667,861.111,5.556,L
868,-0.125,-1.305,0.300,69.444,5.556,252.778,838.889,22.222,L
869,0.135,-1.040,0.660,61.111,5.556,286.111,816.667,22.222,L
870,0.235,-1.065,0.545,191.667,2.778,261.111,808.333,8.333,L
871,0.260,-0.835,0.700,66.667,11.111,272.222,872.222,63.889,L
872,0.010,-1.280,0.045,197.222,5.556,258.333,877.778,5.556,L
873,-0.535,-1.665,-0.025,61.111,2.778,280.556,861.111,16.667,L
874,-0.385,-1.570,-0.145,191.667,2.778,261.111,850.000,11.111,L
875,-0.440,-1.555,0.005,58.333,2.778,263.889,833.333,16.667,L
876,-0.305,-1.385,0.220,58.333,5.556,277.778,852.778,19.444,L
877,-0.115,-1.210,0.230,58.333,5.556,277.778,816.667,36.111,L
878,-0.305,-1.435,0.675,63.889,2.778,302.778,858.333,41.667,L
879,0.350,-0.860,0.600,63.889,5.556,308.333,891.667,33.333,L
880,-0.145,-1.555,-0.020,197.222,2.778,272.222,900.000,8.333,L
881,-0.640,-1.785,-0.065,63.889,2.778,258.333,863.889,36.111,L
882,-0.320,-1.415,0.070,63.889,5.556,269.444,838.889,25.000,L
883,-0.470,-1.660,-0.040,66.667,5.556,275.000,833.333,5.556,L
884,-0.385,-1.555,0.130,58.333,5.556,283.333,822.222,11.111,L
885,-0.190,-1.340,0.245,75.000,5.556,294.444,869.444,47.222,L
886,0.060,-1.225,0.340,188.889,2.778,277.778,897.222,27.778,L
887,-0.155,-1.385,0.270,61.111,2.778,275.000,886.111,11.111,L
888,-0.235,-1.480,0.195,55.556,2.778,269.444,841.667,44.444,L
889,-0.255,-1.495,0.130,61.111,5.556,305.556,861.111,19.444,L
890,-0.240,-1.475,0.230,63.889,5.556,272.222,850.000,11.111,L
891,-0.160,-1.460,0.290,55.556,2.778,261.111,808.333,41.667,L
892,-0.060,-1.275,0.390,69.444,8.333,291.667,861.111,52.778,L
893,-0.090,-1.420,0.280,61.111,2.778,275.000,894.444,33.333,L
894,-0.175,-1.380,0.300,69.444,5.556,280.556,894.444,0.000,L
895,-0.150,-1.425,0.270,61.111,5.556,261.111,886.111,8.333,L
896,-0.185,-1.430,0.295,58.333,2.778,261.111,844.444,41.667,L
897,-0.115,-1.375,0.300,58.333,2.778,258.333,822.222,22.222,L
898,-0.160,-1.425,0.270,63.889,5.556,272.222,838.889,16.667,L
899,-0.175,-1.430,0.230,63.889,5.556,294.444,880.556,41.667,L
900,-0.085,-1.320,0.425,61.111,5.556,280.556,894.444,13.889,L
901,0.195,-1.230,0.370,188.889,5.556,266.667,880.556,13.889,L
902,-0.170,-1.510,0.210,197.222,5.556,266.667,863.889,16.667,L
903,-0.290,-1.605,0.280,61.111,2.778,286.111,858.333,5.556,L
904,-0.205,-1.565,0.175,63.889,2.778,255.556,863.889,5.556,L
905,-0.355,-1.700,0.140,58.333,5.556,283.333,827.778,36.111,L
906,-0.315,-1.675,0.220,72.222,2.778,297.222,880.556,52.778,L
907,-0.100,-1.430,0.465,58.333,2.778,311.111,919.444,38.889,L
908,0.015,-1.345,0.475,63.889,5.556,277.778,905.556,13.889,L
909,0.000,-1.305,0.490,63.889,5.556,261.111,883.333,22.222,L
910,-0.055,-1.425,0.430,58.333,5.556,250.000,841.667,41.667,L
911,-0.150,-1.555,0.270,61.111,5.556,258.333,852.778,11.111,L
912,-0.225,-1.640,0.245,61.111,2.778,272.222,836.111,16.667,L
913,-0.260,-1.595,0.170,58.333,5.556,275.000,900.000,63.889,L
914,-0.300,-1.655,0.175,61.111,2.778,294.444,911.111,11.111,L
915,-0.215,-1.520,0.305,63.889,2.778,266.667,875.000,36.111,L
916,-0.140,-1.420,0.315,72.222,5.556,280.556,872.222,2.778,L
917,-0.145,-1.490,0.350,55.556,2.778,266.667,897.222,25.000,L
918,-0.110,-1.395,0.285,58.333,2.778,227.778,855.556,41.667,L
919,-0.165,-1.400,0.270,191.667,5.556,313.889,833.333,22.222,L
920,-0.180,-1.500,0.270,69.444,2.778,291.667,913.889,80.556,L
921,-0.155,-1.480,0.335,72.222,2.778,291.667,902.778,11.111,L
922,-0.235,-1.510,0.245,63.889,5.556,313.889,900.000,2.778,L
923,-0.065,-1.355,0.355,61.111,5.556,269.444,875.000,25.000,L
924,-0.145,-1.520,0.320,152.778,2.778,238.889,847.222,27.778,L
925,-0.140,-1.380,0.325,77.778,2.778,294.444,858.333,11.111,L
926,-0.025,-1.315,0.445,61.111,2.778,255.556,872.222,13.889,L
927,0.070,-1.300,0.410,69.444,2.778,283.333,900.000,27.778,L
928,0.090,-1.195,0.330,63.889,5.556,275.000,897.222,2.778,L
929,-0.195,-1.575,0.100,161.111,5.556,291.667,880.556,16.667,L
930,-0.365,-1.565,0.165,69.444,8.333,283.333,875.000,5.556,L
931,-0.305,-1.595,0.085,63.889,5.556,288.889,875.000,0.000,L
932,-0.320,-1.570,0.260,55.556,2.778,258.333,847.222,27.778,L
933,-0.130,-1.365,0.365,66.667,5.556,266.667,875.000,27.778,L
934,-0.025,-1.320,0.315,72.222,2.778,308.333,905.556,30.556,L
935,-0.150,-1.420,0.220,105.556,5.556,286.111,927.778,22.222,L
936,-0.190,-1.495,0.165,72.222,2.778,283.333,883.333,44.444,L
937,-0.240,-1.405,0.160,66.667,5.556,272.222,847.222,36.111,L
938,-0.225,-1.480,0.145,72.222,2.778,294.444,855.556,8.333,L
939,-0.410,-1.610,0.005,166.667,2.778,280.556,827.778,27.778,L
940,-0.210,-1.295,0.295,88.889,5.556,266.667,886.111,58.333,L
941,-0.085,-1.265,0.280,61.111,5.556,275.000,922.222,36.111,L
942,-0.155,-1.310,0.180,169.444,5.556,286.111,902.778,19.444,L
943,-0.200,-1.280,0.265,72.222,5.556,280.556,875.000,27.778,L
944,-0.110,-1.295,0.295,55.556,5.556,283.333,897.222,22.222,L
945,-0.110,-1.240,0.305,66.667,2.778,280.556,861.111,36.111,L
946,-0.145,-1.245,0.300,61.111,5.556,272.222,833.333,27.778,L
947,-0.100,-1.260,0.265,61.111,5.556,294.444,891.667,58.333,L
948,-0.155,-1.235,0.395,61.111,5.556,316.667,911.111,19.444,L
949,-0.035,-1.200,0.320,72.222,5.556,300.000,916.667,5.556,L
950,-0.170,-1.380,0.245,69.444,2.778,266.667,894.444,22.222,L
951,-0.155,-1.335,0.260,197.222,2.778,272.222,861.111,33.333,L
952,-0.130,-1.360,0.190,66.667,5.556,266.667,858.333,2.778,L
953,-0.155,-1.395,0.315,61.111,5.556,300.000,886.111,27.778,L
954,-0.100,-1.325,0.280,63.889,2.778,288.889,905.556,19.444,L
955,-0.120,-1.335,0.295,61.111,5.556,311.111,916.667,11.111,L
956,-0.110,-1.360,0.325,61.111,2.778,283.333,888.889,27.778,L
957,-0.070,-1.270,0.305,63.889,2.778,269.444,880.556,8.333,L
958,-0.155,-1.390,0.280,63.889,5.556,288.889,880.556,0.000,L
959,-0.210,-1.470,0.325,194.444,2.778,291.667,861.111,19.444,L
960,-0.035,-1.290,0.335,186.111,5.556,266.667,861.111,0.000,L
961,-0.160,-1.420,0.165,177.778,5.556,283.333,902.778,41.667,L
962,-0.400,-1.590,0.200,61.111,2.778,297.222,933.333,30.556,L
963,-0.250,-1.460,0.250,63.889,5.556,272.222,891.667,41.667,L
964,-0.015,-1.280,0.320,61.111,5.556,280.556,858.333,33.333,L
965,0.080,-1.110,0.635,75.000,2.778,280.556,863.889,5.556,L
966,0.045,-1.310,0.195,186.111,5.556,266.667,844.444,19.444,L
967,-0.300,-1.600,0.150,77.778,2.778,280.556,894.444,50.000,L
968,-0.260,-1.540,0.285,63.889,5.556,305.556,938.889,44.444,L
969,-0.185,-1.520,0.375,61.111,2.778,294.444,908.333,30.556,L
970,0.225,-1.060,0.680,75.000,8.333,286.111,894.444,13.889,L
971,0.060,-1.390,0.410,161.111,2.778,258.333,902.778,8.333,L
972,-0.195,-1.635,0.320,177.778,5.556,277.778,869.444,33.333,L
973,0.030,-1.245,0.590,58.333,5.556,283.333,841.667,27.778,L
974,-0.045,-1.475,0.230,188.889,2.778,313.889,900.000,58.333,L
975,-0.290,-1.670,0.275,61.111,2.778,305.556,922.222,22.222,L
976,-0.200,-1.595,0.280,61.111,2.778,294.444,930.556,8.333,L
977,-0.020,-1.320,0.530,61.111,2.778,286.111,888.889,41.667,L
978,0.050,-1.230,0.405,58.333,5.556,269.444,883.333,5.556,L
979,-0.350,-1.680,0.100,63.889,5.556,275.000,880.556,2.778,L
980,-0.330,-1.645,0.135,69.444,2.778,288.889,902.778,22.222,L
981,-0.235,-1.505,0.315,61.111,5.556,313.889,941.667,38.889,L
982,-0.180,-1.450,0.250,63.889,5.556,291.667,922.222,19.444,L
983,-0.185,-1.500,0.295,66.667,2.778,286.111,916.667,5.556,L
984,-0.150,-1.435,0.315,58.333,5.556,283.333,908.333,8.333,L
985,-0.145,-1.465,0.315,197.222,2.778,269.444,894.444,13.889,L
986,-0.100,-1.440,0.325,52.778,2.778,280.556,869.444,25.000,L
987,-0.125,-1.450,0.315,63.889,2.778,305.556,891.667,22.222,L
988,-0.160,-1.450,0.270,77.778,2.778,302.778,950.000,58.333,L
989,-0.220,-1.510,0.190,63.889,5.556,277.778,950.000,0.000,L
990,-0.050,-1.200,0.445,55.556,5.556,286.111,902.778,47.222,L
991,-0.185,-1.480,0.200,188.889,5.556,280.556,888.889,13.889,L
992,-0.270,-1.560,0.165,55.556,2.778,280.556,883.333,5.556,L
993,-0.275,-1.500,0.275,58.333,2.778,297.222,880.556,2.778,L
994,-0.040,-1.275,0.280,61.111,2.778,277.778,955.556,75.000,L
995,-0.315,-1.555,0.090,72.222,5.556,297.222,944.444,11.111,L
996,-0.280,-1.535,0.185,61.111,5.556,294.444,919.444,25.000,L
997,-0.140,-1.330,0.320,63.889,5.556,291.667,952.778,33.333,L
998,-0.265,-1.520,0.115,58.333,2.778,294.444,894.444,58.333,L
999,-0.285,-1.530,0.170,58.333,2.778,277.778,883.333,11.111,L
1000,-0.180,-1.435,0.290,61.111,2.778,305.556,905.556,22.222,L
1001,-0.040,-1.255,0.455,77.778,2.778,302.778,966.667,61.111,L
1002,0.110,-1.065,0.395,72.222,2.778,300.000,972.222,5.556,L
1003,-0.335,-1.615,-0.030,188.889,2.778,294.444,916.667,55.556,L
1004,-0.380,-1.565,0.070,55.556,2.778,280.556,916.667,0.000,L
1005,-0.300,-1.480,0.090,63.889,2.778,286.111,944.444,27.778,L
1006,-0.315,-1.525,0.075,55.556,2.778,294.444,905.556,38.889,L
1007,-0.295,-1.440,0.115,61.111,2.778,275.000,972.222,66.667,L
1008,-0.265,-1.375,0.170,55.556,5.556,297.222,977.778,5.556,L
1009,-0.225,-1.405,0.150,66.667,2.778,294.444,950.000,27.778,L
1010,-0.165,-1.230,0.335,66.667,5.556,291.667,958.333,8.333,L
1011,-0.040,-1.185,0.240,61.111,5.556,297.222,925.000,33.333,L
1012,-0.205,-1.360,0.210,58.333,5.556,313.889,916.667,8.333,L
1013,0.075,-1.010,0.470,66.667,5.556,286.111,941.667,25.000,L
1014,-0.115,-1.375,0.105,186.111,5.556,283.333,1022.222,80.556,L
1015,-0.340,-1.470,0.175,63.889,5.556,275.000,958.333,63.889,L
1016,0.045,-1.055,0.365,80.556,5.556,269.444,936.111,22.222,L
1017,-0.230,-1.390,0.170,66.667,5.556,272.222,950.000,13.889,L
1018,-0.260,-1.435,0.160,58.333,2.778,252.778,916.667,33.333,L
1019,-0.080,-1.225,0.310,63.889,5.556,291.667,944.444,27.778,L
1020,-0.200,-1.390,0.180,77.778,5.556,308.333,983.333,38.889,L
1021,-0.230,-1.450,0.200,61.111,2.778,277.778,961.111,22.222,L
1022,-0.220,-1.430,0.245,61.111,5.556,294.444,966.667,5.556,L
1023,-0.160,-1.415,0.275,61.111,2.778,288.889,936.111,30.556,L
1024,-0.150,-1.425,0.330,58.333,2.778,272.222,919.444,16.667,L
1025,-0.100,-1.420,0.325,61.111,2.778,294.444,908.333,11.111,L
1026,-0.115,-1.395,0.365,63.889,2.778,297.222,977.778,69.444,L
1027,-0.095,-1.415,0.360,66.667,5.556,300.000,1000.000,22.222,L
1028,-0.140,-1.515,0.285,63.889,2.778,275.000,958.333,41.667,L
1029,-0.225,-1.610,0.300,63.889,2.778,272.222,936.111,22.222,L
1030,0.105,-1.205,0.670,61.111,2.778,297.222,925.000,11.111,L
1031,0.230,-1.135,0.580,133.333,5.556,302.778,927.778,2.778,L
1032,-0.140,-1.730,0.050,194.444,2.778,291.667,975.000,47.222,L
1033,-0.550,-2.005,-0.060,58.333,2.778,311.111,963.889,11.111,L
1034,-0.420,-1.685,0.290,58.333,5.556,300.000,963.889,0.000,L
1035,-0.080,-1.435,0.335,69.444,5.556,300.000,947.222,16.667,L
1036,-0.245,-1.620,0.250,58.333,2.778,261.111,955.556,8.333,L
1037,-0.220,-1.605,0.240,58.333,2.778,280.556,913.889,41.667,L
1038,-0.220,-1.595,0.315,61.111,2.778,327.778,936.111,22.222,L
1039,-0.170,-1.475,0.345,63.889,5.556,294.444,1033.333,97.222,L
1040,-0.160,-1.530,0.335,58.333,2.778,297.222,977.778,55.556,L
1041,-0.200,-1.575,0.275,58.333,2.778,297.222,950.000,27.778,L
1042,-0.265,-1.625,0.255,66.667,2.778,291.667,941.667,8.333,L
1043,-0.220,-1.605,0.260,61.111,2.778,286.111,930.556,11.111,L
1044,-0.220,-1.570,0.335,61.111,5.556,291.667,947.222,16.667,L
1045,-0.030,-1.340,0.420,66.667,5.556,305.556,972.222,25.000,L
1046,-0.270,-1.665,0.075,183.333,5.556,291.667,983.333,11.111,L
1047,-0.440,-1.780,0.020,58.333,2.778,294.444,975.000,8.333,L
1048,-0.295,-1.530,0.340,72.222,5.556,297.222,947.222,27.778,L
1049,-0.260,-1.575,0.165,61.111,5.556,288.889,927.778,19.444,L
1050,-0.280,-1.590,0.215,69.444,2.778,319.444,916.667,11.111,L
1051,-0.185,-1.485,0.275,69.444,5.556,300.000,988.889,72.222,L
1052,-0.230,-1.490,0.245,72.222,5.556,319.444,997.222,8.333,L
1053,-0.200,-1.540,0.245,58.333,2.778,311.111,969.444,27.778,L
1054,-0.260,-1.585,0.310,55.556,2.778,280.556,947.222,22.222,L
1055,0.010,-1.275,0.320,66.667,5.556,288.889,927.778,19.444,L
1056,-0.405,-1.755,0.050,61.111,2.778,277.778,941.667,13.889,L
1057,-0.405,-1.705,0.095,63.889,5.556,305.556,958.333,16.667,L
1058,-0.105,-1.370,0.445,63.889,5.556,325.000,980.556,22.222,L
1059,-0.145,-1.600,0.095,194.444,5.556,297.222,963.889,16.667,L
1060,-0.385,-1.725,0.075,55.556,2.778,297.222,958.333,5.556,L
1061,-0.275,-1.560,0.345,58.333,2.778,291.667,955.556,2.778,L
1062,-0.020,-1.345,0.350,55.556,2.778,258.333,916.667,38.889,L
1063,-0.320,-1.665,0.125,75.000,5.556,297.222,950.000,33.333,L
1064,-0.275,-1.575,0.240,63.889,2.778,305.556,1019.444,69.444,L
1065,-0.155,-1.510,0.285,69.444,2.778,277.778,975.000,44.444,L
1066,-0.115,-1.415,0.435,63.889,2.778,288.889,938.889,36.111,L
1067,0.025,-1.330,0.345,61.111,2.778,288.889,933.333,5.556,L
1068,-0.220,-1.545,0.185,58.333,2.778,294.444,944.444,11.111,L
1069,-0.235,-1.515,0.220,58.333,2.778,291.667,936.111,8.333,L
1070,-0.180,-1.430,0.280,58.333,2.778,313.889,980.556,44.444,L
1071,-0.185,-1.435,0.245,63.889,2.778,300.000,975.000,5.556,L
1072,-0.165,-1.405,0.255,63.889,2.778,288.889,980.556,5.556,L
1073,-0.215,-1.410,0.195,66.667,5.556,300.000,952.778,27.778,L
1074,-0.230,-1.535,0.205,61.111,2.778,275.000,925.000,27.778,L
1075,-0.220,-1.530,0.140,61.111,2.778,305.556,916.667,8.333,L
1076,-0.255,-1.440,0.290,69.444,2.778,313.889,977.778,61.111,L
1077,-0.200,-1.450,0.190,66.667,2.778,319.444,994.444,16.667,L
1078,-0.235,-1.500,0.220,66.667,5.556,305.556,966.667,27.778,L
1079,-0.235,-1.500,0.215,55.556,2.778,280.556,938.889,27.778,L
1080,-0.195,-1.470,0.260,66.667,5.556,308.333,941.667,2.778,L
1081,-0.215,-1.545,0.230,61.111,2.778,308.333,927.778,13.889,L
1082,-0.215,-1.525,0.215,63.889,2.778,288.889,952.778,25.000,L
1083,-0.220,-1.490,0.250,66.667,5.556,322.222,988.889,36.111,L
1084,-0.090,-1.360,0.290,58.333,5.556,297.222,969.444,19.444,L
1085,-0.320,-1.590,0.105,61.111,2.778,319.444,975.000,5.556,L
1086,-0.360,-1.645,0.095,61.111,2.778,288.889,950.000,25.000,L
1087,-0.300,-1.545,0.175,55.556,5.556,286.111,922.222,27.778,L
1088,-0.260,-1.505,0.190,61.111,5.556,316.667,936.111,13.889,L
1089,-0.290,-1.550,0.145,66.667,2.778,316.667,1011.111,75.000,L
1090,-0.295,-1.595,0.165,61.111,2.778,275.000,988.889,22.222,L
1091,-0.190,-1.435,0.275,55.556,2.778,283.333,944.444,44.444,L
1092,-0.185,-1.450,0.195,58.333,2.778,277.778,938.889,5.556,L
1093,-0.315,-1.565,0.090,61.111,2.778,286.111,938.889,0.000,L
1094,-0.275,-1.450,0.185,69.444,2.778,308.333,936.111,2.778,L
1095,-0.145,-1.300,0.395,61.111,2.778,333.333,983.333,47.222,L
1096,-0.030,-1.260,0.245,197.222,5.556,308.333,977.778,5.556,L
1097,-0.240,-1.490,0.110,63.889,2.778,305.556,1000.000,22.222,L
1098,-0.310,-1.455,0.260,58.333,2.778,280.556,955.556,44.444,L
1099,-0.055,-1.205,0.330,66.667,2.778,286.111,913.889,41.667,L
1100,-0.120,-1.295,0.330,61.111,2.778,291.667,925.000,11.111,L
1101,-0.225,-1.435,-0.050,191.667,5.556,325.000,969.444,44.444,L
1102,-0.380,-1.565,0.185,63.889,2.778,302.778,1002.778,33.333,L
1103,-0.165,-1.275,0.150,63.889,5.556,288.889,966.667,36.111,L
1104,-0.455,-1.675,-0.035,63.889,5.556,294.444,944.444,22.222,L
1105,-0.245,-1.365,0.240,63.889,5.556,325.000,952.778,8.333,L
1106,-0.245,-1.485,0.030,163.889,5.556,291.667,916.667,36.111,L
1107,-0.425,-1.665,-0.005,69.444,5.556,333.333,955.556,38.889,L
1108,-0.300,-1.475,0.280,66.667,5.556,325.000,994.444,38.889,L
1109,-0.065,-1.285,0.295,61.111,2.778,322.222,963.889,30.556,L
1110,-0.295,-1.535,0.060,66.667,2.778,319.444,986.111,22.222,L
1111,-0.340,-1.580,0.085,52.778,2.778,297.222,936.111,50.000,L
1112,-0.170,-1.300,0.325,58.333,5.556,286.111,919.444,16.667,L
1113,-0.115,-1.275,0.160,61.111,5.556,311.111,938.889,19.444,L
1114,-0.315,-1.520,0.065,58.333,2.778,327.778,997.222,58.333,L
1115,-0.305,-1.455,0.110,55.556,2.778,300.000,977.778,19.444,L
1116,-0.250,-1.335,0.130,58.333,5.556,297.222,938.889,38.889,L
1117,-0.200,-1.290,0.185,61.111,5.556,308.333,936.111,2.778,L
1118,-0.130,-1.230,0.200,58.333,2.778,280.556,941.667,5.556,L
1119,-0.200,-1.310,0.185,63.889,2.778,302.778,927.778,13.889,L
1120,-0.130,-1.245,0.260,61.111,2.778,302.778,980.556,52.778,L
1121,-0.135,-1.275,0.220,58.333,2.778,308.333,980.556,0.000,L
1122,-0.200,-1.305,0.210,66.667,5.556,319.444,988.889,8.333,L
1123,-0.160,-1.305,0.240,63.889,2.778,286.111,947.222,41.667,L
1124,-0.140,-1.340,0.240,55.556,2.778,297.222,908.333,38.889,L
1125,-0.160,-1.335,0.275,55.556,2.778,297.222,913.889,5.556,L
1126,-0.150,-1.345,0.260,69.444,2.778,313.889,963.889,50.000,L
1127,-0.230,-1.500,0.220,58.333,2.778,313.889,1005.556,41.667,L
1128,-0.175,-1.435,0.255,58.333,2.778,280.556,963.889,41.667,L
1129,-0.185,-1.485,0.230,58.333,0.000,322.222,936.111,27.778,L
1130,-0.250,-1.510,0.190,61.111,2.778,286.111,975.000,38.889,L
1131,-0.260,-1.555,0.170,61.111,2.778,277.778,925.000,50.000,L
1132,-0.285,-1.585,0.205,58.333,2.778,302.778,938.889,13.889,L
1133,-0.215,-1.515,0.250,69.444,2.778,300.000,1002.778,63.889,L
1134,-0.225,-1.550,0.205,66.667,2.778,300.000,980.556,22.222,L
1135,-0.245,-1.540,0.270,63.889,2.778,288.889,977.778,2.778,L
1136,-0.160,-1.485,0.310,61.111,2.778,305.556,933.333,44.444,L
1137,-0.145,-1.525,0.325,55.556,2.778,280.556,925.000,8.333,L
1138,-0.120,-1.425,0.355,72.222,2.778,313.889,950.000,25.000,L
1139,-0.110,-1.430,0.270,66.667,2.778,322.222,991.667,41.667,L
1140,-0.190,-1.475,0.310,61.111,2.778,305.556,980.556,11.111,L
1141,-0.060,-1.395,0.385,58.333,2.778,297.222,961.111,19.444,L
1142,-0.115,-1.415,0.330,58.333,5.556,294.444,950.000,11.111,L
1143,-0.105,-1.335,0.405,69.444,5.556,300.000,947.222,2.778,L
1144,-0.015,-1.330,0.420,63.889,2.778,302.778,927.778,19.444,L
1145,-0.105,-1.410,0.360,61.111,5.556,313.889,975.000,47.222,L
1146,0.030,-1.355,0.440,58.333,2.778,302.778,980.556,5.556,L
1147,-0.255,-1.625,0.325,61.111,2.778,308.333,986.111,5.556,L
1148,0.060,-1.220,0.400,58.333,2.778,294.444,930.556,55.556,L
1149,-0.395,-1.750,0.035,188.889,5.556,297.222,933.333,2.778,L
1150,-0.190,-1.435,0.420,58.333,2.778,308.333,902.778,30.556,L
1151,-0.070,-1.430,0.145,72.222,8.333,313.889,966.667,63.889,L
1152,-0.465,-1.810,0.085,75.000,5.556,330.556,1013.889,47.222,L
1153,-0.060,-1.305,0.420,61.111,5.556,286.111,955.556,58.333,L
1154,-0.330,-1.700,0.065,180.556,5.556,311.111,963.889,8.333,L
1155,-0.370,-1.675,0.280,58.333,2.778,291.667,963.889,0.000,L
1156,-0.080,-1.310,0.325,55.556,5.556,269.444,925.000,38.889,L
1157,-0.305,-1.625,0.130,66.667,5.556,305.556,950.000,25.000,L
1158,-0.140,-1.320,0.410,69.444,5.556,319.444,986.111,36.111,L
1159,-0.155,-1.445,0.165,72.222,2.778,297.222,986.111,0.000,L
1160,-0.250,-1.520,0.245,61.111,5.556,280.556,966.667,19.444,L
1161,-0.035,-1.225,0.340,63.889,5.556,275.000,922.222,44.444,L
1162,-0.210,-1.455,0.205,61.111,5.556,277.778,930.556,8.333,L
1163,-0.190,-1.345,0.265,66.667,5.556,322.222,938.889,8.333,L
1164,-0.180,-1.375,0.200,66.667,5.556,325.000,997.222,58.333,L
1165,-0.255,-1.485,0.145,61.111,2.778,294.444,975.000,22.222,L
1166,-0.205,-1.385,0.175,61.111,2.778,294.444,952.778,22.222,L
1167,-0.245,-1.445,0.175,66.667,2.778,302.778,955.556,2.778,L
1168,-0.250,-1.505,0.165,61.111,2.778,308.333,944.444,11.111,L
1169,-0.215,-1.415,0.215,63.889,2.778,300.000,922.222,22.222,L
1170,-0.185,-1.395,0.230,63.889,2.778,302.778,963.889,41.667,L
1171,-0.155,-1.375,0.240,69.444,2.778,336.111,1002.778,38.889,L
1172,-0.160,-1.365,0.240,66.667,2.778,319.444,980.556,22.222,L
1173,-0.150,-1.365,0.255,58.333,2.778,291.667,944.444,36.111,L
1174,-0.170,-1.380,0.210,58.333,0.000,305.556,930.556,13.889,L
1175,-0.190,-1.365,0.180,58.333,2.778,294.444,916.667,13.889,L
1176,-0.170,-1.365,0.180,61.111,2.778,325.000,983.333,66.667,L
1177,-0.195,-1.320,0.180,66.667,5.556,308.333,1022.222,38.889,L
1178,-0.160,-1.325,0.230,61.111,2.778,302.778,966.667,55.556,L
1179,-0.180,-1.330,0.215,58.333,5.556,283.333,975.000,8.333,L
1180,-0.115,-1.290,0.295,52.778,2.778,283.333,961.111,13.889,L
1181,-0.105,-1.280,0.245,52.778,2.778,266.667,933.333,27.778,L
1182,-0.150,-1.335,0.270,58.333,2.778,311.111,938.889,5.556,L
1183,-0.090,-1.260,0.300,61.111,2.778,308.333,1000.000,61.111,L
1184,-0.105,-1.250,0.265,58.333,2.778,291.667,1000.000,0.000,L
1185,-0.125,-1.265,0.260,63.889,5.556,305.556,972.222,27.778,L
1186,-0.135,-1.270,0.230,58.333,5.556,283.333,955.556,16.667,L
1187,-0.155,-1.300,0.225,61.111,2.778,294.444,936.111,19.444,L
1188,-0.155,-1.245,0.235,63.889,5.556,305.556,972.222,36.111,L
1189,-0.180,-1.355,0.210,58.333,2.778,311.111,1008.333,36.111,L
1190,-0.170,-1.325,0.220,61.111,2.778,288.889,988.889,19.444,L
1191,-0.165,-1.340,0.210,61.111,2.778,291.667,980.556,8.333,L
1192,-0.220,-1.355,0.180,55.556,2.778,302.778,958.333,22.222,L
1193,-0.230,-1.430,0.185,55.556,2.778,277.778,952.778,5.556,L
1194,-0.215,-1.460,0.175,63.889,2.778,305.556,938.889,13.889,L
1195,-0.220,-1.400,0.190,66.667,5.556,305.556,986.111,47.222,L
1196,-0.145,-1.295,0.355,69.444,5.556,302.778,1022.222,36.111,L
1197,-0.065,-1.300,0.335,61.111,5.556,294.444,972.222,50.000,L
1198,-0.135,-1.465,0.235,61.111,2.778,291.667,950.000,22.222,L
1199,-0.075,-1.305,0.510,61.111,2.778,291.667,947.222,2.778,L
1200,0.000,-1.275,0.250,183.333,5.556,302.778,925.000,22.222,L
1201,-0.240,-1.510,0.125,66.667,5.556,288.889,813.889,111.111,L
1202,-0.210,-1.380,0.355,61.111,5.556,311.111,1013.889,200.000,L
1203,-0.145,-1.355,0.175,63.889,8.333,308.333,986.111,27.778,L
1204,-0.370,-1.620,0.060,69.444,5.556,302.778,1002.778,16.667,L
1205,-0.210,-1.375,0.305,63.889,5.556,311.111,958.333,44.444,L
1206,-0.205,-1.495,0.145,188.889,2.778,294.444,927.778,30.556,L
1207,-0.420,-1.660,0.040,58.333,2.778,341.667,966.667,38.889,L
1208,-0.180,-1.340,0.165,61.111,5.556,313.889,1002.778,36.111,L
1209,-0.345,-1.585,0.055,61.111,2.778,308.333,1019.444,16.667,L
1210,-0.395,-1.555,0.170,61.111,2.778,308.333,963.889,55.556,L
1211,-0.240,-1.385,0.160,61.111,5.556,297.222,947.222,16.667,L
1212,-0.355,-1.565,0.080,58.333,5.556,280.556,947.222,0.000,L
1213,-0.265,-1.425,0.250,61.111,2.778,305.556,972.222,25.000,L
1214,-0.275,-1.470,0.110,66.667,5.556,305.556,1002.778,30.556,L
1215,-0.360,-1.600,0.085,58.333,2.778,330.556,975.000,27.778,L
1216,-0.220,-1.355,0.280,58.333,2.778,302.778,961.111,13.889,L
1217,-0.210,-1.415,0.250,63.889,5.556,311.111,958.333,2.778,L
1218,-0.205,-1.475,0.285,58.333,2.778,280.556,947.222,11.111,L
1219,-0.115,-1.305,0.315,69.444,5.556,300.000,927.778,19.444,L
1220,-0.185,-1.420,0.270,63.889,5.556,325.000,1008.333,80.556,L
1221,-0.170,-1.415,0.300,66.667,2.778,300.000,1022.222,13.889,L
1222,-0.120,-1.365,0.365,55.556,2.778,300.000,966.667,55.556,L
1223,-0.110,-1.340,0.325,61.111,2.778,291.667,955.556,11.111,L
1224,-0.120,-1.355,0.330,63.889,2.778,305.556,938.889,16.667,L
1225,-0.085,-1.375,0.335,61.111,2.778,308.333,944.444,5.556,L
1226,-0.125,-1.315,0.290,58.333,5.556,316.667,1011.111,66.667,L
1227,-0.125,-1.290,0.275,66.667,5.556,302.778,997.222,13.889,L
1228,-0.190,-1.375,0.215,66.667,2.778,322.222,977.778,19.444,L
1229,-0.205,-1.380,0.215,69.444,2.778,283.333,972.222,5.556,L
1230,-0.210,-1.420,0.190,55.556,2.778,277.778,952.778,19.444,L
1231,-0.215,-1.445,0.240,55.556,2.778,311.111,916.667,36.111,L
1232,-0.155,-1.350,0.295,69.444,2.778,316.667,994.444,77.778,L
1233,-0.170,-1.390,0.240,55.556,2.778,330.556,1019.444,25.000,L
1234,-0.220,-1.395,0.200,58.333,5.556,300.000,1000.000,19.444,L
1235,-0.195,-1.385,0.235,58.333,2.778,291.667,972.222,27.778,L
1236,-0.220,-1.410,0.200,55.556,2.778,300.000,941.667,30.556,L
1237,-0.220,-1.410,0.255,63.889,2.778,300.000,963.889,22.222,L
1238,-0.165,-1.360,0.245,63.889,5.556,305.556,997.222,33.333,L
1239,-0.165,-1.395,0.290,66.667,5.556,316.667,988.889,8.333,L
1240,-0.120,-1.370,0.275,61.111,2.778,305.556,988.889,0.000,L
1241,-0.195,-1.450,0.230,61.111,2.778,291.667,969.444,19.444,L
1242,-0.205,-1.435,0.240,61.111,2.778,305.556,963.889,5.556,L
1243,-0.190,-1.460,0.235,55.556,2.778,300.000,925.000,38.889,L
1244,-0.220,-1.510,0.200,61.111,2.778,341.667,972.222,47.222,L
1245,-0.275,-1.560,0.150,63.889,0.000,313.889,1041.667,69.444,L
1246,-0.270,-1.525,0.205,66.667,2.778,300.000,983.333,58.333,L
1247,-0.275,-1.565,0.135,58.333,2.778,291.667,972.222,11.111,L
1248,-0.365,-1.650,0.095,58.333,2.778,294.444,947.222,25.000,L
1249,-0.320,-1.570,0.190,58.333,2.778,308.333,936.111,11.111,L
1250,-0.295,-1.635,0.115,61.111,2.778,288.889,983.333,47.222,L
1251,-0.275,-1.440,0.320,63.889,5.556,302.778,991.667,8.333,L
1252,-0.205,-1.545,0.085,63.889,5.556,291.667,977.778,13.889,L
1253,-0.445,-1.815,0.035,63.889,5.556,308.333,986.111,8.333,L
1254,-0.245,-1.515,0.255,66.667,5.556,300.000,950.000,36.111,L
1255,-0.425,-1.775,0.035,197.222,5.556,286.111,933.333,16.667,L
1256,-0.505,-1.770,0.105,61.111,5.556,313.889,941.667,8.333,L
1257,-0.185,-1.485,0.255,63.889,5.556,325.000,1000.000,58.333,L
1258,-0.300,-1.710,0.120,63.889,2.778,305.556,1019.444,19.444,L
1259,-0.285,-1.535,0.360,63.889,5.556,308.333,966.667,52.778,L
1260,-0.175,-1.460,0.210,69.444,5.556,297.222,938.889,27.778,L
1261,-0.305,-1.645,0.150,58.333,2.778,294.444,952.778,13.889,L
1262,-0.220,-1.430,0.290,63.889,5.556,311.111,936.111,16.667,L
1263,-0.245,-1.525,0.225,61.111,2.778,313.889,980.556,44.444,L
1264,-0.295,-1.570,0.195,66.667,5.556,325.000,991.667,11.111,L
1265,-0.180,-1.380,0.280,72.222,5.556,300.000,955.556,36.111,L
1266,-0.300,-1.590,0.200,61.111,5.556,308.333,975.000,19.444,L
1267,-0.215,-1.540,0.295,61.111,2.778,305.556,947.222,27.778,L
1268,-0.190,-1.435,0.265,69.444,5.556,300.000,908.333,38.889,L
1269,-0.300,-1.635,0.195,61.111,5.556,341.667,1005.556,97.222,L
1270,-0.285,-1.520,0.205,61.111,5.556,313.889,1016.667,11.111,L
1271,-0.275,-1.570,0.180,63.889,2.778,286.111,969.444,47.222,L
1272,-0.270,-1.510,0.220,55.556,5.556,305.556,952.778,16.667,L
1273,-0.265,-1.510,0.175,58.333,5.556,300.000,938.889,13.889,L
1274,-0.265,-1.525,0.190,55.556,2.778,313.889,930.556,8.333,L
1275,-0.215,-1.410,0.215,66.667,5.556,305.556,977.778,47.222,L
1276,-0.210,-1.470,0.205,69.444,2.778,313.889,1002.778,25.000,L
1277,-0.230,-1.450,0.185,63.889,2.778,316.667,983.333,19.444,L
1278,-0.255,-1.530,0.175,58.333,2.778,294.444,988.889,5.556,L
1279,-0.230,-1.485,0.210,58.333,2.778,288.889,952.778,36.111,L
1280,-0.260,-1.505,0.170,55.556,2.778,280.556,927.778,25.000,L
1281,-0.290,-1.490,0.185,58.333,5.556,330.556,966.667,38.889,L
1282,-0.240,-1.500,0.190,66.667,2.778,302.778,1008.333,41.667,L
1283,-0.220,-1.495,0.245,55.556,0.000,313.889,1005.556,2.778,L
1284,-0.210,-1.475,0.220,66.667,2.778,286.111,975.000,30.556,L
1285,-0.240,-1.480,0.215,58.333,2.778,311.111,941.667,33.333,L
1286,-0.175,-1.410,0.245,58.333,2.778,263.889,969.444,27.778,L
1287,-0.210,-1.440,0.185,66.667,2.778,316.667,941.667,27.778,L
1288,-0.285,-1.460,0.115,61.111,5.556,308.333,994.444,52.778,L
1289,-0.300,-1.500,0.105,61.111,2.778,288.889,1000.000,5.556,L
1290,-0.310,-1.455,0.070,69.444,2.778,302.778,969.444,30.556,L
1291,-0.275,-1.355,0.095,61.111,5.556,302.778,977.778,8.333,L
1292,-0.280,-1.400,0.085,169.444,2.778,283.333,941.667,36.111,L
1293,-0.370,-1.435,0.030,66.667,5.556,322.222,944.444,2.778,L
1294,-0.125,-1.245,0.115,72.222,2.778,297.222,1025.000,80.556,L
1295,-0.375,-1.415,0.250,66.667,5.556,322.222,991.667,33.333,L
1296,-0.020,-1.095,0.380,58.333,5.556,333.333,955.556,36.111,L
1297,0.395,-0.605,0.345,75.000,2.778,61.111,950.000,5.556,L
1298,-0.795,-1.940,-0.400,63.889,2.778,302.778,994.444,44.444,L
1299,-0.615,-1.655,0.025,61.111,2.778,325.000,938.889,55.556,L
1300,-0.155,-1.275,0.025,188.889,5.556,313.889,983.333,44.444,L
1301,-0.390,-1.510,0.005,66.667,5.556,333.333,1011.111,27.778,L
1302,-0.120,-1.160,0.180,69.444,5.556,316.667,983.333,27.778,L
1303,-0.395,-1.535,-0.025,61.111,2.778,308.333,988.889,5.556,L
1304,-0.155,-1.190,0.300,61.111,2.778,305.556,933.333,55.556,L
1305,-0.270,-1.455,0.000,194.444,5.556,311.111,933.333,0.000,L
1306,-0.340,-1.465,0.245,61.111,2.778,344.444,977.778,44.444,L
1307,-0.130,-1.295,0.150,66.667,5.556,322.222,1008.333,30.556,L
1308,-0.375,-1.545,0.115,69.444,5.556,330.556,988.889,19.444,L
1309,-0.085,-1.170,0.365,69.444,5.556,302.778,947.222,41.667,L
1310,-0.285,-1.515,0.090,197.222,5.556,325.000,961.111,13.889,L
1311,-0.335,-1.500,0.260,55.556,5.556,322.222,936.111,25.000,L
1312,-0.115,-1.290,0.240,63.889,5.556,319.444,966.667,30.556,L
1313,-0.360,-1.550,0.055,66.667,5.556,322.222,1013.889,47.222,L
1314,-0.375,-1.555,0.100,61.111,5.556,311.111,980.556,33.333,L
1315,-0.140,-1.245,0.330,63.889,5.556,291.667,983.333,2.778,L
1316,-0.265,-1.430,0.120,66.667,5.556,286.111,955.556,27.778,L
1317,-0.285,-1.440,0.145,55.556,5.556,300.000,933.333,22.222,L
1318,-0.265,-1.485,0.150,58.333,2.778,311.111,952.778,19.444,L
1319,-0.245,-1.405,0.190,63.889,5.556,325.000,1025.000,72.222,L
1320,-0.215,-1.405,0.195,61.111,2.778,288.889,997.222,27.778,L
1321,-0.230,-1.410,0.205,58.333,2.778,294.444,944.444,52.778,L
1322,-0.200,-1.410,0.210,63.889,5.556,294.444,952.778,8.333,L
1323,-0.200,-1.360,0.240,61.111,5.556,291.667,950.000,2.778,L
1324,-0.145,-1.300,0.270,69.444,5.556,302.778,955.556,5.556,L
1325,-0.160,-1.350,0.255,58.333,2.778,297.222,1005.556,50.000,L
1326,-0.190,-1.345,0.220,66.667,2.778,297.222,997.222,8.333,L
1327,-0.205,-1.400,0.200,63.889,2.778,305.556,1008.333,11.111,L
1328,-0.165,-1.380,0.360,58.333,2.778,291.667,961.111,47.222,L
1329,0.035,-1.175,0.480,61.111,2.778,305.556,936.111,25.000,L
1330,0.005,-1.180,0.395,61.111,2.778,291.667,947.222,11.111,L
1331,-0.080,-1.280,0.330,58.333,2.778,311.111,1000.000,52.778,L
1332,-0.155,-1.340,0.255,69.444,2.778,313.889,1025.000,25.000,L
1333,-0.160,-1.325,0.265,61.111,2.778,308.333,975.000,50.000,L
1334,-0.140,-1.365,0.295,66.667,2.778,302.778,955.556,19.444,L
1335,-0.200,-1.410,0.240,72.222,2.778,297.222,986.111,30.556,L
1336,-0.165,-1.375,0.290,61.111,2.778,308.333,938.889,47.222,L
1337,-0.145,-1.305,0.270,61.111,2.778,325.000,1000.000,61.111,L
1338,-0.165,-1.355,0.275,63.889,0.000,313.889,1005.556,5.556,L
1339,-0.150,-1.310,0.205,61.111,2.778,305.556,991.667,13.889,L
1340,-0.185,-1.255,0.235,52.778,2.778,300.000,975.000,16.667,L
1341,-0.060,-1.190,0.360,69.444,2.778,280.556,952.778,22.222,L
1342,-0.105,-1.205,0.190,63.889,5.556,302.778,927.778,25.000,L
1343,-0.205,-1.290,0.230,63.889,5.556,336.111,1002.778,75.000,L
1344,-0.085,-1.100,0.375,66.667,2.778,322.222,1013.889,11.111,L
1345,-0.040,-1.185,0.280,61.111,2.778,288.889,975.000,38.889,L
1346,-0.145,-1.195,0.365,63.889,5.556,308.333,955.556,19.444,L
1347,0.065,-1.115,0.305,194.444,5.556,305.556,947.222,8.333,L
1348,-0.210,-1.350,0.310,197.222,5.556,316.667,938.889,8.333,L
1349,0.060,-1.065,0.385,61.111,2.778,308.333,972.222,33.333,L
1350,-0.270,-1.455,0.130,61.111,2.778,325.000,1002.778,30.556,L
1351,-0.215,-1.330,0.370,63.889,5.556,325.000,1000.000,2.778,L
1352,-0.090,-1.265,0.185,63.889,5.556,291.667,966.667,33.333,L
1353,-0.355,-1.585,0.095,61.111,2.778,294.444,930.556,36.111,L
1354,-0.150,-1.315,0.300,58.333,2.778,277.778,930.556,0.000,L
1355,-0.315,-1.525,0.140,63.889,5.556,305.556,955.556,25.000,L
1356,-0.305,-1.450,0.325,66.667,5.556,322.222,1016.667,61.111,L
1357,-0.160,-1.380,0.280,63.889,5.556,319.444,986.111,30.556,L
1358,-0.275,-1.600,0.195,58.333,2.778,311.111,952.778,33.333,L
1359,-0.130,-1.340,0.375,72.222,2.778,297.222,969.444,16.667,L
1360,-0.110,-1.390,0.395,58.333,2.778,294.444,947.222,22.222,L
1361,-0.160,-1.510,0.200,61.111,2.778,305.556,938.889,8.333,L
1362,-0.175,-1.340,0.395,66.667,5.556,319.444,988.889,50.000,L
1363,-0.110,-1.340,0.405,63.889,5.556,327.778,994.444,5.556,L
1364,-0.105,-1.385,0.340,63.889,5.556,305.556,986.111,8.333,L
1365,-0.225,-1.440,0.330,69.444,5.556,300.000,938.889,47.222,L
1366,-0.125,-1.400,0.375,58.333,5.556,297.222,933.333,5.556,L
1367,-0.195,-1.515,0.265,72.222,2.778,311.111,933.333,0.000,L
1368,-0.260,-1.520,0.270,61.111,5.556,327.778,1002.778,69.444,L
1369,-0.180,-1.450,0.325,55.556,2.778,311.111,997.222,5.556,L
1370,-0.155,-1.375,0.315,75.000,5.556,313.889,969.444,27.778,L
1371,-0.195,-1.405,0.260,55.556,5.556,319.444,958.333,11.111,L
1372,-0.260,-1.500,0.205,58.333,5.556,300.000,952.778,5.556,L
1373,-0.245,-1.490,0.230,58.333,2.778,313.889,933.333,19.444,L
1374,-0.235,-1.485,0.250,69.444,2.778,313.889,980.556,47.222,L
1375,-0.185,-1.450,0.270,72.222,5.556,322.222,1000.000,19.444,L
1376,-0.245,-1.525,0.245,58.333,2.778,297.222,1000.000,0.000,L
1377,-0.245,-1.510,0.230,55.556,2.778,286.111,961.111,38.889,L
1378,-0.255,-1.550,0.220,52.778,2.778,305.556,930.556,30.556,L
1379,-0.205,-1.525,0.220,58.333,2.778,308.333,927.778,2.778,L
1380,-0.245,-1.515,0.225,63.889,2.778,322.222,988.889,61.111,L
1381,-0.160,-1.460,0.290,61.111,2.778,322.222,1030.556,41.667,L
1382,-0.165,-1.425,0.265,58.333,2.778,277.778,977.778,52.778,L
1383,-0.150,-1.380,0.325,63.889,2.778,308.333,972.222,5.556,L
1384,-0.110,-1.340,0.325,55.556,2.778,294.444,975.000,2.778,L
1385,-0.150,-1.385,0.290,58.333,2.778,280.556,933.333,41.667,L
1386,-0.150,-1.335,0.290,66.667,2.778,302.778,958.333,25.000,L
1387,-0.065,-1.260,0.350,63.889,5.556,308.333,1000.000,41.667,L
1388,-0.070,-1.245,0.320,63.889,5.556,288.889,1000.000,0.000,L
1389,-0.130,-1.285,0.240,58.333,2.778,291.667,975.000,25.000,L
1390,-0.175,-1.305,0.245,61.111,2.778,280.556,947.222,27.778,L
1391,-0.175,-1.340,0.165,61.111,5.556,277.778,938.889,8.333,L
1392,-0.255,-1.385,0.145,61.111,2.778,325.000,963.889,25.000,L
1393,-0.210,-1.300,0.245,72.222,5.556,330.556,1013.889,50.000,L
1394,-0.170,-1.320,0.165,63.889,2.778,288.889,988.889,25.000,L
1395,-0.315,-1.400,0.075,61.111,2.778,305.556,966.667,22.222,L
1396,-0.245,-1.295,0.185,66.667,8.333,291.667,952.778,13.889,L
1397,-0.250,-1.375,0.135,75.000,5.556,297.222,958.333,5.556,L
1398,-0.270,-1.315,0.190,72.222,5.556,300.000,930.556,27.778,L
1399,-0.155,-1.270,0.255,69.444,5.556,313.889,983.333,52.778,L
1400,-0.205,-1.375,0.160,63.889,5.556,311.111,1022.222,38.889,L
1401,-0.235,-1.335,0.285,58.333,2.778,308.333,963.889,58.333,L
1402,-0.090,-1.250,0.340,61.111,5.556,311.111,950.000,13.889,L
1403,-0.155,-1.350,0.305,61.111,2.778,305.556,952.778,2.778,L
1404,0.020,-1.090,0.455,66.667,5.556,308.333,916.667,36.111,L
1405,-0.060,-1.295,0.315,69.444,2.778,319.444,1022.222,105.556,L
1406,-0.210,-1.380,0.300,69.444,5.556,333.333,1000.000,22.222,L
1407,-0.095,-1.285,0.335,69.444,5.556,291.667,961.111,38.889,L
1408,-0.185,-1.455,0.210,191.667,2.778,311.111,977.778,16.667,L
1409,-0.235,-1.390,0.295,63.889,5.556,305.556,941.667,36.111,L
1410,-0.130,-1.360,0.330,61.111,5.556,308.333,927.778,13.889,L
1411,-0.225,-1.490,0.180,61.111,2.778,333.333,963.889,36.111,L
1412,-0.270,-1.400,0.235,75.000,5.556,327.778,1000.000,36.111,L
1413,-0.185,-1.370,0.290,69.444,5.556,316.667,991.667,8.333,L
1414,-0.230,-1.455,0.125,61.111,5.556,297.222,969.444,22.222,L
1415,-0.360,-1.555,0.115,61.111,2.778,308.333,938.889,30.556,L
1416,-0.275,-1.490,0.175,55.556,2.778,313.889,927.778,11.111,L
1417,-0.290,-1.510,0.140,66.667,5.556,319.444,994.444,66.667,L
1418,-0.400,-1.580,0.065,63.889,5.556,322.222,997.222,2.778,L
1419,-0.310,-1.530,0.185,61.111,2.778,300.000,969.444,27.778,L
1420,-0.300,-1.545,0.190,58.333,5.556,297.222,969.444,0.000,L
1421,-0.340,-1.570,0.175,63.889,2.778,288.889,941.667,27.778,L
1422,-0.245,-1.480,0.275,66.667,5.556,286.111,955.556,13.889,L
1423,-0.230,-1.520,0.225,63.889,5.556,294.444,941.667,13.889,L
1424,-0.315,-1.560,0.205,66.667,5.556,319.444,988.889,47.222,L
1425,-0.200,-1.525,0.320,61.111,2.778,311.111,1022.222,33.333,L
1426,-0.185,-1.500,0.330,61.111,5.556,311.111,969.444,52.778,L
1427,-0.185,-1.565,0.310,61.111,2.778,302.778,950.000,19.444,L
1428,-0.175,-1.580,0.295,55.556,0.000,272.222,944.444,5.556,L
1429,-0.205,-1.530,0.270,66.667,5.556,319.444,944.444,0.000,L
1430,-0.260,-1.580,0.225,69.444,5.556,316.667,1022.222,77.778,L
1431,-0.260,-1.545,0.230,63.889,5.556,308.333,991.667,30.556,L
1432,-0.260,-1.575,0.210,66.667,2.778,319.444,969.444,22.222,L
1433,-0.265,-1.565,0.205,63.889,2.778,305.556,977.778,8.333,L
1434,-0.285,-1.635,0.175,58.333,0.000,291.667,958.333,19.444,L
1435,-0.320,-1.595,0.140,66.667,5.556,305.556,927.778,30.556,L
1436,-0.320,-1.545,0.185,72.222,2.778,316.667,1002.778,75.000,L
1437,-0.295,-1.540,0.170,63.889,2.778,311.111,1022.222,19.444,L
1438,-0.295,-1.545,0.175,58.333,2.778,297.222,997.222,25.000,L
1439,-0.230,-1.490,0.240,63.889,2.778,288.889,972.222,25.000,L
1440,-0.270,-1.470,0.165,63.889,5.556,311.111,947.222,25.000,L
1441,-0.310,-1.515,0.145,61.111,5.556,313.889,963.889,16.667,L
1442,-0.265,-1.470,0.210,66.667,5.556,336.111,1011.111,47.222,L
1443,-0.270,-1.450,0.145,69.444,5.556,305.556,997.222,13.889,L
1444,-0.265,-1.420,0.200,61.111,5.556,311.111,991.667,5.556,L
1445,-0.200,-1.400,0.235,61.111,2.778,305.556,969.444,22.222,L
1446,-0.210,-1.360,0.220,63.889,2.778,322.222,966.667,2.778,L
1447,-0.165,-1.270,0.290,58.333,5.556,294.444,927.778,38.889,L
1448,-0.205,-1.385,0.210,63.889,5.556,327.778,986.111,58.333,L
1449,-0.170,-1.260,0.245,66.667,5.556,325.000,1036.111,50.000,L
1450,-0.125,-1.240,0.250,66.667,5.556,313.889,991.667,44.444,L
1451,-0.230,-1.455,0.125,158.333,2.778,311.111,966.667,25.000,L
1452,-0.280,-1.365,0.135,66.667,5.556,302.778,944.444,22.222,L
1453,-0.235,-1.320,0.155,63.889,5.556,308.333,930.556,13.889,L
1454,-0.390,-1.535,0.045,161.111,2.778,325.000,991.667,61.111,L
1455,-0.290,-1.355,0.100,69.444,5.556,313.889,997.222,5.556,L
1456,-0.260,-1.340,0.115,61.111,5.556,311.111,988.889,8.333,L
1457,-0.360,-1.395,0.085,66.667,5.556,302.778,975.000,13.889,L
1458,-0.270,-1.315,0.145,69.444,8.333,305.556,950.000,25.000,L
1459,-0.255,-1.340,0.120,58.333,5.556,288.889,944.444,5.556,L
1460,-0.320,-1.390,0.140,69.444,5.556,341.667,947.222,2.778,L
1461,-0.265,-1.400,0.165,77.778,5.556,347.222,1013.889,66.667,L
1462,-0.370,-1.525,0.070,69.444,5.556,311.111,1008.333,5.556,L
1463,-0.320,-1.445,0.150,86.111,5.556,313.889,969.444,38.889,L
1464,-0.285,-1.445,0.170,61.111,5.556,294.444,955.556,13.889,L
1465,-0.295,-1.460,0.255,72.222,5.556,300.000,944.444,11.111,L
1466,-0.220,-1.445,0.260,69.444,5.556,316.667,963.889,19.444,L
1467,-0.315,-1.575,0.115,63.889,5.556,308.333,991.667,27.778,L
1468,-0.390,-1.630,0.185,69.444,5.556,327.778,994.444,2.778,L
1469,-0.300,-1.535,0.210,63.889,5.556,322.222,975.000,19.444,L
1470,-0.330,-1.610,0.160,66.667,2.778,313.889,969.444,5.556,L
1471,-0.340,-1.550,0.195,72.222,5.556,300.000,952.778,16.667,L
1472,-0.300,-1.585,0.205,58.333,2.778,313.889,933.333,19.444,L
1473,-0.360,-1.635,0.110,75.000,2.778,338.889,1022.222,88.889,L
1474,-0.340,-1.600,0.150,75.000,5.556,316.667,1011.111,11.111,L
1475,-0.340,-1.595,0.110,58.333,5.556,300.000,980.556,30.556,L
1476,-0.410,-1.635,0.075,61.111,5.556,322.222,958.333,22.222,L
1477,-0.400,-1.655,0.075,69.444,2.778,313.889,941.667,16.667,L
1478,-0.395,-1.620,0.095,63.889,5.556,325.000,958.333,16.667,L
1479,-0.355,-1.605,0.110,66.667,5.556,338.889,1002.778,44.444,L
1480,-0.375,-1.625,0.075,61.111,2.778,305.556,1011.111,8.333,L
1481,-0.375,-1.610,0.095,63.889,2.778,302.778,986.111,25.000,L
1482,-0.365,-1.600,0.095,58.333,2.778,319.444,983.333,2.778,L
1483,-0.360,-1.525,0.095,63.889,5.556,288.889,963.889,19.444,L
1484,-0.290,-1.505,0.145,61.111,2.778,308.333,930.556,33.333,L
1485,-0.305,-1.505,0.135,63.889,5.556,341.667,1002.778,72.222,L
1486,-0.310,-1.490,0.145,69.444,5.556,350.000,1022.222,19.444,L
1487,-0.265,-1.460,0.170,63.889,5.556,308.333,991.667,30.556,L
1488,-0.230,-1.435,0.260,63.889,5.556,308.333,966.667,25.000,L
1489,-0.140,-1.375,0.315,61.111,2.778,327.778,947.222,19.444,L
1490,-0.110,-1.275,0.305,58.333,5.556,297.222,963.889,16.667,L
1491,-0.140,-1.405,0.290,61.111,2.778,308.333,983.333,19.444,L
1492,-0.130,-1.300,0.325,75.000,5.556,311.111,1000.000,16.667,L
1493,-0.115,-1.280,0.295,63.889,5.556,308.333,988.889,11.111,L
1494,-0.170,-1.390,0.280,61.111,2.778,308.333,977.778,11.111,L
1495,-0.135,-1.315,0.300,63.889,2.778,305.556,969.444,8.333,L
1496,-0.175,-1.345,0.230,61.111,5.556,277.778,930.556,38.889,L
1497,-0.230,-1.365,0.225,69.444,2.778,330.556,977.778,47.222,L
1498,-0.165,-1.275,0.305,61.111,5.556,313.889,1036.111,58.333,L
1499,-0.160,-1.315,0.230,69.444,5.556,319.444,991.667,44.444,L
1500,-0.175,-1.285,0.255,61.111,5.556,308.333,958.333,33.333,L
1501,-0.125,-1.200,0.330,58.333,5.556,280.556,947.222,11.111,L
1502,-0.150,-1.245,0.205,63.889,5.556,277.778,955.556,8.333,L
1503,-0.215,-1.260,0.250,72.222,2.778,313.889,958.333,2.778,L
1504,-0.090,-1.130,0.330,63.889,5.556,311.111,1005.556,47.222,L
1505,-0.110,-1.215,0.250,69.444,5.556,316.667,991.667,13.889,L
1506,-0.070,-1.085,0.345,75.000,5.556,297.222,988.889,2.778,L
1507,-0.070,-1.115,0.325,58.333,5.556,300.000,963.889,25.000,L
1508,-0.120,-1.155,0.310,69.444,5.556,275.000,925.000,38.889,L
1509,-0.040,-1.030,0.325,77.778,5.556,291.667,947.222,22.222,L
1510,-0.090,-1.170,0.275,69.444,5.556,302.778,1005.556,58.333,L
1511,-0.075,-1.105,0.360,72.222,2.778,311.111,1002.778,2.778,L
1512,-0.035,-1.075,0.340,66.667,5.556,305.556,975.000,27.778,L
1513,-0.135,-1.215,0.230,55.556,2.778,294.444,938.889,36.111,L
1514,-0.080,-1.095,0.350,61.111,5.556,294.444,955.556,16.667,L
1515,-0.080,-1.145,0.285,72.222,2.778,311.111,947.222,8.333,L
1516,-0.180,-1.310,0.160,66.667,2.778,330.556,991.667,44.444,L
1517,-0.185,-1.205,0.265,63.889,2.778,325.000,994.444,2.778,L
1518,-0.080,-1.145,0.280,63.889,5.556,311.111,983.333,11.111,L
1519,-0.190,-1.245,0.150,75.000,5.556,294.444,980.556,2.778,L
1520,-0.215,-1.265,0.170,61.111,2.778,308.333,933.333,47.222,L
1521,-0.145,-1.150,0.275,69.444,5.556,316.667,927.778,5.556,L
1522,-0.165,-1.245,0.205,63.889,2.778,322.222,1005.556,77.778,L
1523,-0.235,-1.330,0.160,66.667,2.778,319.444,1002.778,2.778,L
1524,-0.250,-1.335,0.165,69.444,5.556,316.667,972.222,30.556,L
1525,-0.225,-1.275,0.220,61.111,5.556,308.333,944.444,27.778,L
1526,-0.150,-1.215,0.270,66.667,5.556,300.000,952.778,8.333,L
1527,-0.125,-1.205,0.280,63.889,2.778,294.444,941.667,11.111,L
1528,-0.120,-1.170,0.305,75.000,5.556,313.889,980.556,38.889,L
1529,-0.105,-1.190,0.330,72.222,5.556,302.778,1011.111,30.556,L
1530,-0.110,-1.255,0.325,69.444,2.778,316.667,983.333,27.778,L
1531,-0.090,-1.265,0.355,58.333,2.778,297.222,986.111,2.778,L
1532,-0.080,-1.245,0.345,55.556,2.778,300.000,944.444,41.667,L
1533,-0.070,-1.290,0.360,55.556,2.778,294.444,922.222,22.222,L
1534,-0.100,-1.330,0.330,58.333,2.778,297.222,980.556,58.333,L
1535,-0.140,-1.405,0.300,63.889,5.556,311.111,1019.444,38.889,L
1536,-0.140,-1.400,0.345,61.111,2.778,308.333,1002.778,16.667,L
1537,-0.155,-1.430,0.360,63.889,2.778,302.778,969.444,33.333,L
1538,-0.140,-1.460,0.360,63.889,5.556,308.333,963.889,5.556,L
1539,-0.175,-1.525,0.315,58.333,2.778,272.222,966.667,2.778,L
1540,-0.175,-1.515,0.320,63.889,2.778,322.222,966.667,0.000,L
1541,-0.175,-1.490,0.315,63.889,2.778,319.444,1013.889,47.222,L
1542,-0.210,-1.530,0.280,63.889,2.778,322.222,1000.000,13.889,L
1543,-0.220,-1.535,0.270,55.556,2.778,300.000,991.667,8.333,L
1544,-0.180,-1.410,0.335,61.111,5.556,291.667,975.000,16.667,L
1545,-0.195,-1.475,0.270,63.889,5.556,258.333,950.000,25.000,L
1546,-0.230,-1.470,0.285,63.889,2.778,333.333,955.556,5.556,L
1547,-0.120,-1.345,0.385,72.222,5.556,313.889,1036.111,80.556,L
1548,-0.120,-1.450,0.315,61.111,2.778,286.111,1022.222,13.889,L
1549,-0.200,-1.465,0.295,58.333,2.778,300.000,958.333,63.889,L
1550,-0.150,-1.390,0.325,63.889,2.778,305.556,975.000,16.667,L
1551,-0.105,-1.360,0.305,66.667,5.556,286.111,972.222,2.778,L
1552,-0.240,-1.515,0.240,61.111,5.556,341.667,961.111,11.111,L
1553,-0.175,-1.435,0.290,63.889,5.556,319.444,1005.556,44.444,L
1554,-0.095,-1.395,0.350,69.444,5.556,319.444,1013.889,8.333,L
1555,-0.245,-1.585,0.275,69.444,2.778,313.889,1002.778,11.111,L
1556,-0.180,-1.440,0.305,58.333,5.556,288.889,961.111,41.667,L
1557,-0.230,-1.610,0.210,63.889,5.556,294.444,947.222,13.889,L
1558,-0.375,-1.645,0.200,63.889,5.556,302.778,941.667,5.556,L
1559,-0.270,-1.540,0.235,72.222,8.333,322.222,1000.000,58.333,L
1560,-0.300,-1.655,0.120,63.889,5.556,288.889,1025.000,25.000,L
1561,-0.370,-1.595,0.165,61.111,5.556,308.333,963.889,61.111,L
1562,-0.335,-1.650,0.170,75.000,5.556,327.778,963.889,0.000,L
1563,-0.400,-1.705,0.060,155.556,5.556,280.556,977.778,13.889,L
1564,-0.375,-1.575,0.145,61.111,5.556,313.889,922.222,55.556,L
1565,-0.340,-1.615,0.090,61.111,5.556,308.333,1002.778,80.556,L
1566,-0.480,-1.690,0.045,75.000,8.333,313.889,994.444,8.333,L
1567,-0.345,-1.535,0.150,63.889,5.556,297.222,983.333,11.111,L
1568,-0.395,-1.640,0.070,61.111,2.778,302.778,975.000,8.333,L
1569,-0.440,-1.590,0.095,63.889,5.556,308.333,944.444,30.556,L
1570,-0.305,-1.465,0.200,66.667,5.556,308.333,922.222,22.222,L
1571,-0.345,-1.550,0.105,75.000,5.556,327.778,1011.111,88.889,L
1572,-0.350,-1.505,0.145,63.889,5.556,300.000,1008.333,2.778,L
1573,-0.240,-1.410,0.235,61.111,2.778,305.556,975.000,33.333,L
1574,-0.255,-1.460,0.165,69.444,5.556,283.333,975.000,0.000,L
1575,-0.300,-1.475,0.165,61.111,5.556,294.444,955.556,19.444,L
1576,-0.265,-1.410,0.205,66.667,5.556,319.444,938.889,16.667,L
1577,-0.270,-1.465,0.150,63.889,2.778,305.556,994.444,55.556,L
1578,-0.320,-1.500,0.145,63.889,2.778,325.000,1000.000,5.556,L
1579,-0.285,-1.460,0.175,66.667,5.556,322.222,1019.444,19.444,L
1580,-0.320,-1.510,0.135,63.889,5.556,305.556,983.333,36.111,L
1581,-0.375,-1.535,0.075,72.222,5.556,302.778,938.889,44.444,L
1582,-0.385,-1.600,0.110,50.000,2.778,288.889,938.889,0.000,L
1583,-0.370,-1.555,0.115,69.444,5.556,319.444,988.889,50.000,L
1584,-0.390,-1.665,0.075,72.222,5.556,313.889,1038.889,50.000,L
1585,-0.415,-1.640,0.100,58.333,5.556,297.222,1000.000,38.889,L
1586,-0.415,-1.715,0.075,63.889,2.778,305.556,972.222,27.778,L
1587,-0.450,-1.685,0.070,69.444,2.778,297.222,991.667,19.444,L
1588,-0.400,-1.630,0.080,55.556,2.778,269.444,947.222,44.444,L
1589,-0.410,-1.615,0.075,69.444,2.778,300.000,966.667,19.444,L
1590,-0.380,-1.540,0.110,66.667,2.778,302.778,1016.667,50.000,L
1591,-0.280,-1.505,0.190,63.889,2.778,322.222,1008.333,8.333,L
1592,-0.270,-1.400,0.175,75.000,5.556,297.222,994.444,13.889,L
1593,-0.255,-1.405,0.170,66.667,5.556,302.778,958.333,36.111,L
1594,-0.260,-1.370,0.180,69.444,2.778,283.333,952.778,5.556,L
1595,-0.235,-1.325,0.170,69.444,5.556,313.889,986.111,33.333,L
1596,-0.255,-1.345,0.180,66.667,2.778,316.667,1030.556,44.444,L
1597,-0.260,-1.315,0.140,69.444,5.556,316.667,1000.000,30.556,L
1598,-0.275,-1.350,0.135,58.333,2.778,294.444,986.111,13.889,L
1599,-0.305,-1.380,0.085,69.444,5.556,288.889,977.778,8.333,L
1600,-0.360,-1.460,0.060,58.333,2.778,272.222,961.111,16.667,L
1601,-0.330,-1.415,0.115,58.333,5.556,313.889,961.111,0.000,L
1602,-0.305,-1.455,0.080,63.889,2.778,338.889,1005.556,44.444,L
1603,-0.345,-1.425,0.080,63.889,5.556,291.667,1033.333,27.778,L
1604,-0.325,-1.385,0.085,69.444,5.556,286.111,988.889,44.444,L
1605,-0.395,-1.565,-0.035,58.333,2.778,294.444,952.778,36.111,L
1606,-0.440,-1.530,-0.045,61.111,2.778,263.889,952.778,0.000,L
1607,-0.390,-1.370,0.020,69.444,8.333,305.556,958.333,5.556,L
1608,-0.440,-1.530,-0.095,61.111,2.778,311.111,1038.889,80.556,L
1609,-0.485,-1.465,-0.035,66.667,5.556,302.778,994.444,44.444,L
1610,-0.395,-1.405,0.040,61.111,5.556,313.889,972.222,22.222,L
1611,-0.400,-1.505,-0.035,75.000,5.556,311.111,983.333,11.111,L
1612,-0.360,-1.365,0.080,63.889,5.556,294.444,936.111,47.222,L
1613,-0.395,-1.395,0.065,66.667,5.556,302.778,936.111,0.000,L
1614,-0.400,-1.470,0.065,66.667,5.556,336.111,1000.000,63.889,L
1615,-0.290,-1.265,0.130,66.667,5.556,322.222,997.222,2.778,L
1616,-0.305,-1.380,0.055,197.222,5.556,325.000,997.222,0.000,L
1617,-0.340,-1.375,0.155,66.667,5.556,308.333,952.778,44.444,L
1618,-0.265,-1.310,0.190,63.889,5.556,291.667,947.222,5.556,L
1619,-0.255,-1.360,0.105,63.889,5.556,308.333,950.000,2.778,L
1620,-0.290,-1.285,0.155,63.889,5.556,336.111,1002.778,52.778,L
1621,-0.265,-1.330,0.150,72.222,5.556,316.667,1005.556,2.778,L
1622,-0.325,-1.440,0.055,63.889,5.556,297.222,986.111,19.444,L
1623,-0.365,-1.410,0.115,66.667,8.333,305.556,958.333,27.778,L
1624,-0.245,-1.290,0.170,66.667,5.556,302.778,966.667,8.333,L
1625,-0.335,-1.355,0.070,66.667,2.778,300.000,933.333,33.333,L
1626,-0.415,-1.525,0.065,61.111,5.556,327.778,972.222,38.889,L
1627,-0.335,-1.510,0.110,75.000,5.556,327.778,1033.333,61.111,L
1628,-0.370,-1.600,0.080,61.111,2.778,311.111,997.222,36.111,L
1629,-0.380,-1.530,0.095,58.333,2.778,297.222,969.444,27.778,L
1630,-0.375,-1.580,0.095,69.444,2.778,316.667,958.333,11.111,L
1631,-0.345,-1.510,0.175,61.111,2.778,322.222,930.556,27.778,L
1632,-0.300,-1.535,0.150,61.111,5.556,344.444,1013.889,83.333,L
1633,-0.310,-1.540,0.145,66.667,2.778,300.000,1022.222,8.333,L
1634,-0.350,-1.560,0.135,61.111,2.778,319.444,980.556,41.667,L
1635,-0.290,-1.535,0.165,61.111,2.778,311.111,991.667,11.111,L
1636,-0.310,-1.515,0.160,61.111,5.556,308.333,972.222,19.444,L
1637,-0.260,-1.435,0.185,52.778,2.778,286.111,933.333,38.889,L
1638,-0.250,-1.430,0.220,66.667,5.556,322.222,966.667,33.333,L
1639,-0.265,-1.470,0.180,69.444,5.556,319.444,1019.444,52.778,L
1640,-0.300,-1.530,0.160,63.889,5.556,311.111,1008.333,11.111,L
1641,-0.310,-1.550,0.175,75.000,2.778,311.111,980.556,27.778,L
1642,-0.290,-1.500,0.170,58.333,5.556,297.222,966.667,13.889,L
1643,-0.330,-1.515,0.130,61.111,2.778,272.222,952.778,13.889,L
1644,-0.315,-1.415,0.170,63.889,5.556,308.333,983.333,30.556,L
1645,-0.300,-1.490,0.160,63.889,5.556,305.556,1016.667,33.333,L
1646,-0.335,-1.475,0.145,63.889,5.556,336.111,1002.778,13.889,L
1647,-0.330,-1.460,0.155,69.444,2.778,294.444,988.889,13.889,L
1648,-0.350,-1.535,0.075,72.222,2.778,316.667,980.556,8.333,L
1649,-0.445,-1.530,0.020,69.444,2.778,280.556,966.667,13.889,L
1650,-0.430,-1.440,0.070,83.333,5.556,322.222,961.111,5.556,L
1651,-0.435,-1.550,0.035,80.556,2.778,338.889,1047.222,86.111,L
1652,-0.445,-1.570,0.070,63.889,5.556,308.333,1033.333,13.889,L
1653,-0.395,-1.575,0.130,69.444,8.333,316.667,988.889,44.444,L
1654,-0.400,-1.635,0.070,69.444,5.556,305.556,980.556,8.333,L
1655,-0.440,-1.655,0.065,69.444,5.556,286.111,950.000,30.556,L
1656,-0.370,-1.555,0.180,69.444,5.556,330.556,988.889,38.889,L
1657,-0.375,-1.615,0.050,61.111,5.556,327.778,1036.111,47.222,L
1658,-0.415,-1.585,0.100,66.667,5.556,302.778,1005.556,30.556,L
1659,-0.285,-1.380,0.260,66.667,5.556,305.556,997.222,8.333,L
1660,-0.250,-1.435,0.200,61.111,5.556,313.889,994.444,2.778,L
1661,-0.230,-1.325,0.235,63.889,5.556,291.667,955.556,38.889,L
1662,-0.175,-1.290,0.270,63.889,2.778,305.556,947.222,8.333,L
1663,-0.280,-1.430,0.110,172.222,2.778,313.889,1025.000,77.778,L
1664,-0.335,-1.360,0.170,61.111,2.778,311.111,1019.444,5.556,L
1665,-0.260,-1.305,0.185,75.000,2.778,294.444,983.333,36.111,L
1666,-0.285,-1.240,0.095,194.444,2.778,308.333,966.667,16.667,L
1667,-0.355,-1.265,0.095,75.000,0.000,288.889,950.000,16.667,L
1668,-0.295,-1.195,0.165,66.667,5.556,305.556,972.222,22.222,L
1669,-0.340,-1.320,0.030,169.444,0.000,308.333,1005.556,33.333,L
1670,-0.420,-1.320,0.050,83.333,5.556,316.667,997.222,8.333,L
1671,-0.290,-1.280,0.140,66.667,5.556,322.222,980.556,16.667,L
1672,-0.305,-1.390,0.075,72.222,5.556,327.778,975.000,5.556,L
1673,-0.330,-1.305,0.135,63.889,5.556,305.556,955.556,19.444,L
1674,-0.230,-1.325,0.185,61.111,5.556,327.778,944.444,11.111,L
1675,-0.330,-1.360,0.145,69.444,5.556,338.889,1022.222,77.778,L
1676,-0.255,-1.355,0.205,72.222,5.556,333.333,1022.222,0.000,L
1677,-0.285,-1.425,0.150,66.667,5.556,302.778,980.556,41.667,L
1678,-0.305,-1.430,0.150,63.889,5.556,305.556,963.889,16.667,L
1679,-0.230,-1.375,0.280,63.889,5.556,305.556,947.222,16.667,L
1680,-0.230,-1.445,0.210,63.889,2.778,308.333,961.111,13.889,L
1681,-0.225,-1.400,0.260,69.444,2.778,327.778,997.222,36.111,L
1682,-0.110,-1.290,0.365,61.111,5.556,311.111,1019.444,22.222,L
1683,-0.135,-1.375,0.330,69.444,2.778,316.667,991.667,27.778,L
1684,-0.120,-1.290,0.360,66.667,5.556,302.778,980.556,11.111,L
1685,-0.080,-1.270,0.410,61.111,2.778,291.667,958.333,22.222,L
1686,-0.145,-1.330,0.300,63.889,2.778,305.556,936.111,22.222,L
1687,-0.215,-1.305,0.275,83.333,2.778,336.111,1002.778,66.667,L
1688,-0.175,-1.255,0.340,75.000,2.778,327.778,1027.778,25.000,L
1689,-0.150,-1.260,0.295,72.222,2.778,297.222,997.222,30.556,L
1690,-0.215,-1.280,0.245,61.111,2.778,294.444,969.444,27.778,L
1691,-0.275,-1.395,0.240,83.333,2.778,302.778,955.556,13.889,L
1692,-0.225,-1.455,0.245,61.111,2.778,313.889,958.333,2.778,L
1693,-0.280,-1.505,0.195,63.889,2.778,338.889,986.111,27.778,L
1694,-0.300,-1.455,0.195,66.667,2.778,302.778,1019.444,33.333,L
1695,-0.225,-1.425,0.330,61.111,5.556,311.111,994.444,25.000,L
1696,-0.190,-1.410,0.290,72.222,5.556,316.667,994.444,0.000,L
1697,-0.280,-1.545,0.225,152.778,2.778,297.222,966.667,27.778,L
1698,-0.330,-1.515,0.180,72.222,5.556,319.444,933.333,33.333,L
1699,-0.290,-1.490,0.205,69.444,5.556,319.444,1013.889,80.556,L
1700,-0.320,-1.490,0.210,63.889,5.556,305.556,1027.778,13.889,L
1701,-0.250,-1.395,0.290,66.667,2.778,300.000,986.111,41.667,L
1702,-0.240,-1.470,0.250,72.222,2.778,294.444,988.889,2.778,L
1703,-0.275,-1.460,0.235,61.111,2.778,308.333,952.778,36.111,L
1704,-0.225,-1.390,0.300,66.667,2.778,316.667,958.333,5.556,L
1705,-0.190,-1.415,0.270,63.889,2.778,322.222,994.444,36.111,L
1706,-0.270,-1.390,0.250,63.889,2.778,319.444,1019.444,25.000,L
1707,-0.180,-1.215,0.350,77.778,2.778,322.222,1011.111,8.333,L
1708,-0.180,-1.285,0.260,197.222,5.556,308.333,1002.778,8.333,L
1709,-0.265,-1.320,0.200,77.778,2.778,305.556,961.111,41.667,L
1710,-0.235,-1.195,0.265,180.556,2.778,319.444,938.889,22.222,L
1711,-0.220,-1.285,0.190,66.667,2.778,333.333,1000.000,61.111,L
1712,-0.270,-1.350,0.230,63.889,2.778,308.333,1027.778,27.778,L
1713,-0.215,-1.320,0.220,63.889,5.556,291.667,1002.778,25.000,L
1714,-0.280,-1.360,0.090,175.000,2.778,291.667,977.778,25.000,L
1715,-0.370,-1.450,0.090,58.333,2.778,313.889,947.222,30.556,L
1716,-0.325,-1.415,0.100,72.222,5.556,297.222,966.667,19.444,L
1717,-0.360,-1.530,0.045,63.889,5.556,294.444,955.556,11.111,L
1718,-0.330,-1.400,0.125,63.889,2.778,338.889,1000.000,44.444,L
1719,-0.300,-1.360,0.145,63.889,5.556,311.111,1013.889,13.889,L
1720,-0.355,-1.410,0.070,197.222,5.556,325.000,986.111,27.778,L
1721,-0.320,-1.305,0.105,66.667,2.778,305.556,963.889,22.222,L
1722,-0.315,-1.400,0.100,58.333,5.556,294.444,947.222,16.667,L
1723,-0.350,-1.385,0.110,69.444,5.556,350.000,961.111,13.889,L
1724,-0.255,-1.285,0.180,63.889,2.778,308.333,1022.222,61.111,L
1725,-0.280,-1.250,0.120,72.222,5.556,297.222,1011.111,11.111,L
1726,-0.305,-1.245,0.140,61.111,5.556,313.889,969.444,41.667,L
1727,-0.205,-1.165,0.210,72.222,2.778,313.889,961.111,8.333,L
1728,-0.225,-1.195,0.150,63.889,2.778,291.667,972.222,11.111,L
1729,-0.230,-1.085,0.165,63.889,5.556,322.222,952.778,19.444,L
1730,-0.155,-0.990,0.245,63.889,5.556,308.333,1016.667,63.889,L
1731,-0.170,-1.050,0.185,72.222,2.778,313.889,1025.000,8.333,L
1732,-0.255,-1.150,0.120,116.667,5.556,302.778,994.444,30.556,L
1733,-0.210,-1.105,0.185,77.778,2.778,308.333,975.000,19.444,L
1734,-0.240,-1.160,0.100,175.000,2.778,294.444,947.222,27.778,L
1735,-0.320,-1.210,0.080,83.333,2.778,336.111,941.667,5.556,L
1736,-0.245,-1.155,0.125,69.444,2.778,300.000,1022.222,80.556,L
1737,-0.290,-1.255,0.080,63.889,2.778,325.000,1022.222,0.000,L
1738,-0.370,-1.335,0.015,63.889,2.778,288.889,986.111,36.111,L
1739,-0.330,-1.270,0.095,63.889,5.556,305.556,966.667,19.444,L
1740,-0.270,-1.295,0.105,66.667,2.778,300.000,986.111,19.444,L
1741,-0.315,-1.365,0.095,55.556,2.778,327.778,938.889,47.222,L
1742,-0.260,-1.260,0.155,66.667,5.556,305.556,1008.333,69.444,L
1743,-0.265,-1.260,0.100,69.444,5.556,300.000,1022.222,13.889,L
1744,-0.305,-1.250,0.120,63.889,5.556,325.000,997.222,25.000,L
1745,-0.250,-1.165,0.165,63.889,2.778,308.333,991.667,5.556,L
1746,-0.235,-1.145,0.155,77.778,2.778,291.667,950.000,41.667,L
1747,-0.190,-1.065,0.260,72.222,2.778,308.333,947.222,2.778,L
1748,-0.165,-1.115,0.175,77.778,2.778,308.333,1019.444,72.222,L
1749,-0.325,-1.280,0.050,169.444,5.556,300.000,1025.000,5.556,L
1750,-0.395,-1.355,0.020,61.111,5.556,291.667,977.778,47.222,L
1751,-0.355,-1.305,0.095,63.889,2.778,308.333,977.778,0.000,L
1752,-0.335,-1.285,0.100,63.889,2.778,305.556,986.111,8.333,L
1753,-0.380,-1.340,0.010,58.333,2.778,294.444,947.222,38.889,L
1754,-0.340,-1.360,0.150,69.444,2.778,316.667,1011.111,63.889,L
1755,-0.275,-1.385,0.155,197.222,2.778,338.889,1025.000,13.889,L
1756,-0.340,-1.480,0.095,75.000,2.778,294.444,1011.111,13.889,L
1757,-0.360,-1.365,0.150,75.000,2.778,277.778,983.333,27.778,L
1758,-0.355,-1.310,0.065,166.667,2.778,300.000,958.333,25.000,L
1759,-0.450,-1.295,0.010,136.111,5.556,300.000,952.778,5.556,L
1760,-0.440,-1.280,0.070,172.222,2.778,330.556,1000.000,47.222,L
1761,-0.380,-1.135,0.100,158.333,0.000,325.000,1055.556,55.556,L
1762,-0.400,-1.285,0.095,88.889,0.000,277.778,994.444,61.111,L
1763,-0.300,-1.220,0.260,69.444,2.778,311.111,983.333,11.111,L
1764,-0.200,-1.225,0.245,166.667,2.778,269.444,1011.111,27.778,L
1765,-0.260,-1.265,0.225,69.444,2.778,316.667,950.000,61.111,L
1766,-0.195,-1.125,0.360,66.667,5.556,336.111,1000.000,50.000,L
1767,-0.145,-1.170,0.265,72.222,2.778,313.889,1052.778,52.778,L
1768,-0.165,-1.045,0.355,72.222,2.778,313.889,1000.000,52.778,L
1769,0.070,-0.725,0.620,63.889,2.778,291.667,991.667,8.333,L
1770,-0.035,-0.945,0.405,188.889,0.000,297.222,958.333,33.333,L
1771,-0.135,-1.215,0.230,197.222,2.778,311.111,963.889,5.556,L
1772,-0.320,-1.415,0.125,72.222,2.778,327.778,922.222,41.667,L
1773,-0.265,-1.405,0.165,75.000,5.556,313.889,1083.333,161.111,L
1774,-0.135,-1.210,0.335,97.222,2.778,322.222,988.889,94.444,L
1775,-0.180,-1.300,0.290,58.333,2.778,341.667,1061.111,72.222,L
1776,0.685,1.545,-0.365,58.333,113.889,402.778,708.333,352.778,V
1777,0.095,-1.170,-0.170,97.222,2.778,72.222,1294.444,586.111,L
1778,-0.160,-1.945,-0.485,197.222,2.778,350.000,144.444,1150.000,|
1779,-0.525,-1.245,-0.480,102.778,41.667,183.333,194.444,50.000,|
1780,-0.480,-2.085,-0.615,91.667,13.889,347.222,275.000,80.556,V
1781,-0.240,-1.325,0.325,63.889,5.556,327.778,1416.667,1141.667,L
1782,0.575,-0.830,-0.215,155.556,36.111,330.556,725.000,691.667,V
1783,0.010,-1.130,0.520,55.556,5.556,350.000,1352.778,627.778,L
1784,0.750,-0.755,-0.065,113.889,25.000,341.667,655.556,697.222,V
1785,0.100,-1.145,0.595,147.222,2.778,344.444,1300.000,644.444,L
1786,0.360,0.465,1.100,69.444,58.333,333.333,291.667,1008.333,!
1787,1.100,-0.585,0.530,122.222,2.778,227.778,400.000,108.333,!
1788,0.530,-0.720,0.735,169.444,5.556,230.556,397.222,2.778,!
1789,0.735,-1.060,0.715,138.889,13.889,233.333,369.444,27.778,!
1790,0.715,-1.080,0.750,122.222,16.667,233.333,344.444,25.000,!
1791,0.750,-0.965,0.530,97.222,2.778,236.111,313.889,30.556,!
1792,0.530,-1.050,0.410,102.778,2.778,222.222,336.111,22.222,!
1793,0.410,-0.650,0.550,91.667,11.111,216.667,313.889,22.222,!
1794,0.550,-0.535,0.505,158.333,44.444,216.667,375.000,61.111,!
1795,0.505,-0.415,0.360,91.667,19.444,258.333,266.667,108.333,!
1796,0.360,-0.625,0.310,141.667,47.222,241.667,400.000,133.333,!
1797,0.310,-0.625,0.355,80.556,5.556,225.000,275.000,125.000,!
1798,0.355,-0.215,0.820,88.889,41.667,219.444,322.222,47.222,!
1799,-0.180,0.675,0.475,58.333,116.667,352.778,233.333,88.889,!
1800,0.245,0.435,0.540,58.333,94.444,386.111,316.667,83.333,!
1801,0.045,0.455,0.125,52.778,108.333,355.556,336.111,19.444,!
1802,-0.070,0.035,0.205,58.333,94.444,322.222,319.444,16.667,!
1803,-0.030,0.060,0.050,58.333,111.111,388.889,294.444,25.000,!
1804,-0.060,0.000,-0.055,58.333,91.667,291.667,336.111,41.667,!
1805,-0.055,-0.145,0.170,55.556,100.000,225.000,313.889,22.222,!
1806,0.170,0.045,0.260,63.889,61.111,286.111,244.444,69.444,!
1807,0.260,0.295,0.430,102.778,38.889,375.000,369.444,125.000,!
1808,0.360,0.475,0.475,44.444,83.333,347.222,358.333,11.111,!
1809,0.340,0.345,0.465,50.000,80.556,302.778,313.889,44.444,!
1810,0.465,0.415,0.470,55.556,88.889,341.667,330.556,16.667,!
1811,0.340,0.380,0.500,47.222,94.444,380.556,300.000,30.556,!
1812,0.325,0.465,0.390,47.222,94.444,355.556,338.889,38.889,!
1813,0.025,0.375,0.425,55.556,111.111,391.667,316.667,22.222,!
1814,0.020,0.365,0.325,58.333,105.556,377.778,333.333,16.667,!
1815,-0.005,0.315,0.075,63.889,111.111,352.778,316.667,16.667,!
1816,-0.080,0.075,0.005,55.556,102.778,325.000,300.000,16.667,!
1817,-0.120,-0.020,0.075,58.333,113.889,308.333,288.889,11.111,!
1818,-0.155,0.050,-0.020,58.333,116.667,325.000,283.333,5.556,!
1819,-0.020,-0.160,-0.060,41.667,50.000,272.222,308.333,25.000,!
1820,-0.260,-0.090,0.065,75.000,113.889,333.333,277.778,30.556,!
1821,0.025,0.035,0.120,47.222,88.889,336.111,272.222,5.556,!
1822,-0.135,0.090,0.025,58.333,116.667,377.778,288.889,16.667,!
1823,-0.100,-0.040,-0.055,58.333,61.111,72.222,327.778,38.889,!
1824,-0.255,-0.210,0.030,75.000,55.556,327.778,319.444,8.333,!
1825,-0.100,0.015,-0.095,88.889,100.000,388.889,275.000,44.444,!
1826,-0.195,-0.185,-0.070,88.889,77.778,358.333,305.556,30.556,!
1827,-0.220,-0.245,-0.085,63.889,102.778,272.222,352.778,47.222,!
1828,-0.085,-0.340,-0.035,30.556,61.111,319.444,252.778,100.000,!
1829,-0.255,-0.355,0.345,177.778,58.333,405.556,263.889,11.111,!
1830,0.080,-0.065,0.430,127.778,58.333,241.667,308.333,44.444,!
1831,0.430,-0.150,0.930,138.889,66.667,255.556,330.556,22.222,!
1832,0.195,0.590,0.675,166.667,80.556,319.444,266.667,63.889,!
1833,0.255,0.325,0.620,133.333,83.333,286.111,280.556,13.889,!
1834,0.620,-0.370,0.120,100.000,72.222,138.889,327.778,47.222,!
1835,-0.040,-0.405,0.665,177.778,13.889,52.778,322.222,5.556,!
1836,0.220,-0.250,0.555,197.222,80.556,113.889,250.000,72.222,!
1837,0.210,-0.205,0.205,194.444,63.889,166.667,305.556,55.556,!
1838,-0.090,-0.505,-0.150,38.889,19.444,94.444,316.667,11.111,!
1839,-0.160,-0.355,-0.185,180.556,91.667,350.000,291.667,25.000,!
1840,-0.375,-0.330,-0.225,44.444,50.000,252.778,300.000,8.333,!
1841,-0.225,-0.285,-0.125,33.333,72.222,230.556,263.889,36.111,!
1842,-0.410,-0.230,-0.165,130.556,80.556,105.556,230.556,33.333,!
1843,-0.305,-0.220,-0.205,102.778,100.000,327.778,355.556,125.000,!
1844,-0.260,-0.205,0.100,88.889,97.222,233.333,286.111,69.444,!
1845,-0.295,0.035,0.330,197.222,102.778,358.333,208.333,77.778,!
1846,0.330,0.375,0.395,72.222,102.778,383.333,375.000,166.667,!
1847,0.070,0.365,0.280,58.333,116.667,383.333,330.556,44.444,!
1848,-0.035,0.270,0.255,63.889,100.000,375.000,313.889,16.667,!
1849,-0.050,0.255,0.510,58.333,116.667,358.333,319.444,5.556,!
1850,-0.235,0.235,0.715,58.333,116.667,383.333,277.778,41.667,!
1851,0.230,0.680,0.735,52.778,102.778,338.889,327.778,50.000,!
1852,0.285,0.630,0.835,58.333,116.667,336.111,300.000,27.778,!
1853,0.205,0.625,0.875,55.556,97.222,341.667,266.667,33.333,!
1854,0.325,0.770,0.700,58.333,116.667,327.778,300.000,33.333,!
1855,0.170,0.655,0.480,58.333,116.667,336.111,275.000,25.000,!
1856,0.080,0.090,0.265,58.333,116.667,313.889,300.000,25.000,!
1857,-0.200,-0.015,0.170,58.333,116.667,369.444,272.222,27.778,!
1858,-0.195,-0.045,0.170,58.333,61.111,86.111,283.333,11.111,!
1859,-0.090,-0.025,0.480,58.333,113.889,305.556,305.556,22.222,!
1860,-0.130,0.470,0.710,58.333,111.111,327.778,252.778,52.778,!
1861,0.065,0.710,0.655,66.667,116.667,330.556,269.444,16.667,!
1862,-0.080,0.540,0.515,58.333,116.667,341.667,261.111,8.333,!
1863,-0.160,0.375,0.545,197.222,97.222,358.333,272.222,11.111,!
1864,-0.035,0.515,0.440,58.333,116.667,358.333,302.778,30.556,!
1865,0.035,0.235,0.445,197.222,86.111,358.333,280.556,22.222,!
1866,0.065,0.395,0.755,197.222,116.667,358.333,311.111,30.556,!
1867,0.200,0.740,0.850,55.556,108.333,344.444,297.222,13.889,!
1868,0.060,0.635,0.805,58.333,100.000,375.000,275.000,22.222,!
1869,0.120,0.760,0.555,58.333,116.667,355.556,311.111,36.111,!
1870,-0.150,0.275,0.495,58.333,111.111,372.222,275.000,36.111,!
1871,-0.095,0.485,0.365,58.333,116.667,380.556,316.667,41.667,!
1872,-0.115,0.265,0.365,197.222,83.333,102.778,272.222,44.444,!
1873,0.335,0.030,0.255,197.222,58.333,133.333,250.000,22.222,!
1874,0.255,0.000,0.230,197.222,58.333,366.667,272.222,22.222,!
1875,-0.080,0.230,0.415,197.222,116.667,333.333,308.333,36.111,!
1876,-0.015,0.150,0.725,194.444,113.889,375.000,247.222,61.111,!
1877,0.095,0.615,0.930,58.333,108.333,338.889,311.111,63.889,!
1878,0.240,0.755,0.725,58.333,116.667,316.667,291.667,19.444,!
1879,0.115,0.720,0.630,61.111,113.889,336.111,261.111,30.556,!
1880,0.170,0.370,0.590,58.333,116.667,327.778,291.667,30.556,!
1881,0.040,0.410,0.395,58.333,100.000,325.000,247.222,44.444,!
1882,0.060,0.145,0.330,58.333,116.667,288.889,297.222,50.000,!
1883,-0.075,0.210,0.265,58.333,116.667,308.333,247.222,50.000,!
1884,-0.060,0.255,0.195,197.222,105.556,316.667,252.778,5.556,!
1885,-0.155,0.060,0.110,191.667,108.333,347.222,252.778,0.000,!
1886,-0.265,0.035,0.205,197.222,97.222,347.222,277.778,25.000,!
1887,-0.380,0.205,0.475,63.889,116.667,344.444,294.444,16.667,!
1888,-0.110,0.450,0.635,58.333,116.667,330.556,288.889,5.556,!
1889,0.060,0.580,0.660,58.333,111.111,341.667,277.778,11.111,!
1890,0.210,0.625,0.760,58.333,111.111,336.111,294.444,16.667,!
1891,0.125,0.745,0.765,58.333,113.889,350.000,280.556,13.889,!
1892,0.235,0.715,0.595,58.333,113.889,338.889,300.000,19.444,!
1893,0.000,0.570,0.400,58.333,116.667,352.778,280.556,19.444,!
1894,-0.175,0.185,0.220,197.222,113.889,366.667,269.444,11.111,!
1895,-0.155,0.080,0.115,197.222,116.667,352.778,283.333,13.889,!
1896,-0.285,0.110,0.125,61.111,116.667,333.333,291.667,8.333,!
1897,-0.175,0.125,0.150,58.333,111.111,336.111,275.000,16.667,!
1898,-0.150,0.135,0.140,55.556,111.111,319.444,272.222,2.778,!
1899,-0.200,0.140,0.040,197.222,116.667,316.667,266.667,5.556,!
1900,-0.160,0.025,0.020,191.667,105.556,325.000,261.111,5.556,!
1901,-0.205,0.015,0.280,58.333,111.111,325.000,275.000,13.889,!
1902,-0.300,0.245,0.425,197.222,116.667,336.111,263.889,11.111,!
1903,-0.155,0.425,0.595,58.333,113.889,333.333,277.778,13.889,!
1904,-0.055,0.510,0.805,61.111,116.667,341.667,266.667,11.111,!
1905,-0.010,0.530,0.915,61.111,116.667,336.111,263.889,2.778,!
1906,-0.025,0.695,0.815,58.333,116.667,338.889,263.889,0.000,!
1907,0.140,0.810,0.760,61.111,116.667,333.333,283.333,19.444,!
1908,0.255,0.760,0.695,58.333,111.111,333.333,275.000,8.333,!
1909,-0.200,0.410,0.345,58.333,116.667,361.111,258.333,16.667,!
1910,-0.040,0.055,0.345,197.222,58.333,88.889,272.222,13.889,!
1911,0.180,-0.145,0.025,197.222,55.556,83.333,272.222,0.000,!
