id,Pamp,Ramp,Tamp,PR,QRS,QT,RRI,dRRI,label
1,-0.095,1.140,-0.140,147.222,88.889,305.556,713.889,22.222,N
2,-0.055,1.195,-0.115,144.444,94.444,294.444,713.889,0.000,N
3,-0.060,1.165,-0.140,158.333,105.556,325.000,713.889,0.000,N
4,-0.060,1.205,-0.150,155.556,97.222,322.222,727.778,13.889,N
5,-0.075,1.205,-0.165,161.111,97.222,325.000,761.111,33.333,N
6,-0.095,1.255,-0.160,152.778,97.222,305.556,755.556,5.556,N
7,-0.105,1.220,-0.175,152.778,97.222,305.556,730.556,25.000,N
8,-0.045,1.220,-0.095,147.222,100.000,302.778,702.778,27.778,N
9,0.010,1.320,-0.080,144.444,94.444,308.333,691.667,11.111,N
10,0.000,1.200,-0.105,141.667,91.667,305.556,697.222,5.556,N
11,-0.025,1.245,-0.105,147.222,97.222,327.778,722.222,25.000,N
12,-0.025,1.235,-0.115,155.556,113.889,338.889,755.556,33.333,N
13,-0.060,1.230,-0.155,158.333,111.111,341.667,741.667,13.889,N
14,-0.130,1.125,-0.195,155.556,108.333,325.000,747.222,5.556,N
15,-0.075,1.165,-0.170,152.778,94.444,311.111,733.333,13.889,N
16,-0.080,1.175,-0.165,158.333,97.222,308.333,738.889,5.556,N
17,-0.095,1.160,-0.165,150.000,116.667,341.667,702.778,36.111,N
18,-0.060,1.190,-0.130,138.889,102.778,305.556,702.778,0.000,N
19,-0.130,1.695,-0.195,161.111,102.778,361.111,427.778,275.000,V
20,-0.070,1.180,-0.035,147.222,102.778,327.778,1005.556,577.778,N
21,-0.095,1.180,-0.200,161.111,97.222,327.778,755.556,250.000,N
22,-0.080,1.210,-0.160,152.778,94.444,333.333,758.333,2.778,N
23,-0.100,1.210,-0.165,147.222,94.444,311.111,744.444,13.889,N
24,-0.080,1.135,-0.165,147.222,94.444,286.111,722.222,22.222,N
25,-0.060,1.210,-0.160,147.222,94.444,305.556,694.444,27.778,N
26,-0.075,1.215,-0.145,150.000,116.667,341.667,722.222,27.778,N
27,-0.025,1.210,-0.125,141.667,91.667,305.556,725.000,2.778,N
28,-0.125,1.720,-0.175,138.889,108.333,352.778,430.556,294.444,V
29,-0.085,1.225,-0.075,147.222,94.444,322.222,1022.222,591.667,N
30,-0.145,1.140,-0.235,155.556,94.444,327.778,761.111,261.111,N
31,-0.080,1.150,-0.130,155.556,91.667,327.778,736.111,25.000,N
32,0.005,1.260,-0.085,144.444,91.667,308.333,733.333,2.778,N
33,0.000,1.280,-0.060,144.444,116.667,325.000,713.889,19.444,N
34,-0.005,1.265,-0.245,147.222,94.444,383.333,694.444,19.444,N
35,-0.070,1.195,-0.155,144.444,94.444,308.333,680.556,13.889,N
36,-0.005,1.250,-0.170,152.778,97.222,322.222,722.222,41.667,N
37,-0.110,1.230,-0.200,152.778,97.222,305.556,763.889,41.667,N
38,-0.110,1.200,-0.150,155.556,116.667,325.000,736.111,27.778,N
39,-0.020,1.265,-0.075,152.778,97.222,322.222,730.556,5.556,N
40,-0.020,1.270,-0.090,141.667,91.667,311.111,722.222,8.333,N
41,-0.005,1.315,-0.065,133.333,113.889,305.556,711.111,11.111,N
42,0.025,1.310,-0.050,147.222,97.222,305.556,700.000,11.111,N
43,0.040,1.315,-0.025,147.222,100.000,316.667,708.333,8.333,N
44,0.045,1.295,-0.040,147.222,91.667,311.111,711.111,2.778,N
45,0.045,1.305,0.000,144.444,97.222,311.111,727.778,16.667,N
46,-0.025,1.950,-0.140,188.889,113.889,402.778,488.889,238.889,V
47,0.090,1.400,0.100,155.556,105.556,358.333,1005.556,516.667,N
48,0.060,1.345,-0.080,144.444,94.444,308.333,736.111,269.444,N
49,0.030,1.310,-0.065,152.778,88.889,297.222,708.333,27.778,N
50,0.010,1.240,-0.150,144.444,94.444,294.444,688.889,19.444,N
51,-0.080,1.175,-0.130,141.667,94.444,294.444,697.222,8.333,N
52,0.055,1.205,-0.120,147.222,94.444,327.778,686.111,11.111,N
53,0.030,1.260,-0.105,158.333,97.222,313.889,733.333,47.222,N
54,-0.090,1.285,-0.040,150.000,91.667,311.111,747.222,13.889,N
55,-0.060,1.315,-0.015,150.000,116.667,325.000,741.667,5.556,N
56,-0.065,1.270,-0.095,147.222,116.667,344.444,716.667,25.000,N
57,-0.025,1.220,-0.125,155.556,97.222,311.111,733.333,16.667,N
58,-0.030,1.310,-0.110,141.667,116.667,311.111,719.444,13.889,N
59,-0.080,1.175,-0.150,147.222,94.444,305.556,694.444,25.000,N
60,-0.010,1.270,-0.075,141.667,108.333,322.222,697.222,2.778,N
61,0.010,1.280,-0.050,150.000,116.667,341.667,708.333,11.111,N
62,0.080,1.310,-0.045,150.000,94.444,319.444,733.333,25.000,N
63,0.020,1.245,-0.090,158.333,94.444,322.222,761.111,27.778,N
64,-0.075,1.225,-0.210,161.111,94.444,305.556,750.000,11.111,N
65,-0.020,1.200,-0.135,144.444,94.444,311.111,727.778,22.222,N
66,-0.025,1.240,-0.110,136.111,94.444,305.556,711.111,16.667,N
67,-0.035,1.220,-0.155,150.000,94.444,322.222,700.000,11.111,N
68,-0.085,1.160,-0.125,150.000,97.222,319.444,716.667,16.667,N
69,-0.035,1.265,-0.095,147.222,94.444,325.000,711.111,5.556,N
70,-0.025,1.215,-0.090,147.222,94.444,305.556,733.333,22.222,N
71,-0.020,1.250,-0.100,155.556,102.778,325.000,741.667,8.333,N
72,0.000,1.255,-0.085,155.556,94.444,313.889,750.000,8.333,N
73,0.000,1.255,-0.085,158.333,97.222,322.222,733.333,16.667,N
74,-0.020,1.250,-0.095,150.000,94.444,305.556,725.000,8.333,N
75,-0.025,1.185,-0.120,144.444,116.667,322.222,705.556,19.444,N
76,-0.060,1.130,-0.160,152.778,100.000,294.444,702.778,2.778,N
77,-0.080,1.095,-0.205,144.444,94.444,305.556,691.667,11.111,N
78,-0.080,1.240,-0.095,155.556,100.000,333.333,741.667,50.000,N
79,-0.095,1.785,0.010,180.556,116.667,394.444,475.000,266.667,V
80,0.060,1.310,0.110,150.000,97.222,322.222,1038.889,563.889,N
81,0.150,1.300,-0.195,163.889,97.222,325.000,727.778,311.111,N
82,-0.100,1.170,-0.210,136.111,94.444,300.000,727.778,0.000,N
83,-0.045,1.270,-0.105,141.667,116.667,325.000,697.222,30.556,N
84,0.040,1.160,-0.240,141.667,94.444,297.222,702.778,5.556,N
85,-0.095,1.075,-0.220,152.778,100.000,305.556,711.111,8.333,N
86,-0.230,0.935,-0.310,150.000,94.444,316.667,705.556,5.556,N
87,-0.180,1.035,-0.235,147.222,100.000,325.000,727.778,22.222,N
88,-0.105,1.175,-0.175,155.556,100.000,341.667,736.111,8.333,N
89,-0.125,1.195,-0.190,152.778,97.222,311.111,763.889,27.778,N
90,-0.125,1.230,-0.095,147.222,116.667,325.000,733.333,30.556,N
91,-0.025,1.335,-0.160,138.889,105.556,305.556,691.667,41.667,N
92,-0.090,1.200,-0.135,141.667,94.444,302.778,688.889,2.778,N
93,-0.135,1.820,-0.185,188.889,88.889,350.000,458.333,230.556,V
94,0.060,1.330,0.085,141.667,91.667,330.556,969.444,511.111,N
95,-0.005,1.275,-0.070,144.444,105.556,355.556,752.778,216.667,N
96,0.045,1.285,-0.050,150.000,94.444,325.000,750.000,2.778,N
97,-0.035,1.360,-0.105,150.000,97.222,305.556,736.111,13.889,N
98,0.065,1.225,-0.050,144.444,94.444,322.222,713.889,22.222,N
99,0.040,1.365,-0.020,152.778,91.667,313.889,727.778,13.889,N
100,-0.010,1.290,-0.135,144.444,94.444,288.889,708.333,19.444,N
101,-0.045,1.145,-0.145,138.889,91.667,297.222,691.667,16.667,N
102,-0.070,1.180,-0.095,155.556,83.333,308.333,702.778,11.111,N
103,-0.035,1.210,-0.100,150.000,94.444,333.333,711.111,8.333,N
104,0.055,1.295,-0.060,155.556,88.889,327.778,738.889,27.778,N
105,-0.045,1.295,-0.135,155.556,97.222,325.000,752.778,13.889,N
106,-0.120,1.160,-0.135,155.556,105.556,330.556,747.222,5.556,N
107,0.010,1.255,-0.105,152.778,97.222,294.444,708.333,38.889,N
108,-0.005,1.275,-0.055,150.000,94.444,305.556,680.556,27.778,N
109,0.060,1.230,-0.075,152.778,100.000,311.111,705.556,25.000,N
110,-0.110,1.050,-0.120,155.556,97.222,305.556,722.222,16.667,N
111,-0.010,1.135,-0.150,152.778,100.000,325.000,711.111,11.111,N
112,-0.110,1.060,-0.160,136.111,97.222,336.111,733.333,22.222,N
113,-0.085,1.090,-0.135,150.000,94.444,305.556,744.444,11.111,N
114,-0.045,1.215,-0.115,147.222,97.222,308.333,733.333,11.111,N
115,-0.025,1.180,-0.105,155.556,94.444,313.889,725.000,8.333,N
116,-0.060,0.950,-0.245,150.000,94.444,308.333,708.333,16.667,N
117,0.350,1.340,-0.120,155.556,91.667,297.222,688.889,19.444,N
118,-0.080,1.205,-0.110,147.222,113.889,322.222,697.222,8.333,N
119,-0.035,1.245,-0.105,152.778,116.667,338.889,702.778,5.556,N
120,-0.080,1.205,-0.175,155.556,100.000,333.333,736.111,33.333,N
121,-0.135,1.180,-0.200,158.333,97.222,308.333,758.333,22.222,N
122,-0.155,1.140,-0.190,147.222,97.222,297.222,747.222,11.111,N
123,-0.105,1.200,-0.130,150.000,94.444,305.556,719.444,27.778,N
124,-0.030,1.245,-0.100,147.222,94.444,305.556,697.222,22.222,N
125,-0.005,1.325,-0.125,147.222,100.000,311.111,688.889,8.333,N
126,-0.025,1.270,-0.100,141.667,91.667,305.556,711.111,22.222,N
127,0.020,1.235,-0.065,147.222,94.444,305.556,719.444,8.333,N
128,0.055,1.340,-0.040,155.556,91.667,316.667,725.000,5.556,N
129,0.040,1.370,-0.050,150.000,97.222,316.667,733.333,8.333,N
130,0.030,1.330,-0.035,150.000,97.222,327.778,744.444,11.111,N
131,0.065,1.345,0.025,152.778,100.000,313.889,766.667,22.222,N
132,0.130,1.410,-0.010,150.000,97.222,308.333,716.667,50.000,N
133,0.065,1.365,-0.060,136.111,116.667,322.222,683.333,33.333,N
134,0.015,1.360,-0.065,141.667,91.667,305.556,691.667,8.333,N
135,0.035,1.270,-0.105,141.667,91.667,305.556,719.444,27.778,N
136,-0.010,1.220,-0.115,155.556,94.444,311.111,730.556,11.111,N
137,-0.035,1.215,-0.065,161.111,97.222,325.000,758.333,27.778,N
138,-0.010,1.140,-0.070,155.556,97.222,316.667,741.667,16.667,N
139,-0.070,1.855,-0.170,166.667,102.778,358.333,444.444,297.222,V
140,0.055,1.360,0.085,133.333,97.222,325.000,994.444,550.000,N
141,-0.065,1.250,-0.115,144.444,94.444,308.333,727.778,266.667,N
142,-0.025,1.225,-0.095,141.667,91.667,305.556,702.778,25.000,N
143,-0.010,1.255,-0.100,136.111,94.444,297.222,691.667,11.111,N
144,-0.010,1.195,-0.050,150.000,97.222,308.333,697.222,5.556,N
145,0.040,1.290,-0.080,152.778,97.222,319.444,733.333,36.111,N
146,0.030,1.265,-0.105,158.333,94.444,330.556,727.778,5.556,N
147,0.005,1.225,-0.160,152.778,116.667,355.556,741.667,13.889,N
148,0.025,1.265,-0.055,141.667,91.667,316.667,738.889,2.778,N
149,-0.150,1.110,-0.215,150.000,105.556,302.778,700.000,38.889,N
150,-0.150,1.145,-0.170,133.333,116.667,325.000,675.000,25.000,N
151,-0.025,1.235,-0.090,144.444,94.444,311.111,708.333,33.333,N
152,-0.085,1.265,-0.190,144.444,100.000,305.556,711.111,2.778,N
153,-0.060,1.140,-0.090,150.000,97.222,319.444,716.667,5.556,N
154,0.015,1.280,-0.160,150.000,97.222,344.444,711.111,5.556,N
155,-0.040,1.305,-0.115,147.222,94.444,325.000,733.333,22.222,N
156,-0.015,1.275,-0.095,141.667,94.444,327.778,730.556,2.778,N
157,0.055,1.335,0.015,147.222,111.111,330.556,708.333,22.222,N
158,0.105,1.310,-0.030,136.111,91.667,302.778,705.556,2.778,N
159,0.000,1.200,-0.090,138.889,91.667,308.333,683.333,22.222,N
160,0.015,1.280,-0.120,133.333,116.667,316.667,686.111,2.778,N
161,-0.045,1.245,-0.160,150.000,97.222,322.222,694.444,8.333,N
162,0.065,1.195,-0.110,152.778,97.222,330.556,747.222,52.778,N
163,-0.020,1.245,-0.125,150.000,102.778,322.222,736.111,11.111,N
164,0.000,1.265,-0.120,147.222,88.889,308.333,733.333,2.778,N
165,-0.080,1.205,-0.150,136.111,91.667,300.000,697.222,36.111,N
166,-0.025,1.230,-0.150,138.889,97.222,302.778,683.333,13.889,N
167,-0.070,1.230,-0.155,133.333,91.667,308.333,672.222,11.111,N
168,-0.045,1.120,-0.155,138.889,91.667,305.556,700.000,27.778,N
169,-0.070,1.185,-0.145,144.444,94.444,308.333,705.556,5.556,N
170,-0.075,1.190,-0.115,147.222,97.222,316.667,691.667,13.889,N
171,-0.065,1.215,-0.155,152.778,94.444,311.111,719.444,27.778,N
172,-0.060,1.225,-0.145,155.556,94.444,327.778,733.333,13.889,N
173,-0.055,1.215,-0.160,155.556,100.000,322.222,747.222,13.889,N
174,-0.160,1.770,-0.235,150.000,116.667,375.000,430.556,316.667,V
175,-0.050,1.265,0.005,125.000,91.667,305.556,941.667,511.111,N
176,-0.055,1.165,-0.095,138.889,94.444,300.000,680.556,261.111,N
177,0.005,1.265,-0.075,144.444,94.444,294.444,686.111,5.556,N
178,-0.035,1.225,-0.120,152.778,100.000,319.444,694.444,8.333,N
179,-0.070,1.230,-0.120,152.778,100.000,325.000,730.556,36.111,N
180,-0.060,1.260,-0.145,147.222,97.222,319.444,733.333,2.778,N
181,-0.075,1.270,-0.170,152.778,97.222,305.556,733.333,0.000,N
182,-0.080,1.230,-0.135,141.667,100.000,311.111,702.778,30.556,N
183,-0.090,1.250,-0.130,138.889,116.667,319.444,700.000,2.778,N
184,-0.045,1.275,-0.130,138.889,91.667,291.667,702.778,2.778,N
185,-0.055,1.275,-0.120,150.000,97.222,300.000,694.444,8.333,N
186,-0.015,1.205,-0.160,150.000,100.000,308.333,683.333,11.111,N
187,-0.105,1.235,-0.155,141.667,94.444,327.778,708.333,25.000,N
188,-0.060,1.200,-0.110,144.444,94.444,322.222,738.889,30.556,N
189,-0.035,1.265,-0.135,152.778,97.222,311.111,744.444,5.556,N
190,-0.060,1.220,-0.235,158.333,94.444,319.444,736.111,8.333,N
191,-0.045,1.270,-0.170,147.222,94.444,300.000,708.333,27.778,N
192,-0.105,1.210,-0.175,141.667,91.667,286.111,694.444,13.889,N
193,-0.115,1.175,-0.175,144.444,91.667,288.889,677.778,16.667,N
194,-0.100,1.250,-0.180,152.778,94.444,316.667,713.889,36.111,N
195,-0.065,1.270,-0.160,150.000,94.444,313.889,716.667,2.778,N
196,-0.075,1.235,-0.170,152.778,94.444,294.444,736.111,19.444,N
197,-0.110,1.210,-0.170,155.556,94.444,308.333,733.333,2.778,N
198,-0.055,1.300,-0.140,155.556,94.444,308.333,736.111,2.778,N
199,-0.085,1.235,-0.175,138.889,97.222,302.778,711.111,25.000,N
200,-0.080,1.245,-0.145,144.444,94.444,305.556,708.333,2.778,N
201,-0.065,1.230,-0.135,138.889,94.444,291.667,713.889,5.556,N
202,-0.080,1.245,-0.190,141.667,91.667,297.222,697.222,16.667,N
203,-0.080,1.260,-0.140,141.667,91.667,313.889,697.222,0.000,N
204,-0.080,1.245,-0.155,144.444,94.444,338.889,738.889,41.667,N
205,-0.070,1.230,-0.165,152.778,100.000,308.333,772.222,33.333,N
206,-0.080,1.230,-0.145,150.000,97.222,308.333,730.556,41.667,N
207,-0.070,1.220,-0.170,141.667,94.444,308.333,708.333,22.222,N
208,-0.070,1.195,-0.145,147.222,97.222,311.111,708.333,0.000,N
209,-0.070,1.255,-0.125,136.111,91.667,291.667,691.667,16.667,N
210,-0.035,1.220,-0.110,144.444,94.444,291.667,705.556,13.889,N
211,-0.070,1.280,-0.110,150.000,94.444,319.444,716.667,11.111,N
212,-0.025,1.315,-0.105,144.444,94.444,319.444,716.667,0.000,N
213,-0.025,1.265,-0.105,150.000,100.000,313.889,738.889,22.222,N
214,-0.060,1.265,-0.130,158.333,97.222,313.889,741.667,2.778,N
215,0.050,1.390,-0.110,152.778,100.000,311.111,758.333,16.667,N
216,-0.070,1.250,-0.165,152.778,91.667,288.889,705.556,52.778,N
217,-0.115,1.165,-0.155,141.667,88.889,280.556,697.222,8.333,N
218,-0.030,1.240,-0.160,141.667,88.889,294.444,686.111,11.111,N
219,-0.160,1.835,-0.255,152.778,102.778,372.222,413.889,272.222,V
220,-0.110,1.215,0.000,144.444,113.889,355.556,977.778,563.889,N
221,-0.060,1.215,-0.170,158.333,97.222,325.000,763.889,213.889,N
222,-0.050,1.255,-0.140,144.444,91.667,305.556,747.222,16.667,N
223,-0.035,1.260,-0.145,150.000,97.222,313.889,730.556,16.667,N
224,-0.035,1.270,-0.110,150.000,94.444,302.778,713.889,16.667,N
225,-0.040,1.210,-0.135,141.667,94.444,305.556,708.333,5.556,N
226,-0.080,1.245,-0.160,136.111,91.667,294.444,705.556,2.778,N
227,-0.060,1.225,-0.155,144.444,91.667,311.111,705.556,0.000,N
228,-0.105,1.220,-0.190,144.444,94.444,319.444,691.667,13.889,N
229,-0.110,1.180,-0.225,152.778,105.556,327.778,725.000,33.333,N
230,-0.165,1.175,-0.205,147.222,97.222,322.222,741.667,16.667,N
231,-0.125,1.175,-0.140,152.778,91.667,313.889,758.333,16.667,N
232,-0.080,1.240,-0.150,147.222,94.444,311.111,736.111,22.222,N
233,-0.055,1.270,-0.130,147.222,94.444,302.778,705.556,30.556,N
234,-0.055,1.215,-0.095,138.889,91.667,294.444,691.667,13.889,N
235,-0.035,1.230,-0.095,144.444,94.444,302.778,688.889,2.778,N
236,0.025,1.305,-0.090,152.778,97.222,319.444,722.222,33.333,N
237,-0.015,1.305,-0.090,150.000,94.444,325.000,727.778,5.556,N
238,-0.025,1.245,-0.120,141.667,94.444,294.444,744.444,16.667,N
239,-0.025,1.270,-0.115,147.222,94.444,313.889,722.222,22.222,N
240,-0.005,1.300,-0.105,155.556,97.222,305.556,741.667,19.444,N
241,-0.040,1.235,-0.110,144.444,88.889,308.333,702.778,38.889,N
242,-0.030,1.260,-0.170,141.667,91.667,305.556,702.778,0.000,N
243,-0.080,1.160,-0.150,141.667,91.667,286.111,702.778,0.000,N
244,0.005,1.155,-0.065,144.444,83.333,291.667,697.222,5.556,N
245,0.065,1.305,-0.090,147.222,94.444,316.667,691.667,5.556,N
246,0.040,1.290,-0.135,155.556,91.667,333.333,736.111,44.444,N
247,0.005,1.285,-0.110,152.778,97.222,322.222,761.111,25.000,N
248,0.010,1.230,-0.160,147.222,94.444,308.333,730.556,30.556,N
249,-0.015,1.205,-0.145,138.889,91.667,308.333,694.444,36.111,N
250,-0.015,1.200,-0.160,136.111,94.444,302.778,694.444,0.000,N
251,-0.020,1.175,-0.180,136.111,91.667,291.667,691.667,2.778,N
252,-0.090,1.140,-0.185,141.667,91.667,305.556,686.111,5.556,N
253,0.065,1.185,-0.255,152.778,91.667,325.000,711.111,25.000,N
254,-0.115,1.165,-0.170,147.222,94.444,338.889,708.333,2.778,N
255,-0.055,1.180,-0.190,144.444,94.444,311.111,727.778,19.444,N
256,-0.190,1.785,-0.275,172.222,102.778,363.889,447.222,280.556,V
257,-0.095,1.190,-0.125,144.444,94.444,325.000,1002.778,555.556,N
258,-0.150,1.095,-0.075,144.444,91.667,297.222,719.444,283.333,N
259,0.005,1.165,0.035,141.667,102.778,311.111,691.667,27.778,N
260,0.010,1.285,-0.105,147.222,97.222,311.111,672.222,19.444,N
261,0.045,1.355,0.015,144.444,94.444,322.222,686.111,13.889,N
262,0.160,1.355,-0.090,147.222,88.889,313.889,694.444,8.333,N
263,-0.045,1.365,-0.110,155.556,94.444,325.000,736.111,41.667,N
264,-0.010,1.305,-0.200,152.778,94.444,313.889,747.222,11.111,N
265,-0.070,1.185,-0.150,150.000,97.222,311.111,722.222,25.000,N
266,-0.060,1.170,-0.170,136.111,94.444,316.667,702.778,19.444,N
267,-0.170,1.175,-0.210,144.444,94.444,291.667,694.444,8.333,N
268,-0.125,1.180,-0.190,144.444,91.667,294.444,708.333,13.889,N
269,-0.070,1.245,-0.135,141.667,94.444,319.444,683.333,25.000,N
270,0.025,1.375,-0.150,133.333,94.444,305.556,694.444,11.111,N
271,-0.095,1.225,-0.175,144.444,94.444,308.333,713.889,19.444,N
272,-0.075,1.255,-0.180,152.778,97.222,308.333,738.889,25.000,N
273,-0.100,1.320,-0.135,158.333,113.889,333.333,736.111,2.778,N
274,-0.045,1.345,-0.040,158.333,97.222,322.222,744.444,8.333,N
275,0.030,1.410,-0.135,136.111,91.667,288.889,700.000,44.444,N
276,-0.080,1.295,-0.155,136.111,97.222,288.889,688.889,11.111,N
277,-0.055,1.305,-0.135,141.667,94.444,297.222,686.111,2.778,N
278,-0.135,1.955,-0.210,180.556,94.444,366.667,441.667,244.444,V
279,0.065,1.255,0.045,138.889,116.667,344.444,1002.778,561.111,N
280,-0.005,1.240,-0.145,152.778,94.444,305.556,752.778,250.000,N
281,-0.070,1.280,-0.180,150.000,94.444,308.333,725.000,27.778,N
282,-0.065,1.175,-0.140,152.778,97.222,322.222,736.111,11.111,N
283,-0.010,1.240,-0.065,147.222,94.444,313.889,722.222,13.889,N
284,0.020,1.325,-0.040,147.222,94.444,305.556,711.111,11.111,N
285,-0.040,1.875,-0.125,119.444,108.333,336.111,388.889,322.222,V
286,0.000,1.280,0.015,138.889,91.667,311.111,1000.000,611.111,N
287,-0.040,1.225,-0.145,144.444,91.667,297.222,716.667,283.333,N
288,-0.025,1.295,-0.085,158.333,94.444,327.778,738.889,22.222,N
289,0.010,1.305,-0.070,158.333,94.444,311.111,766.667,27.778,N
290,0.035,1.315,-0.010,152.778,97.222,319.444,744.444,22.222,N
291,0.030,1.320,-0.050,141.667,97.222,308.333,711.111,33.333,N
292,0.035,1.360,-0.115,138.889,88.889,308.333,691.667,19.444,N
293,-0.025,1.260,-0.130,125.000,91.667,291.667,700.000,8.333,N
294,-0.080,1.225,-0.145,141.667,88.889,291.667,700.000,0.000,N
295,-0.045,1.285,-0.210,144.444,97.222,316.667,722.222,22.222,N
296,-0.105,1.215,-0.135,150.000,91.667,330.556,725.000,2.778,N
297,0.000,1.345,-0.075,150.000,94.444,316.667,747.222,22.222,N
298,-0.025,1.270,-0.125,155.556,94.444,311.111,725.000,22.222,N
299,-0.015,1.255,-0.195,152.778,97.222,313.889,744.444,19.444,N
300,-0.030,1.345,-0.205,136.111,116.667,333.333,713.889,30.556,N
301,-0.115,1.260,-0.165,136.111,91.667,288.889,691.667,22.222,N
302,0.005,1.280,-0.110,127.778,91.667,288.889,683.333,8.333,N
303,-0.015,1.240,-0.180,144.444,94.444,300.000,708.333,25.000,N
304,-0.060,1.200,-0.140,150.000,91.667,313.889,705.556,2.778,N
305,-0.035,1.150,-0.100,152.778,97.222,333.333,744.444,38.889,N
306,-0.110,1.130,-0.145,147.222,91.667,291.667,755.556,11.111,N
307,-0.225,1.025,-0.205,158.333,100.000,316.667,733.333,22.222,N
308,-0.050,1.175,-0.150,138.889,113.889,322.222,691.667,41.667,N
309,-0.030,1.215,-0.110,141.667,116.667,330.556,708.333,16.667,N
310,-0.115,1.170,-0.175,144.444,91.667,288.889,716.667,8.333,N
311,-0.060,1.215,-0.145,144.444,97.222,305.556,688.889,27.778,N
312,-0.030,1.300,-0.130,144.444,111.111,333.333,691.667,2.778,N
313,-0.085,1.285,-0.155,150.000,116.667,341.667,727.778,36.111,N
314,-0.010,1.240,-0.115,147.222,91.667,308.333,736.111,8.333,N
315,-0.050,1.125,-0.160,158.333,113.889,333.333,736.111,0.000,N
316,-0.175,1.265,-0.080,155.556,97.222,325.000,738.889,2.778,N
317,0.025,1.210,-0.185,141.667,97.222,291.667,702.778,36.111,N
318,-0.140,1.200,-0.180,141.667,91.667,288.889,677.778,25.000,N
319,-0.060,1.330,-0.070,144.444,116.667,325.000,688.889,11.111,N
320,-0.120,1.245,-0.185,150.000,94.444,325.000,727.778,38.889,N
321,0.000,1.245,-0.165,141.667,94.444,322.222,719.444,8.333,N
322,-0.090,1.260,-0.140,150.000,94.444,300.000,741.667,22.222,N
323,-0.030,1.295,-0.030,147.222,94.444,322.222,725.000,16.667,N
324,0.030,1.260,-0.085,158.333,102.778,322.222,727.778,2.778,N
325,-0.040,1.320,-0.080,147.222,86.111,308.333,702.778,25.000,N
326,0.030,1.245,-0.070,144.444,91.667,308.333,713.889,11.111,N
327,-0.020,1.260,-0.170,144.444,113.889,308.333,705.556,8.333,N
328,-0.030,1.275,-0.070,150.000,116.667,319.444,691.667,13.889,N
329,0.060,1.330,-0.035,130.556,91.667,305.556,705.556,13.889,N
330,0.040,1.340,-0.075,147.222,113.889,341.667,752.778,47.222,N
331,-0.055,1.305,-0.095,155.556,100.000,313.889,761.111,8.333,N
332,-0.115,1.125,-0.280,158.333,94.444,308.333,736.111,25.000,N
333,-0.125,1.155,-0.185,144.444,91.667,311.111,697.222,38.889,N
334,0.085,1.300,-0.005,141.667,105.556,311.111,697.222,0.000,N
335,0.020,1.400,-0.080,136.111,91.667,294.444,683.333,13.889,N
336,0.020,1.230,-0.010,141.667,111.111,308.333,705.556,22.222,N
337,0.105,1.320,0.015,150.000,100.000,327.778,722.222,16.667,N
338,0.065,1.295,-0.015,147.222,97.222,330.556,727.778,5.556,N
339,0.000,1.205,-0.035,147.222,113.889,327.778,752.778,25.000,N
340,0.045,1.240,-0.140,155.556,94.444,319.444,738.889,13.889,N
341,-0.110,1.265,0.055,152.778,97.222,308.333,750.000,11.111,N
342,0.075,1.345,0.035,133.333,94.444,305.556,711.111,38.889,N
343,-0.040,1.265,-0.175,136.111,94.444,288.889,697.222,13.889,N
344,-0.040,1.030,0.155,133.333,77.778,369.444,688.889,8.333,N
345,0.180,1.270,-0.165,177.778,111.111,313.889,711.111,22.222,N
346,-0.090,1.265,-0.080,144.444,116.667,358.333,722.222,11.111,N
347,-0.065,1.160,-0.195,155.556,97.222,350.000,755.556,33.333,N
348,-0.095,1.285,-0.065,158.333,94.444,308.333,752.778,2.778,N
349,0.110,1.425,0.005,152.778,97.222,305.556,738.889,13.889,N
350,0.090,1.420,0.000,150.000,94.444,305.556,700.000,38.889,N
351,0.005,1.245,-0.015,152.778,116.667,338.889,702.778,2.778,N
352,0.030,1.330,-0.140,144.444,94.444,294.444,722.222,19.444,N
353,0.040,1.580,-0.065,63.889,116.667,313.889,705.556,16.667,N
354,-0.060,1.325,0.030,136.111,116.667,294.444,705.556,0.000,N
355,0.090,1.350,0.100,172.222,97.222,325.000,744.444,38.889,N
356,0.255,1.400,-0.080,144.444,102.778,333.333,747.222,2.778,N
357,0.185,1.350,0.015,147.222,91.667,294.444,747.222,0.000,N
358,0.145,1.405,0.045,130.556,102.778,383.333,750.000,2.778,N
359,0.080,1.325,-0.035,144.444,94.444,300.000,702.778,47.222,N
360,-0.010,1.205,-0.095,141.667,91.667,294.444,683.333,19.444,N
361,0.000,1.305,-0.060,144.444,97.222,322.222,708.333,25.000,N
362,0.035,1.405,-0.065,152.778,100.000,308.333,750.000,41.667,N
363,0.050,1.300,-0.055,155.556,97.222,333.333,736.111,13.889,N
364,0.000,1.330,-0.090,152.778,94.444,308.333,738.889,2.778,N
365,0.020,1.400,-0.110,150.000,108.333,333.333,752.778,13.889,N
366,0.305,0.740,1.030,58.333,108.333,266.667,530.556,222.222,|
367,0.775,0.955,-0.360,197.222,86.111,366.667,213.889,316.667,N
368,-0.090,1.385,-0.060,136.111,102.778,308.333,713.889,500.000,N
369,0.000,1.255,-0.075,147.222,94.444,302.778,708.333,5.556,N
370,-0.005,1.280,-0.080,138.889,97.222,305.556,702.778,5.556,N
371,-0.010,1.315,-0.090,144.444,94.444,297.222,711.111,8.333,N
372,-0.015,1.300,-0.030,152.778,94.444,319.444,727.778,16.667,N
373,-0.250,1.320,-0.055,144.444,113.889,344.444,772.222,44.444,N
374,-0.035,1.280,-0.060,163.889,94.444,322.222,752.778,19.444,N
375,0.010,1.285,-0.110,150.000,102.778,305.556,738.889,13.889,N
376,-0.065,1.325,-0.130,130.556,111.111,311.111,708.333,30.556,N
377,0.005,1.365,-0.140,150.000,97.222,291.667,702.778,5.556,N
378,-0.105,1.205,-0.160,150.000,100.000,308.333,688.889,13.889,N
379,-0.095,1.230,-0.130,152.778,94.444,305.556,730.556,41.667,N
380,-0.075,1.250,-0.165,147.222,97.222,313.889,744.444,13.889,N
381,-0.055,1.265,-0.150,155.556,100.000,316.667,744.444,0.000,N
382,-0.095,1.200,-0.165,158.333,97.222,327.778,738.889,5.556,N
383,-0.075,1.225,-0.140,161.111,102.778,322.222,761.111,22.222,N
384,-0.030,1.260,-0.160,141.667,91.667,297.222,733.333,27.778,N
385,-0.085,1.240,-0.145,147.222,111.111,322.222,705.556,27.778,N
386,-0.075,1.240,-0.175,147.222,94.444,305.556,688.889,16.667,N
387,-0.075,1.255,-0.170,150.000,100.000,311.111,700.000,11.111,N
388,-0.115,1.200,-0.200,150.000,97.222,322.222,719.444,19.444,N
389,-0.065,1.190,-0.160,155.556,102.778,338.889,752.778,33.333,N
390,-0.070,1.290,-0.140,158.333,102.778,325.000,763.889,11.111,N
391,-0.080,1.285,-0.150,141.667,94.444,322.222,722.222,41.667,N
392,-0.065,1.250,-0.140,147.222,91.667,308.333,716.667,5.556,N
393,-0.140,1.810,-0.195,158.333,97.222,361.111,433.333,283.333,V
394,-0.015,1.340,0.005,141.667,94.444,311.111,986.111,552.778,N
395,-0.095,1.250,-0.085,141.667,83.333,308.333,697.222,288.889,N
396,-0.005,1.295,-0.010,141.667,83.333,319.444,702.778,5.556,N
397,-0.020,1.300,-0.115,152.778,116.667,325.000,725.000,22.222,N
398,0.030,1.280,-0.125,158.333,88.889,308.333,741.667,16.667,N
399,-0.035,1.260,-0.245,155.556,97.222,333.333,727.778,13.889,N
400,-0.125,1.210,-0.185,147.222,97.222,305.556,727.778,0.000,N
401,-0.040,1.185,-0.090,136.111,86.111,294.444,702.778,25.000,N
402,0.085,1.310,-0.070,144.444,94.444,283.333,694.444,8.333,N
403,0.065,1.330,-0.150,141.667,94.444,316.667,675.000,19.444,N
404,0.060,1.265,-0.095,150.000,97.222,322.222,711.111,36.111,N
405,-0.005,1.215,-0.155,150.000,94.444,300.000,738.889,27.778,N
406,-0.025,1.180,-0.180,158.333,94.444,313.889,738.889,0.000,N
407,-0.110,1.200,-0.215,150.000,94.444,311.111,716.667,22.222,N
408,-0.085,1.110,-0.165,147.222,94.444,325.000,733.333,16.667,N
409,-0.045,1.130,-0.035,155.556,91.667,300.000,713.889,19.444,N
410,-0.475,-0.090,-0.010,94.444,116.667,358.333,255.556,458.333,|
411,-0.010,1.130,-0.125,141.667,88.889,300.000,441.667,186.111,N
412,-0.025,1.285,-0.090,152.778,94.444,294.444,702.778,261.111,N
413,-0.025,1.240,-0.100,147.222,94.444,308.333,688.889,13.889,N
414,-0.015,1.290,-0.145,147.222,97.222,305.556,705.556,16.667,N
415,-0.055,1.265,-0.160,152.778,116.667,352.778,719.444,13.889,N
416,-0.085,1.200,-0.170,161.111,97.222,330.556,758.333,38.889,N
417,-0.170,1.700,-0.205,125.000,116.667,394.444,416.667,341.667,V
418,-0.040,1.310,-0.005,133.333,116.667,325.000,1022.222,605.556,N
419,-0.085,1.240,-0.190,138.889,94.444,300.000,700.000,322.222,N
420,-0.075,1.195,-0.130,147.222,94.444,288.889,694.444,5.556,N
421,-0.065,1.235,-0.170,147.222,97.222,316.667,677.778,16.667,N
422,-0.105,1.265,-0.185,150.000,100.000,325.000,711.111,33.333,N
423,-0.100,1.220,-0.190,152.778,91.667,316.667,736.111,25.000,N
424,-0.105,1.205,-0.195,155.556,97.222,313.889,736.111,0.000,N
425,-0.110,1.235,-0.205,150.000,100.000,327.778,725.000,11.111,N
426,-0.100,1.175,-0.200,155.556,91.667,316.667,738.889,13.889,N
427,-0.070,1.260,-0.190,150.000,97.222,302.778,727.778,11.111,N
428,-0.105,1.255,-0.185,150.000,94.444,297.222,688.889,38.889,N
429,-0.100,1.270,-0.175,144.444,97.222,308.333,675.000,13.889,N
430,-0.090,1.200,-0.155,144.444,88.889,311.111,694.444,19.444,N
431,-0.050,1.265,-0.170,147.222,111.111,338.889,708.333,13.889,N
432,-0.080,1.265,-0.155,152.778,94.444,327.778,736.111,27.778,N
433,-0.120,1.200,-0.195,155.556,102.778,327.778,752.778,16.667,N
434,-0.160,1.115,-0.260,147.222,94.444,319.444,725.000,27.778,N
435,-0.160,1.150,-0.230,138.889,116.667,319.444,705.556,19.444,N
436,-0.160,1.125,-0.255,150.000,100.000,305.556,700.000,5.556,N
437,-0.185,1.135,-0.245,152.778,97.222,308.333,711.111,11.111,N
438,-0.140,1.200,-0.235,144.444,97.222,319.444,688.889,22.222,N
439,-0.160,1.220,-0.260,144.444,94.444,305.556,708.333,19.444,N
440,-0.190,1.125,-0.275,152.778,116.667,341.667,725.000,16.667,N
441,-0.155,1.155,-0.240,155.556,97.222,319.444,750.000,25.000,N
442,-0.145,1.240,-0.185,163.889,97.222,322.222,730.556,19.444,N
443,-0.120,1.250,-0.215,150.000,97.222,319.444,738.889,8.333,N
444,-0.125,1.190,-0.195,144.444,113.889,325.000,708.333,30.556,N
445,-0.105,1.255,-0.210,138.889,94.444,294.444,691.667,16.667,N
446,-0.135,1.245,-0.220,138.889,116.667,325.000,680.556,11.111,N
447,-0.135,1.140,-0.215,147.222,94.444,322.222,711.111,30.556,N
448,-0.085,1.225,-0.180,152.778,100.000,325.000,738.889,27.778,N
449,-0.085,1.290,-0.165,158.333,94.444,305.556,752.778,13.889,N
450,-0.075,1.260,-0.135,152.778,100.000,325.000,730.556,22.222,N
451,-0.025,1.300,-0.100,150.000,97.222,322.222,727.778,2.778,N
452,-0.015,1.325,-0.155,144.444,94.444,308.333,713.889,13.889,N
453,-0.110,1.225,-0.180,141.667,116.667,325.000,708.333,5.556,N
454,-0.065,1.245,-0.180,144.444,94.444,311.111,708.333,0.000,N
455,-0.150,1.180,-0.080,152.778,97.222,319.444,694.444,13.889,N
456,-0.050,1.300,-0.120,150.000,116.667,327.778,711.111,16.667,N
457,-0.145,1.820,-0.200,186.111,111.111,402.778,472.222,238.889,V
458,-0.025,1.310,-0.035,155.556,102.778,327.778,1030.556,558.333,N
459,-0.045,1.320,-0.340,155.556,97.222,322.222,744.444,286.111,N
460,-0.180,1.065,-0.265,141.667,88.889,305.556,711.111,33.333,N
461,-0.200,1.095,-0.270,130.556,94.444,294.444,688.889,22.222,N
462,-0.180,1.100,-0.290,144.444,91.667,291.667,697.222,8.333,N
463,-0.355,-1.560,1.200,197.222,5.556,205.556,488.889,208.333,|
464,-0.405,1.180,-0.130,130.556,116.667,336.111,208.333,280.556,N
465,-0.035,1.265,-0.195,150.000,97.222,325.000,708.333,500.000,N
466,-0.090,1.210,-0.140,152.778,100.000,322.222,736.111,27.778,N
467,-0.015,1.310,-0.145,147.222,97.222,322.222,744.444,8.333,N
468,-0.060,1.270,-0.110,158.333,97.222,322.222,716.667,27.778,N
469,-0.040,1.300,-0.115,150.000,94.444,322.222,741.667,25.000,N
470,-0.025,1.195,-0.145,144.444,88.889,297.222,719.444,22.222,N
471,-0.010,1.235,-0.110,141.667,88.889,294.444,700.000,19.444,N
472,-0.020,1.245,-0.100,147.222,100.000,308.333,677.778,22.222,N
473,0.030,1.255,-0.085,152.778,97.222,311.111,708.333,30.556,N
474,-0.030,1.240,-0.100,147.222,94.444,322.222,713.889,5.556,N
475,-0.030,1.250,-0.115,152.778,94.444,327.778,750.000,36.111,N
476,-0.035,1.220,-0.075,152.778,100.000,322.222,763.889,13.889,N
477,0.020,1.365,0.005,155.556,102.778,308.333,733.333,30.556,N
478,0.055,1.190,0.015,136.111,113.889,325.000,697.222,36.111,N
479,0.055,1.405,-0.090,150.000,100.000,330.556,697.222,0.000,N
480,0.000,1.225,-0.100,155.556,94.444,291.667,727.778,30.556,N
481,0.010,1.220,-0.060,144.444,94.444,300.000,697.222,30.556,N
482,0.045,1.300,-0.045,141.667,86.111,311.111,700.000,2.778,N
483,0.045,1.295,-0.030,150.000,116.667,341.667,741.667,41.667,N
484,0.050,1.335,-0.040,150.000,97.222,308.333,752.778,11.111,N
485,0.005,1.235,-0.105,158.333,108.333,322.222,741.667,11.111,N
486,-0.050,1.325,-0.080,147.222,113.889,336.111,738.889,2.778,N
487,-0.005,1.305,-0.060,138.889,97.222,313.889,705.556,33.333,N
488,-0.060,1.870,-0.110,119.444,113.889,388.889,394.444,311.111,V
489,0.065,1.290,0.060,152.778,100.000,327.778,988.889,594.444,N
490,-0.005,1.300,-0.105,155.556,97.222,325.000,741.667,247.222,N
491,0.005,1.305,-0.040,150.000,94.444,330.556,738.889,2.778,N
492,0.035,1.315,-0.060,155.556,97.222,302.778,750.000,11.111,N
493,0.055,1.335,-0.060,155.556,86.111,311.111,738.889,11.111,N
494,0.015,1.340,-0.110,152.778,94.444,302.778,727.778,11.111,N
495,0.020,1.215,-0.055,144.444,94.444,311.111,705.556,22.222,N
496,0.040,1.310,-0.030,155.556,91.667,300.000,713.889,8.333,N
497,0.080,1.375,-0.015,133.333,91.667,300.000,711.111,2.778,N
498,0.055,1.325,-0.045,141.667,94.444,311.111,708.333,2.778,N
499,0.015,1.290,-0.035,150.000,97.222,325.000,722.222,13.889,N
500,0.005,1.335,-0.085,161.111,100.000,338.889,752.778,30.556,N
501,-0.010,1.280,-0.115,152.778,94.444,305.556,763.889,11.111,N
502,-0.030,1.300,-0.085,147.222,100.000,311.111,736.111,27.778,N
503,0.050,1.275,-0.080,147.222,97.222,302.778,700.000,36.111,N
504,0.030,1.280,-0.045,141.667,94.444,313.889,691.667,8.333,N
505,0.045,1.305,-0.095,141.667,94.444,291.667,702.778,11.111,N
506,-0.005,1.315,-0.135,150.000,100.000,322.222,708.333,5.556,N
507,-0.015,1.285,-0.110,158.333,97.222,327.778,725.000,16.667,N
508,-0.020,1.265,-0.125,161.111,97.222,325.000,733.333,8.333,N
509,-0.035,1.295,-0.105,147.222,97.222,322.222,738.889,5.556,N
510,-0.045,1.200,-0.105,152.778,97.222,325.000,730.556,8.333,N
511,-0.005,1.240,-0.080,150.000,100.000,311.111,736.111,5.556,N
512,0.000,1.320,-0.095,141.667,86.111,313.889,694.444,41.667,N
513,0.000,1.290,-0.100,136.111,94.444,300.000,691.667,2.778,N
514,0.005,1.250,-0.100,141.667,94.444,302.778,683.333,8.333,N
515,0.020,1.265,-0.120,158.333,94.444,313.889,719.444,36.111,N
516,-0.045,1.225,-0.125,155.556,100.000,344.444,727.778,8.333,N
517,-0.020,1.240,-0.110,158.333,97.222,313.889,758.333,30.556,N
518,-0.055,1.275,-0.105,147.222,94.444,319.444,744.444,13.889,N
519,0.010,1.265,-0.105,150.000,113.889,319.444,730.556,13.889,N
520,-0.035,1.240,-0.135,138.889,100.000,305.556,686.111,44.444,N
521,-0.030,1.230,-0.110,152.778,94.444,313.889,702.778,16.667,N
522,-0.070,1.235,-0.165,141.667,86.111,297.222,716.667,13.889,N
523,-0.080,1.160,-0.160,150.000,94.444,305.556,713.889,2.778,N
524,-0.065,1.190,-0.170,147.222,94.444,325.000,708.333,5.556,N
525,-0.070,1.180,-0.125,155.556,97.222,330.556,747.222,38.889,N
526,-0.030,1.275,-0.100,150.000,97.222,325.000,741.667,5.556,N
527,-0.025,1.225,-0.120,147.222,97.222,319.444,750.000,8.333,N
528,-0.050,1.265,-0.140,152.778,94.444,297.222,725.000,25.000,N
529,-0.035,1.250,-0.135,144.444,94.444,311.111,700.000,25.000,N
530,-0.095,1.210,-0.170,147.222,113.889,311.111,688.889,11.111,N
531,-0.110,1.200,-0.090,150.000,94.444,316.667,702.778,13.889,N
532,-0.100,1.250,-0.205,152.778,100.000,322.222,752.778,50.000,N
533,-0.140,1.135,-0.185,158.333,100.000,330.556,741.667,11.111,N
534,-0.095,1.220,-0.150,147.222,102.778,325.000,741.667,0.000,N
535,-0.085,1.120,-0.095,150.000,94.444,313.889,733.333,8.333,N
536,-0.025,1.240,-0.130,150.000,97.222,288.889,736.111,2.778,N
537,-0.080,1.205,-0.175,150.000,113.889,322.222,691.667,44.444,N
538,-0.075,1.210,-0.195,147.222,94.444,311.111,713.889,22.222,N
539,-0.135,1.130,-0.230,138.889,91.667,294.444,708.333,5.556,N
540,-0.140,1.105,-0.270,147.222,94.444,305.556,711.111,2.778,N
541,-0.170,1.145,-0.305,150.000,97.222,330.556,733.333,22.222,N
542,-0.075,1.125,-0.210,158.333,97.222,336.111,775.000,41.667,N
543,-0.115,1.125,-0.195,147.222,94.444,305.556,755.556,19.444,N
544,-0.120,1.080,-0.195,144.444,91.667,288.889,730.556,25.000,N
545,-0.115,1.145,-0.230,147.222,94.444,291.667,702.778,27.778,N
546,-0.120,1.115,-0.195,147.222,97.222,302.778,688.889,13.889,N
547,-0.120,1.165,-0.170,130.556,94.444,305.556,694.444,5.556,N
548,-0.075,1.235,-0.135,144.444,94.444,325.000,733.333,38.889,N
549,-0.055,1.205,-0.145,150.000,97.222,308.333,750.000,16.667,N
550,-0.010,1.255,-0.105,152.778,94.444,316.667,741.667,8.333,N
551,-0.020,1.200,-0.165,155.556,97.222,316.667,733.333,8.333,N
552,-0.090,1.210,-0.175,155.556,97.222,313.889,750.000,16.667,N
553,-0.075,1.200,-0.140,150.000,97.222,305.556,727.778,22.222,N
554,-0.045,1.305,-0.085,152.778,94.444,300.000,702.778,25.000,N
555,-0.040,1.280,-0.085,138.889,94.444,308.333,688.889,13.889,N
556,0.025,1.305,-0.065,150.000,97.222,305.556,708.333,19.444,N
557,0.015,1.280,-0.050,147.222,116.667,338.889,733.333,25.000,N
558,0.005,1.245,-0.090,158.333,91.667,327.778,758.333,25.000,N
559,-0.025,1.285,-0.095,161.111,97.222,322.222,758.333,0.000,N
560,0.020,1.330,-0.065,150.000,100.000,308.333,733.333,25.000,N
561,-0.010,1.265,-0.055,150.000,100.000,291.667,719.444,13.889,N
562,0.010,1.350,-0.050,147.222,116.667,325.000,697.222,22.222,N
563,0.005,1.275,-0.065,155.556,94.444,305.556,713.889,16.667,N
564,0.000,1.335,-0.100,150.000,100.000,322.222,708.333,5.556,N
565,-0.060,1.235,-0.120,141.667,91.667,308.333,719.444,11.111,N
566,-0.070,1.230,-0.115,155.556,91.667,311.111,733.333,13.889,N
567,-0.090,1.215,-0.130,155.556,94.444,316.667,750.000,16.667,N
568,-0.130,1.700,-0.210,130.556,100.000,375.000,408.333,341.667,V
569,-0.055,1.215,0.010,133.333,116.667,355.556,1052.778,644.444,N
570,-0.075,1.225,-0.195,133.333,91.667,305.556,711.111,341.667,N
571,-0.115,1.195,-0.245,144.444,91.667,297.222,697.222,13.889,N
572,-0.135,1.165,-0.230,144.444,94.444,322.222,688.889,8.333,N
573,-0.140,1.170,-0.190,155.556,100.000,333.333,722.222,33.333,N
574,-0.090,1.155,-0.170,155.556,94.444,311.111,752.778,30.556,N
575,-0.095,1.190,-0.215,158.333,97.222,311.111,755.556,2.778,N
576,-0.115,1.215,-0.160,158.333,94.444,319.444,716.667,38.889,N
577,-0.055,1.265,-0.105,144.444,94.444,305.556,719.444,2.778,N
578,-0.045,1.260,-0.130,147.222,116.667,325.000,700.000,19.444,N
579,-0.100,1.225,-0.160,144.444,97.222,305.556,697.222,2.778,N
580,-0.075,1.235,-0.150,144.444,91.667,294.444,711.111,13.889,N
581,-0.085,1.225,-0.175,144.444,94.444,308.333,702.778,8.333,N
582,-0.065,1.170,-0.175,141.667,94.444,305.556,716.667,13.889,N
583,-0.110,1.215,-0.220,147.222,94.444,325.000,736.111,19.444,N
584,-0.120,1.195,-0.205,158.333,97.222,313.889,766.667,30.556,N
585,-0.145,1.115,-0.230,147.222,97.222,305.556,722.222,44.444,N
586,-0.165,1.215,-0.250,144.444,94.444,305.556,697.222,25.000,N
587,-0.165,1.175,-0.230,138.889,88.889,291.667,688.889,8.333,N
588,-0.165,1.100,-0.245,138.889,88.889,297.222,700.000,11.111,N
589,-0.165,1.245,-0.240,150.000,97.222,308.333,694.444,5.556,N
590,-0.165,1.160,-0.225,152.778,100.000,333.333,722.222,27.778,N
591,-0.145,1.165,-0.205,147.222,97.222,327.778,741.667,19.444,N
592,-0.160,1.270,-0.200,152.778,100.000,308.333,741.667,0.000,N
593,-0.060,1.290,-0.140,150.000,113.889,338.889,727.778,13.889,N
594,-0.050,1.255,-0.140,152.778,94.444,313.889,738.889,11.111,N
595,-0.080,1.290,-0.160,147.222,116.667,322.222,713.889,25.000,N
596,-0.090,1.350,-0.180,144.444,97.222,286.111,700.000,13.889,N
597,-0.120,1.245,-0.210,150.000,97.222,305.556,697.222,2.778,N
598,-0.125,1.205,-0.225,155.556,100.000,319.444,722.222,25.000,N
599,-0.145,1.245,-0.185,155.556,97.222,319.444,730.556,8.333,N
600,-0.120,1.215,-0.175,158.333,97.222,325.000,763.889,33.333,N
601,-0.120,1.190,-0.160,150.000,113.889,313.889,761.111,2.778,N
602,-0.095,1.265,-0.230,147.222,113.889,327.778,716.667,44.444,N
603,-0.110,1.150,-0.255,141.667,94.444,294.444,697.222,19.444,N
604,-0.140,1.185,-0.195,144.444,94.444,305.556,702.778,5.556,N
605,-0.100,1.165,-0.190,141.667,102.778,305.556,713.889,11.111,N
606,-0.190,1.790,-0.210,161.111,94.444,380.556,436.111,277.778,V
607,-0.055,1.250,0.010,144.444,116.667,358.333,1005.556,569.444,N
608,-0.035,1.185,-0.150,155.556,100.000,319.444,738.889,266.667,N
609,-0.055,1.225,-0.150,144.444,91.667,322.222,738.889,0.000,N
610,-0.065,1.270,-0.160,161.111,94.444,316.667,738.889,0.000,N
611,-0.030,1.285,-0.105,147.222,97.222,316.667,719.444,19.444,N
612,0.010,1.355,0.610,138.889,91.667,377.778,686.111,33.333,N
613,0.275,0.535,0.515,58.333,111.111,113.889,322.222,363.889,|
614,-0.250,1.190,-0.225,141.667,94.444,302.778,369.444,47.222,N
615,-0.190,1.190,-0.160,150.000,94.444,313.889,691.667,322.222,N
616,-0.220,1.285,-0.110,155.556,94.444,319.444,730.556,38.889,N
617,0.000,1.265,-0.120,152.778,94.444,327.778,738.889,8.333,N
618,-0.015,1.225,-0.175,150.000,97.222,308.333,744.444,5.556,N
619,-0.050,1.320,-0.105,147.222,97.222,302.778,730.556,13.889,N
620,0.010,1.190,-0.185,150.000,91.667,300.000,708.333,22.222,N
621,0.000,1.210,-0.130,147.222,97.222,311.111,688.889,19.444,N
622,-0.060,1.210,-0.130,141.667,88.889,311.111,697.222,8.333,N
623,0.000,1.265,-0.110,144.444,94.444,291.667,702.778,5.556,N
624,-0.005,1.195,-0.305,147.222,94.444,305.556,702.778,0.000,N
625,0.000,1.280,-0.150,147.222,100.000,325.000,719.444,16.667,N
626,-0.145,1.120,-0.155,158.333,94.444,322.222,744.444,25.000,N
627,-0.050,1.210,-0.160,158.333,97.222,302.778,763.889,19.444,N
628,-0.090,1.220,-0.175,150.000,91.667,302.778,722.222,41.667,N
629,-0.075,1.205,-0.120,138.889,91.667,302.778,680.556,41.667,N
630,-0.010,1.315,-0.100,141.667,97.222,305.556,686.111,5.556,N
631,-0.045,1.280,-0.120,133.333,116.667,325.000,700.000,13.889,N
632,-0.030,1.295,-0.125,150.000,97.222,305.556,702.778,2.778,N
633,0.000,1.330,-0.060,158.333,94.444,325.000,725.000,22.222,N
634,-0.060,1.980,-0.090,127.778,97.222,341.667,419.444,305.556,V
635,0.035,1.440,0.100,141.667,108.333,325.000,1063.889,644.444,N
636,0.010,1.340,-0.075,150.000,94.444,311.111,733.333,330.556,N
637,0.015,1.355,-0.050,152.778,97.222,316.667,730.556,2.778,N
638,0.030,1.345,-0.070,147.222,94.444,291.667,705.556,25.000,N
639,0.030,1.365,-0.055,138.889,91.667,280.556,691.667,13.889,N
640,0.005,1.330,-0.065,147.222,94.444,308.333,691.667,0.000,N
641,0.050,1.405,-0.040,152.778,97.222,305.556,722.222,30.556,N
642,-0.040,1.870,-0.165,188.889,100.000,358.333,458.333,263.889,V
643,0.020,1.335,0.045,150.000,100.000,338.889,1027.778,569.444,N
644,-0.030,1.240,-0.135,152.778,94.444,313.889,769.444,258.333,N
645,-0.025,1.290,-0.105,141.667,94.444,297.222,719.444,50.000,N
646,0.075,1.340,-0.115,144.444,91.667,302.778,686.111,33.333,N
647,0.020,1.325,-0.100,150.000,97.222,305.556,708.333,22.222,N
648,-0.020,1.300,-0.155,147.222,94.444,305.556,716.667,8.333,N
649,-0.065,1.215,-0.110,150.000,100.000,319.444,713.889,2.778,N
650,0.010,1.310,-0.125,155.556,97.222,322.222,719.444,5.556,N
651,-0.025,1.270,-0.145,161.111,100.000,325.000,747.222,27.778,N
652,-0.045,1.245,-0.210,150.000,97.222,319.444,736.111,11.111,N
653,-0.080,1.230,-0.170,152.778,88.889,300.000,736.111,0.000,N
654,-0.055,1.160,-0.180,147.222,97.222,308.333,725.000,11.111,N
655,-0.115,1.235,-0.180,133.333,94.444,302.778,686.111,38.889,N
656,-0.060,1.290,-0.135,141.667,94.444,288.889,697.222,11.111,N
657,-0.055,1.190,-0.125,147.222,94.444,327.778,713.889,16.667,N
658,-0.010,1.290,-0.105,163.889,97.222,325.000,755.556,41.667,N
659,-0.040,1.265,-0.155,155.556,97.222,336.111,741.667,13.889,N
660,-0.050,1.290,-0.190,150.000,97.222,305.556,744.444,2.778,N
661,-0.070,1.235,-0.100,155.556,94.444,311.111,738.889,5.556,N
662,0.025,1.335,-0.145,147.222,91.667,288.889,722.222,16.667,N
663,-0.020,1.300,-0.115,147.222,97.222,308.333,700.000,22.222,N
664,-0.045,1.265,-0.145,138.889,94.444,302.778,708.333,8.333,N
665,-0.030,1.245,-0.120,141.667,94.444,291.667,705.556,2.778,N
666,0.050,1.300,-0.090,150.000,91.667,297.222,725.000,19.444,N
667,0.025,1.340,-0.105,152.778,94.444,319.444,730.556,5.556,N
668,-0.015,1.260,-0.085,150.000,97.222,336.111,752.778,22.222,N
669,0.035,1.295,-0.080,147.222,94.444,305.556,744.444,8.333,N
670,0.050,1.245,-0.100,144.444,91.667,297.222,727.778,16.667,N
671,-0.060,1.155,-0.195,144.444,97.222,305.556,688.889,38.889,N
672,-0.085,1.155,-0.115,147.222,94.444,300.000,688.889,0.000,N
673,-0.115,0.875,0.215,186.111,83.333,305.556,483.333,205.556,V
674,0.055,1.280,0.060,133.333,113.889,344.444,947.222,463.889,N
675,-0.060,1.240,-0.190,152.778,100.000,325.000,750.000,197.222,N
676,-0.095,1.200,-0.150,158.333,97.222,325.000,730.556,19.444,N
677,-0.065,1.195,-0.150,150.000,97.222,302.778,738.889,8.333,N
678,-0.055,1.290,-0.075,147.222,100.000,313.889,713.889,25.000,N
679,0.085,1.275,-0.050,147.222,94.444,297.222,727.778,13.889,N
680,-0.025,1.270,-0.160,141.667,97.222,305.556,688.889,38.889,N
681,-0.095,1.095,-0.160,141.667,86.111,291.667,691.667,2.778,N
682,-0.105,1.120,-0.165,144.444,91.667,300.000,691.667,0.000,N
683,-0.180,1.225,-0.245,150.000,97.222,305.556,733.333,41.667,N
684,-0.145,1.135,-0.235,158.333,100.000,325.000,750.000,16.667,N
685,-0.095,1.190,0.025,155.556,97.222,272.222,741.667,8.333,N
686,-0.055,1.210,-0.130,147.222,94.444,325.000,733.333,8.333,N
687,-0.095,1.085,-0.180,141.667,88.889,297.222,713.889,19.444,N
688,-0.065,1.185,-0.185,144.444,97.222,297.222,675.000,38.889,N
689,-0.025,1.360,-0.190,152.778,94.444,316.667,705.556,30.556,N
690,-0.070,1.175,-0.195,138.889,94.444,305.556,713.889,8.333,N
691,-0.095,1.235,-0.160,147.222,91.667,300.000,713.889,0.000,N
692,-0.060,1.175,-0.160,155.556,94.444,313.889,708.333,5.556,N
693,-0.075,1.250,-0.160,158.333,97.222,330.556,741.667,33.333,N
694,-0.045,1.280,-0.155,147.222,88.889,319.444,725.000,16.667,N
695,-0.060,1.275,-0.075,147.222,94.444,297.222,722.222,2.778,N
696,0.030,1.320,-0.100,144.444,111.111,302.778,719.444,2.778,N
697,-0.010,1.230,-0.125,144.444,94.444,291.667,680.556,38.889,N
698,-0.055,1.225,-0.165,144.444,91.667,300.000,683.333,2.778,N
699,-0.095,1.275,-0.140,147.222,94.444,327.778,716.667,33.333,N
700,-0.015,1.275,-0.090,163.889,105.556,327.778,761.111,44.444,N
701,-0.020,1.330,-0.160,155.556,94.444,327.778,733.333,27.778,N
702,-0.065,1.245,-0.140,147.222,108.333,327.778,730.556,2.778,N
703,-0.055,1.260,-0.170,150.000,97.222,302.778,727.778,2.778,N
704,-0.085,1.255,-0.150,138.889,86.111,288.889,708.333,19.444,N
705,-0.055,1.280,-0.140,147.222,94.444,297.222,694.444,13.889,N
706,-0.040,1.225,-0.140,147.222,91.667,313.889,708.333,13.889,N
707,-0.040,1.280,-0.125,141.667,94.444,313.889,708.333,0.000,N
708,-0.035,1.300,-0.075,155.556,91.667,308.333,725.000,16.667,N
709,0.015,1.285,-0.090,147.222,91.667,313.889,730.556,5.556,N
710,0.020,1.310,-0.060,155.556,94.444,333.333,763.889,33.333,N
711,0.015,1.270,-0.085,147.222,97.222,311.111,744.444,19.444,N
712,0.025,1.315,-0.075,147.222,97.222,288.889,716.667,27.778,N
713,-0.015,1.245,-0.110,144.444,91.667,283.333,691.667,25.000,N
714,-0.045,1.280,-0.130,144.444,94.444,308.333,688.889,2.778,N
715,-0.030,1.250,-0.140,147.222,94.444,322.222,697.222,8.333,N
716,-0.045,1.285,-0.110,150.000,102.778,344.444,738.889,41.667,N
717,-0.020,1.285,-0.150,152.778,100.000,322.222,755.556,16.667,N
718,-0.065,1.280,-0.120,144.444,100.000,327.778,741.667,13.889,N
719,-0.040,1.365,-0.125,144.444,94.444,319.444,736.111,5.556,N
720,-0.040,1.260,-0.130,147.222,97.222,311.111,730.556,5.556,N
721,-0.035,1.310,-0.070,150.000,116.667,327.778,722.222,8.333,N
722,0.030,1.355,-0.065,150.000,91.667,300.000,702.778,19.444,N
723,0.025,1.360,-0.065,144.444,88.889,322.222,691.667,11.111,N
724,0.005,1.345,-0.065,152.778,113.889,336.111,711.111,19.444,N
725,0.000,1.235,-0.080,147.222,97.222,311.111,741.667,30.556,N
726,0.045,1.260,-0.135,155.556,88.889,308.333,755.556,13.889,N
727,-0.020,1.245,-0.185,150.000,97.222,308.333,747.222,8.333,N
728,-0.025,1.245,-0.185,147.222,94.444,305.556,716.667,30.556,N
729,-0.090,1.215,-0.200,141.667,91.667,283.333,705.556,11.111,N
730,-0.065,1.195,-0.110,144.444,91.667,291.667,686.111,19.444,N
731,0.000,1.255,-0.085,150.000,91.667,313.889,713.889,27.778,N
732,0.035,1.220,-0.080,141.667,91.667,322.222,702.778,11.111,N
733,0.060,1.275,-0.050,147.222,94.444,311.111,722.222,19.444,N
734,0.040,1.340,0.020,147.222,91.667,311.111,725.000,2.778,N
735,0.070,1.320,-0.025,158.333,94.444,311.111,752.778,27.778,N
736,0.075,1.330,-0.035,150.000,94.444,313.889,733.333,19.444,N
737,0.055,1.355,-0.050,141.667,102.778,319.444,713.889,19.444,N
738,0.035,1.355,-0.080,141.667,94.444,288.889,705.556,8.333,N
739,0.005,1.230,-0.070,141.667,102.778,311.111,694.444,11.111,N
740,0.025,1.310,-0.075,144.444,94.444,302.778,688.889,5.556,N
741,0.000,1.300,-0.110,155.556,102.778,336.111,727.778,38.889,N
742,-0.020,1.235,-0.125,155.556,100.000,308.333,761.111,33.333,N
743,-0.055,1.280,-0.125,161.111,97.222,308.333,747.222,13.889,N
744,-0.035,1.290,-0.105,152.778,100.000,316.667,722.222,25.000,N
745,0.025,1.280,-0.090,150.000,97.222,305.556,727.778,5.556,N
746,0.010,1.230,-0.050,141.667,94.444,302.778,697.222,30.556,N
747,0.050,1.335,-0.015,144.444,97.222,305.556,702.778,5.556,N
748,0.045,1.370,-0.030,147.222,94.444,305.556,713.889,11.111,N
749,0.055,1.380,-0.055,147.222,97.222,325.000,716.667,2.778,N
750,0.025,1.285,-0.050,150.000,97.222,311.111,736.111,19.444,N
751,0.030,1.275,-0.080,158.333,94.444,327.778,744.444,8.333,N
752,0.000,1.230,-0.090,158.333,94.444,325.000,766.667,22.222,N
753,-0.025,1.200,-0.125,155.556,108.333,322.222,733.333,33.333,N
754,-0.030,1.250,-0.125,144.444,94.444,288.889,702.778,30.556,N
755,-0.010,1.275,-0.080,138.889,88.889,311.111,694.444,8.333,N
756,0.000,1.255,-0.110,144.444,113.889,308.333,708.333,13.889,N
757,-0.025,1.260,-0.105,152.778,97.222,313.889,711.111,2.778,N
758,-0.030,1.290,-0.100,161.111,97.222,344.444,752.778,41.667,N
759,-0.020,1.320,-0.115,147.222,94.444,308.333,750.000,2.778,N
760,-0.025,1.255,-0.125,158.333,94.444,311.111,744.444,5.556,N
761,-0.055,1.250,-0.150,152.778,100.000,322.222,730.556,13.889,N
762,-0.065,1.200,-0.160,152.778,94.444,305.556,738.889,8.333,N
763,-0.080,1.200,-0.170,147.222,108.333,311.111,711.111,27.778,N
764,-0.095,1.205,-0.170,141.667,91.667,305.556,705.556,5.556,N
765,-0.065,1.255,-0.170,147.222,100.000,308.333,708.333,2.778,N
766,-0.100,1.210,-0.150,150.000,97.222,322.222,730.556,22.222,N
767,-0.150,1.775,-0.220,172.222,94.444,350.000,455.556,275.000,V
768,-0.050,1.180,0.145,150.000,116.667,355.556,1044.444,588.889,N
769,0.045,1.335,-0.020,136.111,77.778,302.778,750.000,294.444,N
770,-0.015,1.200,-0.070,138.889,97.222,297.222,708.333,41.667,N
771,-0.035,1.100,-0.165,158.333,91.667,358.333,688.889,19.444,N
772,0.105,1.255,-0.115,150.000,116.667,338.889,705.556,16.667,N
773,-0.175,1.080,-0.260,144.444,83.333,305.556,711.111,5.556,N
774,-0.190,1.030,-0.310,152.778,94.444,316.667,711.111,0.000,N
775,-0.210,1.320,-0.195,150.000,111.111,338.889,722.222,11.111,N
776,-0.130,1.195,-0.220,150.000,108.333,344.444,727.778,5.556,N
777,-0.110,1.190,-0.165,127.778,88.889,313.889,733.333,5.556,N
778,-0.075,1.210,-0.140,150.000,94.444,300.000,727.778,5.556,N
779,-0.055,1.245,-0.105,152.778,97.222,297.222,705.556,22.222,N
780,-0.050,1.260,-0.145,138.889,94.444,300.000,680.556,25.000,N
781,-0.050,1.240,-0.090,144.444,116.667,322.222,694.444,13.889,N
782,-0.010,1.325,-0.095,155.556,94.444,313.889,708.333,13.889,N
783,-0.055,1.295,-0.145,158.333,97.222,325.000,738.889,30.556,N
784,-0.020,1.260,-0.110,155.556,102.778,322.222,744.444,5.556,N
785,-0.010,1.350,-0.070,150.000,97.222,308.333,741.667,2.778,N
786,-0.055,1.295,-0.120,147.222,97.222,302.778,716.667,25.000,N
787,-0.015,1.265,-0.090,158.333,94.444,291.667,708.333,8.333,N
788,-0.025,1.300,-0.075,150.000,97.222,308.333,691.667,16.667,N
789,0.000,1.330,-0.070,147.222,100.000,308.333,700.000,8.333,N
790,-0.030,1.255,-0.130,147.222,113.889,311.111,713.889,13.889,N
791,-0.010,1.380,-0.135,155.556,108.333,327.778,727.778,13.889,N
792,-0.010,1.325,-0.085,147.222,94.444,308.333,722.222,5.556,N
793,-0.095,1.250,-0.145,166.667,94.444,327.778,747.222,25.000,N
794,-0.090,1.215,-0.195,155.556,102.778,305.556,758.333,11.111,N
795,0.150,1.305,-0.050,130.556,91.667,291.667,722.222,36.111,N
796,-0.010,1.320,-0.130,138.889,102.778,308.333,677.778,44.444,N
797,-0.090,1.200,-0.180,141.667,94.444,308.333,688.889,11.111,N
798,-0.045,1.270,-0.060,144.444,94.444,305.556,702.778,13.889,N
799,0.010,1.370,-0.065,150.000,97.222,308.333,725.000,22.222,N
800,-0.010,1.325,-0.080,163.889,100.000,338.889,750.000,25.000,N
801,-0.030,1.280,-0.130,155.556,100.000,322.222,750.000,0.000,N
802,-0.085,1.260,-0.125,147.222,100.000,305.556,733.333,16.667,N
803,-0.045,1.290,-0.145,150.000,100.000,308.333,733.333,0.000,N
804,-0.060,1.265,-0.150,155.556,94.444,294.444,736.111,2.778,N
805,-0.075,1.245,-0.130,147.222,100.000,305.556,697.222,38.889,N
806,-0.065,1.225,-0.125,144.444,94.444,291.667,691.667,5.556,N
807,-0.030,1.265,-0.085,144.444,94.444,308.333,716.667,25.000,N
808,-0.010,1.340,-0.060,158.333,94.444,308.333,750.000,33.333,N
809,-0.025,1.265,-0.100,158.333,97.222,316.667,750.000,0.000,N
810,-0.040,1.235,-0.085,166.667,97.222,333.333,761.111,11.111,N
811,0.005,1.290,-0.095,144.444,94.444,305.556,738.889,22.222,N
812,-0.050,1.210,-0.135,144.444,88.889,291.667,713.889,25.000,N
813,-0.080,1.110,0.145,138.889,94.444,313.889,688.889,25.000,N
814,0.280,1.320,0.050,158.333,94.444,333.333,725.000,36.111,N
815,0.145,1.290,-0.055,147.222,113.889,330.556,716.667,8.333,N
816,-0.120,1.185,-0.170,155.556,105.556,316.667,736.111,19.444,N
817,0.035,1.270,-0.110,161.111,97.222,322.222,741.667,5.556,N
818,-0.035,1.270,-0.145,158.333,97.222,316.667,741.667,0.000,N
819,-0.085,1.235,-0.200,152.778,97.222,322.222,725.000,16.667,N
820,-0.155,1.210,-0.210,144.444,91.667,305.556,725.000,0.000,N
821,-0.115,1.225,-0.205,147.222,94.444,294.444,722.222,2.778,N
822,-0.125,1.225,-0.220,147.222,94.444,302.778,686.111,36.111,N
823,-0.155,1.120,-0.230,144.444,94.444,308.333,697.222,11.111,N
824,-0.125,1.240,-0.180,161.111,97.222,322.222,736.111,38.889,N
825,-0.115,1.250,-0.150,163.889,102.778,325.000,769.444,33.333,N
826,-0.085,1.200,-0.175,161.111,91.667,330.556,752.778,16.667,N
827,-0.115,1.210,-0.160,138.889,91.667,313.889,733.333,19.444,N
828,-0.080,1.265,-0.175,144.444,97.222,311.111,725.000,8.333,N
829,-0.100,1.200,-0.180,136.111,91.667,294.444,708.333,16.667,N
830,-0.090,1.225,-0.055,152.778,94.444,300.000,713.889,5.556,N
831,-0.040,1.355,-0.130,152.778,94.444,308.333,722.222,8.333,N
832,-0.065,1.315,-0.140,155.556,91.667,316.667,713.889,8.333,N
833,-0.085,1.280,-0.165,147.222,94.444,311.111,741.667,27.778,N
834,-0.055,1.275,-0.115,147.222,97.222,336.111,752.778,11.111,N
835,-0.055,1.335,-0.115,158.333,100.000,325.000,772.222,19.444,N
836,-0.075,1.270,-0.175,150.000,94.444,319.444,730.556,41.667,N
837,-0.100,1.225,-0.150,141.667,113.889,311.111,708.333,22.222,N
838,-0.050,1.295,-0.095,141.667,91.667,294.444,694.444,13.889,N
839,-0.025,1.325,-0.100,152.778,97.222,305.556,713.889,19.444,N
840,-0.060,1.340,-0.130,152.778,97.222,322.222,713.889,0.000,N
841,-0.040,1.260,-0.115,161.111,111.111,344.444,744.444,30.556,N
842,-0.025,1.280,-0.025,152.778,100.000,322.222,761.111,16.667,N
843,-0.015,1.365,-0.250,136.111,97.222,155.556,747.222,13.889,N
844,-0.055,1.170,-0.040,155.556,88.889,297.222,722.222,25.000,N
845,-0.040,1.250,-0.105,141.667,108.333,316.667,719.444,2.778,N
846,0.010,1.220,-0.015,144.444,94.444,300.000,713.889,5.556,N
847,-0.335,1.210,-0.160,127.778,113.889,313.889,705.556,8.333,N
848,-0.100,1.200,-0.150,150.000,97.222,311.111,700.000,5.556,N
849,-0.090,1.245,-0.180,147.222,100.000,347.222,730.556,30.556,N
850,-0.040,1.175,-0.175,152.778,97.222,338.889,747.222,16.667,N
851,-0.125,1.305,-0.210,150.000,100.000,325.000,758.333,11.111,N
852,-0.155,1.200,-0.215,155.556,91.667,294.444,758.333,0.000,N
853,-0.145,1.145,-0.170,147.222,97.222,305.556,722.222,36.111,N
854,-0.115,1.210,-0.200,138.889,97.222,302.778,688.889,33.333,N
855,-0.160,1.205,-0.260,152.778,97.222,311.111,711.111,22.222,N
856,-0.195,1.120,-0.220,158.333,94.444,308.333,730.556,19.444,N
857,-0.075,1.255,-0.125,158.333,97.222,311.111,730.556,0.000,N
858,-0.015,1.305,-0.105,155.556,91.667,330.556,733.333,2.778,N
859,-0.010,1.315,-0.065,152.778,94.444,325.000,750.000,16.667,N
860,0.040,1.315,-0.025,141.667,91.667,311.111,747.222,2.778,N
861,0.040,1.355,-0.080,150.000,97.222,305.556,727.778,19.444,N
862,-0.035,1.290,-0.155,158.333,97.222,305.556,730.556,2.778,N
863,-0.080,1.195,-0.175,138.889,111.111,325.000,697.222,33.333,N
864,-0.095,1.225,-0.190,150.000,94.444,288.889,705.556,8.333,N
865,-0.115,1.180,-0.230,155.556,102.778,338.889,722.222,16.667,N
866,-0.160,1.215,-0.235,161.111,94.444,325.000,772.222,50.000,N
867,-0.160,1.135,-0.215,158.333,94.444,327.778,747.222,25.000,N
868,-0.135,1.180,-0.220,150.000,94.444,313.889,747.222,0.000,N
869,-0.140,1.175,-0.205,144.444,91.667,300.000,725.000,22.222,N
870,-0.100,1.200,-0.115,144.444,94.444,294.444,713.889,11.111,N
871,-0.065,1.320,0.075,150.000,113.889,327.778,705.556,8.333,N
872,0.190,0.990,-0.030,133.333,94.444,163.889,722.222,16.667,N
873,-0.075,1.285,0.035,150.000,116.667,366.667,716.667,5.556,N
874,-0.015,1.255,-0.005,133.333,108.333,338.889,738.889,22.222,N
875,-0.030,1.255,-0.040,138.889,113.889,341.667,741.667,2.778,N
876,-0.065,1.050,-0.120,172.222,116.667,327.778,766.667,25.000,N
877,-0.245,1.340,0.080,75.000,91.667,325.000,736.111,30.556,N
878,0.750,-0.800,1.130,36.111,2.778,252.778,455.556,280.556,|
879,-0.140,1.120,0.000,144.444,116.667,305.556,255.556,200.000,N
880,-0.160,1.265,0.085,183.333,116.667,311.111,700.000,444.444,N
881,-0.190,1.110,-0.140,130.556,91.667,316.667,705.556,5.556,N
882,-0.150,1.205,-0.225,150.000,91.667,327.778,702.778,2.778,N
883,-0.145,1.125,-0.240,155.556,97.222,330.556,750.000,47.222,N
884,-0.105,1.170,-0.225,150.000,94.444,313.889,761.111,11.111,N
885,-0.130,1.210,-0.270,152.778,97.222,322.222,747.222,13.889,N
886,-0.185,1.125,-0.185,144.444,94.444,308.333,727.778,19.444,N
887,-0.095,1.270,-0.150,147.222,94.444,313.889,730.556,2.778,N
888,-0.095,1.290,-0.160,141.667,91.667,294.444,713.889,16.667,N
889,-0.100,1.210,-0.215,147.222,91.667,302.778,708.333,5.556,N
890,-0.075,1.200,-0.165,150.000,97.222,305.556,702.778,5.556,N
891,-0.040,1.290,-0.130,152.778,97.222,333.333,722.222,19.444,N
892,-0.075,1.295,-0.145,150.000,97.222,322.222,747.222,25.000,N
893,-0.085,1.215,-0.165,147.222,97.222,325.000,761.111,13.889,N
894,-0.165,1.800,-0.200,186.111,102.778,372.222,472.222,288.889,V
895,-0.020,1.225,0.005,144.444,94.444,313.889,1005.556,533.333,N
896,-0.045,1.190,-0.190,147.222,97.222,305.556,708.333,297.222,N
897,-0.065,1.200,-0.160,144.444,94.444,308.333,694.444,13.889,N
898,-0.060,1.265,-0.165,150.000,94.444,316.667,727.778,33.333,N
899,-0.085,1.215,-0.175,158.333,97.222,313.889,738.889,11.111,N
900,-0.105,1.220,-0.155,144.444,94.444,322.222,733.333,5.556,N
901,-0.060,1.250,-0.140,152.778,94.444,325.000,747.222,13.889,N
902,-0.055,1.275,-0.150,147.222,94.444,302.778,755.556,8.333,N
903,-0.090,1.210,-0.140,144.444,94.444,308.333,730.556,25.000,N
904,-0.055,1.250,-0.120,147.222,97.222,305.556,722.222,8.333,N
905,-0.060,1.290,-0.165,147.222,91.667,300.000,702.778,19.444,N
906,-0.100,1.190,-0.160,141.667,91.667,302.778,705.556,2.778,N
907,-0.040,1.265,-0.115,152.778,97.222,319.444,711.111,5.556,N
908,-0.040,1.280,-0.125,161.111,102.778,338.889,772.222,61.111,N
909,-0.055,1.275,-0.125,152.778,97.222,333.333,761.111,11.111,N
910,-0.040,1.285,-0.105,147.222,97.222,305.556,747.222,13.889,N
911,0.000,1.305,-0.030,144.444,94.444,308.333,730.556,16.667,N
912,0.005,1.340,-0.095,150.000,97.222,300.000,722.222,8.333,N
913,-0.020,1.240,-0.100,147.222,94.444,305.556,700.000,22.222,N
914,-0.015,1.280,-0.110,147.222,94.444,311.111,711.111,11.111,N
915,-0.015,1.290,-0.095,144.444,91.667,305.556,730.556,19.444,N
916,-0.025,1.300,-0.100,155.556,94.444,305.556,750.000,19.444,N
917,-0.025,1.305,-0.105,155.556,100.000,322.222,741.667,8.333,N
918,0.020,1.260,0.120,161.111,97.222,344.444,769.444,27.778,N
919,0.025,1.345,0.025,147.222,88.889,302.778,747.222,22.222,N
920,0.025,1.855,-0.050,127.778,100.000,338.889,391.667,355.556,V
921,-0.005,1.285,0.230,141.667,94.444,311.111,1000.000,608.333,N
922,0.005,1.220,-0.020,147.222,94.444,305.556,702.778,297.222,N
923,0.020,1.360,0.010,147.222,94.444,338.889,702.778,0.000,N
924,-0.080,1.250,-0.095,147.222,83.333,319.444,730.556,27.778,N
925,0.000,1.225,-0.175,163.889,97.222,336.111,772.222,41.667,N
926,0.110,1.365,-0.070,155.556,116.667,347.222,741.667,30.556,N
927,-0.020,1.250,-0.075,144.444,94.444,311.111,716.667,25.000,N
928,-0.080,1.265,-0.175,152.778,100.000,308.333,725.000,8.333,N
929,-0.115,1.200,-0.175,147.222,116.667,325.000,716.667,8.333,N
930,-0.090,1.300,-0.040,150.000,116.667,338.889,700.000,16.667,N
931,-0.040,1.305,-0.160,138.889,91.667,300.000,686.111,13.889,N
932,-0.100,1.280,-0.120,147.222,97.222,322.222,711.111,25.000,N
933,-0.040,1.260,-0.080,144.444,94.444,325.000,744.444,33.333,N
934,-0.020,1.380,-0.065,152.778,100.000,319.444,744.444,0.000,N
935,-0.065,1.830,-0.155,144.444,100.000,358.333,422.222,322.222,V
936,0.010,1.350,0.040,130.556,108.333,341.667,1033.333,611.111,N
937,0.000,1.290,-0.085,141.667,94.444,311.111,713.889,319.444,N
938,-0.015,1.305,-0.095,144.444,97.222,311.111,686.111,27.778,N
939,-0.050,1.275,-0.140,144.444,94.444,325.000,700.000,13.889,N
940,-0.050,1.305,-0.095,144.444,94.444,313.889,716.667,16.667,N
941,-0.020,1.355,-0.070,150.000,94.444,305.556,736.111,19.444,N
942,-0.035,1.285,-0.075,158.333,97.222,313.889,730.556,5.556,N
943,-0.015,1.320,-0.065,155.556,97.222,313.889,730.556,0.000,N
944,-0.030,1.285,-0.130,147.222,97.222,311.111,722.222,8.333,N
945,-0.095,1.260,-0.150,141.667,91.667,294.444,711.111,11.111,N
946,0.010,1.260,-0.135,141.667,94.444,291.667,700.000,11.111,N
947,-0.095,1.230,-0.135,144.444,86.111,305.556,686.111,13.889,N
948,-0.090,1.245,-0.120,138.889,97.222,302.778,694.444,8.333,N
949,-0.105,1.235,-0.150,150.000,97.222,338.889,727.778,33.333,N
950,-0.105,1.235,-0.165,155.556,94.444,311.111,761.111,33.333,N
951,-0.100,1.280,-0.120,152.778,113.889,358.333,741.667,19.444,N
952,-0.075,1.195,-0.220,152.778,100.000,319.444,719.444,22.222,N
953,-0.185,1.170,-0.245,147.222,94.444,308.333,708.333,11.111,N
954,-0.125,1.175,-0.070,138.889,100.000,302.778,708.333,0.000,N
955,0.015,1.275,-0.135,155.556,116.667,322.222,697.222,11.111,N
956,-0.095,1.225,-0.175,152.778,91.667,316.667,702.778,5.556,N
957,-0.105,1.220,-0.075,150.000,97.222,305.556,711.111,8.333,N
958,-0.060,1.155,-0.155,147.222,97.222,322.222,733.333,22.222,N
959,-0.045,1.140,-0.130,152.778,113.889,344.444,733.333,0.000,N
960,-0.070,1.090,-0.170,158.333,91.667,327.778,761.111,27.778,N
961,-0.040,1.280,-0.155,144.444,94.444,316.667,722.222,38.889,N
962,0.030,1.300,-0.055,127.778,94.444,300.000,697.222,25.000,N
963,-0.015,1.195,-0.180,141.667,91.667,294.444,680.556,16.667,N
964,-0.140,1.160,-0.205,144.444,91.667,308.333,700.000,19.444,N
965,-0.125,1.130,-0.170,144.444,94.444,327.778,700.000,0.000,N
966,-0.070,1.245,-0.130,152.778,100.000,325.000,744.444,44.444,N
967,-0.030,1.280,-0.130,150.000,94.444,316.667,766.667,22.222,N
968,-0.050,1.295,-0.105,155.556,94.444,313.889,736.111,30.556,N
969,-0.020,1.295,-0.090,144.444,91.667,311.111,716.667,19.444,N
970,-0.005,1.310,-0.090,147.222,97.222,305.556,711.111,5.556,N
971,0.015,1.335,-0.055,147.222,94.444,300.000,719.444,8.333,N
972,0.010,1.300,-0.075,147.222,100.000,308.333,697.222,22.222,N
973,-0.040,1.235,-0.100,136.111,94.444,311.111,686.111,11.111,N
974,0.025,1.255,-0.075,150.000,100.000,327.778,727.778,41.667,N
975,-0.050,1.240,-0.145,150.000,97.222,322.222,738.889,11.111,N
976,-0.090,1.215,-0.165,158.333,94.444,311.111,758.333,19.444,N
977,-0.105,1.215,-0.205,161.111,100.000,325.000,755.556,2.778,N
978,-0.145,1.165,-0.200,147.222,94.444,311.111,711.111,44.444,N
979,-0.120,1.180,-0.190,138.889,91.667,297.222,694.444,16.667,N
980,-0.110,1.240,-0.175,150.000,94.444,311.111,705.556,11.111,N
981,-0.045,1.240,-0.105,155.556,102.778,319.444,730.556,25.000,N
982,-0.035,1.320,-0.110,150.000,97.222,322.222,725.000,5.556,N
983,-0.110,1.860,-0.195,191.667,102.778,386.111,475.000,250.000,V
984,-0.070,1.205,-0.075,147.222,97.222,322.222,1025.000,550.000,N
985,-0.155,1.135,-0.195,155.556,97.222,308.333,752.778,272.222,N
986,-0.085,1.215,-0.170,155.556,97.222,308.333,727.778,25.000,N
987,-0.225,1.220,-0.070,172.222,116.667,322.222,727.778,0.000,N
988,-0.010,1.130,-0.135,130.556,88.889,291.667,700.000,27.778,N
989,-0.090,1.135,-0.185,144.444,94.444,308.333,705.556,5.556,N
990,-0.095,1.170,-0.165,152.778,100.000,327.778,722.222,16.667,N
991,-0.115,1.245,-0.205,155.556,100.000,341.667,766.667,44.444,N
992,-0.120,1.225,-0.170,147.222,97.222,325.000,763.889,2.778,N
993,-0.100,1.185,-0.160,155.556,94.444,308.333,761.111,2.778,N
994,-0.095,1.170,-0.165,150.000,94.444,291.667,736.111,25.000,N
995,-0.125,1.180,-0.205,150.000,91.667,305.556,711.111,25.000,N
996,-0.160,1.210,-0.170,144.444,97.222,308.333,708.333,2.778,N
997,-0.095,1.210,-0.150,147.222,94.444,316.667,727.778,19.444,N
998,-0.105,1.200,-0.170,150.000,94.444,308.333,736.111,8.333,N
999,-0.110,1.205,-0.200,158.333,94.444,311.111,750.000,13.889,N
1000,-0.140,1.175,-0.195,155.556,94.444,322.222,750.000,0.000,N
1001,-0.115,1.210,-0.175,158.333,94.444,322.222,769.444,19.444,N
1002,-0.085,1.250,-0.165,152.778,91.667,297.222,758.333,11.111,N
1003,-0.090,1.175,-0.140,141.667,91.667,294.444,719.444,38.889,N
1004,-0.050,1.265,-0.100,144.444,94.444,297.222,700.000,19.444,N
1005,-0.040,1.270,-0.125,144.444,97.222,322.222,708.333,8.333,N
1006,-0.075,1.240,-0.125,150.000,91.667,313.889,725.000,16.667,N
1007,-0.050,1.290,-0.175,152.778,100.000,338.889,761.111,36.111,N
1008,-0.130,1.155,-0.230,163.889,97.222,322.222,783.333,22.222,N
1009,-0.190,1.205,-0.220,150.000,94.444,316.667,763.889,19.444,N
1010,-0.120,1.145,-0.180,152.778,94.444,313.889,741.667,22.222,N
1011,-0.110,1.185,-0.155,152.778,97.222,311.111,733.333,8.333,N
1012,-0.110,1.150,-0.190,147.222,91.667,305.556,736.111,2.778,N
1013,-0.055,1.260,-0.145,150.000,97.222,302.778,722.222,13.889,N
1014,-0.075,1.300,-0.140,147.222,94.444,319.444,700.000,22.222,N
1015,-0.060,1.265,-0.145,155.556,94.444,311.111,744.444,44.444,N
1016,-0.085,1.245,-0.140,152.778,94.444,333.333,763.889,19.444,N
1017,-0.040,1.225,-0.090,155.556,94.444,313.889,766.667,2.778,N
1018,-0.015,1.305,-0.090,155.556,97.222,316.667,763.889,2.778,N
1019,-0.025,1.320,-0.095,147.222,97.222,308.333,725.000,38.889,N
1020,-0.025,1.220,-0.145,141.667,91.667,291.667,697.222,27.778,N
1021,-0.100,1.235,-0.185,155.556,94.444,311.111,713.889,16.667,N
1022,-0.140,1.215,-0.210,152.778,97.222,316.667,744.444,30.556,N
1023,-0.125,1.230,-0.140,155.556,97.222,322.222,730.556,13.889,N
1024,-0.080,1.275,-0.140,155.556,100.000,333.333,744.444,13.889,N
1025,-0.090,1.265,-0.150,155.556,100.000,325.000,758.333,13.889,N
1026,-0.080,1.260,-0.125,150.000,100.000,319.444,752.778,5.556,N
1027,-0.035,1.330,-0.115,150.000,94.444,302.778,733.333,19.444,N
1028,-0.040,1.310,-0.120,152.778,100.000,305.556,730.556,2.778,N
1029,-0.060,1.290,-0.145,141.667,97.222,297.222,705.556,25.000,N
1030,-0.055,1.280,-0.110,144.444,94.444,305.556,705.556,0.000,N
1031,-0.030,1.330,-0.105,150.000,97.222,325.000,736.111,30.556,N
1032,-0.055,1.350,-0.110,163.889,97.222,322.222,783.333,47.222,N
1033,-0.065,1.300,-0.115,152.778,97.222,322.222,750.000,33.333,N
1034,-0.025,1.340,-0.110,150.000,97.222,322.222,750.000,0.000,N
1035,-0.025,1.335,-0.080,141.667,91.667,308.333,727.778,22.222,N
1036,-0.020,1.325,-0.095,141.667,94.444,294.444,711.111,16.667,N
1037,-0.030,1.245,-0.120,147.222,94.444,305.556,705.556,5.556,N
1038,-0.065,1.335,-0.125,152.778,100.000,325.000,725.000,19.444,N
1039,-0.055,1.315,-0.125,150.000,97.222,322.222,730.556,5.556,N
1040,-0.125,1.920,-0.205,166.667,102.778,377.778,450.000,280.556,V
1041,-0.035,1.260,-0.005,152.778,100.000,344.444,1038.889,588.889,N
1042,-0.065,1.170,-0.210,158.333,94.444,325.000,772.222,266.667,N
1043,-0.115,1.220,-0.120,144.444,91.667,308.333,730.556,41.667,N
1044,-0.050,1.250,-0.160,141.667,94.444,291.667,719.444,11.111,N
1045,-0.090,1.230,-0.170,144.444,116.667,311.111,691.667,27.778,N
1046,-0.105,1.245,-0.185,152.778,100.000,311.111,700.000,8.333,N
1047,-0.075,1.295,-0.145,150.000,97.222,338.889,713.889,13.889,N
1048,-0.095,1.265,-0.150,155.556,100.000,336.111,755.556,41.667,N
1049,-0.095,1.265,-0.170,147.222,94.444,305.556,758.333,2.778,N
1050,-0.090,1.260,-0.150,152.778,97.222,319.444,738.889,19.444,N
1051,-0.065,1.310,-0.110,141.667,94.444,325.000,725.000,13.889,N
1052,-0.045,1.260,-0.140,152.778,97.222,319.444,725.000,0.000,N
1053,-0.090,1.280,-0.140,138.889,100.000,305.556,719.444,5.556,N
1054,-0.045,1.330,-0.130,144.444,97.222,308.333,711.111,8.333,N
1055,-0.035,1.345,-0.085,155.556,100.000,319.444,705.556,5.556,N
1056,-0.035,1.355,-0.100,152.778,100.000,338.889,730.556,25.000,N
1057,-0.045,1.305,-0.125,152.778,94.444,322.222,752.778,22.222,N
1058,-0.020,1.295,-0.110,155.556,94.444,327.778,769.444,16.667,N
1059,-0.020,1.350,-0.100,155.556,100.000,302.778,747.222,22.222,N
1060,-0.085,1.300,-0.130,147.222,97.222,305.556,711.111,36.111,N
1061,-0.085,1.125,-0.070,138.889,94.444,308.333,697.222,13.889,N
1062,0.050,1.330,0.145,144.444,97.222,311.111,700.000,2.778,N
1063,0.270,1.695,0.110,147.222,94.444,288.889,733.333,33.333,N
1064,-0.125,1.145,-0.165,155.556,113.889,327.778,725.000,8.333,N
1065,-0.035,1.335,-0.005,144.444,113.889,352.778,733.333,8.333,N
1066,0.195,1.380,-0.230,144.444,111.111,386.111,741.667,8.333,N
1067,0.070,1.200,0.035,141.667,116.667,350.000,744.444,2.778,N
1068,-0.040,1.165,-0.040,147.222,97.222,305.556,719.444,25.000,N
1069,-0.045,1.205,-0.070,144.444,111.111,322.222,700.000,19.444,N
1070,-0.155,1.210,-0.145,144.444,111.111,319.444,702.778,2.778,N
1071,-0.040,1.225,-0.115,141.667,105.556,308.333,711.111,8.333,N
1072,-0.090,1.180,-0.170,147.222,111.111,338.889,705.556,5.556,N
1073,-0.120,1.135,-0.180,158.333,94.444,330.556,763.889,58.333,N
1074,-0.070,1.170,-0.210,150.000,102.778,325.000,758.333,5.556,N
1075,-0.110,1.220,-0.170,150.000,116.667,338.889,750.000,8.333,N
1076,-0.130,1.170,-0.180,150.000,113.889,322.222,719.444,30.556,N
1077,-0.100,1.205,-0.135,144.444,94.444,305.556,708.333,11.111,N
1078,-0.065,1.220,-0.165,138.889,100.000,325.000,691.667,16.667,N
1079,-0.070,1.250,-0.110,141.667,91.667,313.889,711.111,19.444,N
1080,-0.020,1.285,-0.045,141.667,105.556,325.000,741.667,30.556,N
1081,0.005,1.295,-0.070,152.778,88.889,325.000,733.333,8.333,N
1082,0.005,1.270,-0.110,150.000,94.444,319.444,725.000,8.333,N
1083,-0.060,1.160,-0.165,152.778,116.667,355.556,752.778,27.778,N
1084,-0.120,1.135,-0.205,141.667,91.667,300.000,752.778,0.000,N
1085,-0.150,1.100,-0.230,141.667,88.889,294.444,702.778,50.000,N
1086,-0.100,1.155,-0.195,136.111,116.667,341.667,675.000,27.778,N
1087,-0.075,1.245,-0.160,144.444,91.667,302.778,697.222,22.222,N
1088,-0.100,1.195,-0.135,141.667,91.667,305.556,702.778,5.556,N
1089,-0.060,1.200,-0.130,147.222,116.667,347.222,733.333,30.556,N
1090,-0.050,1.240,-0.140,155.556,105.556,341.667,758.333,25.000,N
1091,-0.045,1.225,-0.110,152.778,91.667,308.333,733.333,25.000,N
1092,-0.065,1.215,-0.130,138.889,111.111,338.889,730.556,2.778,N
1093,-0.080,1.195,-0.135,144.444,116.667,341.667,713.889,16.667,N
1094,-0.065,1.245,-0.140,147.222,86.111,291.667,719.444,5.556,N
1095,-0.035,1.245,-0.105,141.667,88.889,305.556,686.111,33.333,N
1096,-0.025,1.275,-0.095,136.111,113.889,322.222,694.444,8.333,N
1097,-0.020,1.255,-0.120,144.444,88.889,313.889,713.889,19.444,N
1098,-0.035,1.245,-0.150,152.778,86.111,311.111,738.889,25.000,N
1099,-0.090,1.190,-0.160,155.556,102.778,336.111,733.333,5.556,N
1100,-0.090,1.150,-0.150,150.000,111.111,355.556,741.667,8.333,N
1101,-0.095,1.215,-0.230,138.889,113.889,322.222,719.444,22.222,N
1102,-0.060,1.200,-0.185,136.111,111.111,322.222,697.222,22.222,N
1103,-0.090,1.160,-0.205,141.667,86.111,305.556,683.333,13.889,N
1104,-0.135,1.180,-0.190,144.444,116.667,341.667,702.778,19.444,N
1105,-0.070,1.215,-0.100,138.889,105.556,327.778,708.333,5.556,N
1106,-0.015,1.290,-0.070,150.000,94.444,325.000,736.111,27.778,N
1107,0.000,1.320,-0.025,150.000,100.000,338.889,727.778,8.333,N
1108,0.065,1.415,-0.020,152.778,111.111,336.111,730.556,2.778,N
1109,0.070,1.305,-0.105,138.889,108.333,341.667,722.222,8.333,N
1110,0.160,1.380,0.025,141.667,91.667,308.333,716.667,5.556,N
1111,0.125,1.350,-0.150,144.444,111.111,325.000,702.778,13.889,N
1112,0.010,1.210,0.195,138.889,94.444,311.111,683.333,19.444,N
1113,-0.025,1.070,-0.115,138.889,86.111,291.667,697.222,13.889,N
1114,-0.120,1.160,-0.090,138.889,108.333,333.333,708.333,11.111,N
1115,0.015,1.175,-0.055,155.556,113.889,355.556,755.556,47.222,N
1116,0.055,1.190,-0.135,150.000,113.889,336.111,747.222,8.333,N
1117,-0.020,1.200,-0.090,138.889,113.889,311.111,730.556,16.667,N
1118,-0.035,1.140,-0.105,144.444,111.111,308.333,694.444,36.111,N
1119,-0.050,1.160,-0.105,141.667,111.111,311.111,700.000,5.556,N
1120,-0.050,1.150,-0.125,147.222,113.889,322.222,688.889,11.111,N
1121,-0.070,1.130,-0.140,144.444,111.111,330.556,705.556,16.667,N
1122,-0.055,1.200,-0.155,147.222,113.889,327.778,725.000,19.444,N
1123,-0.070,1.100,-0.180,152.778,100.000,325.000,736.111,11.111,N
1124,-0.080,1.135,-0.165,147.222,108.333,355.556,727.778,8.333,N
1125,-0.040,1.180,-0.150,150.000,113.889,352.778,752.778,25.000,N
1126,-0.015,1.170,-0.145,141.667,116.667,333.333,741.667,11.111,N
1127,-0.050,1.160,-0.125,144.444,108.333,316.667,705.556,36.111,N
1128,-0.050,1.155,-0.115,138.889,100.000,322.222,675.000,30.556,N
1129,-0.015,1.240,-0.095,144.444,116.667,341.667,694.444,19.444,N
1130,0.005,1.155,-0.125,138.889,91.667,308.333,708.333,13.889,N
1131,-0.055,1.125,-0.145,144.444,105.556,341.667,730.556,22.222,N
1132,-0.060,1.130,-0.160,152.778,113.889,341.667,758.333,27.778,N
1133,-0.080,1.150,-0.180,150.000,116.667,341.667,736.111,22.222,N
1134,-0.075,1.225,-0.005,147.222,100.000,308.333,716.667,19.444,N
1135,0.020,1.230,-0.185,144.444,91.667,308.333,708.333,8.333,N
1136,-0.075,1.045,-0.345,147.222,94.444,311.111,719.444,11.111,N
1137,-0.315,0.860,-0.480,144.444,113.889,327.778,686.111,33.333,N
1138,-0.440,0.745,-0.490,136.111,102.778,325.000,691.667,5.556,N
1139,-0.375,0.915,-0.355,138.889,113.889,333.333,716.667,25.000,N
1140,-0.225,1.010,-0.180,155.556,116.667,333.333,738.889,22.222,N
1141,-0.035,1.185,-0.030,155.556,116.667,352.778,727.778,11.111,N
1142,0.100,1.315,0.060,150.000,111.111,336.111,741.667,13.889,N
1143,0.185,1.435,0.125,136.111,111.111,316.667,719.444,22.222,N
1144,0.125,2.015,0.095,144.444,91.667,358.333,413.889,305.556,V
1145,0.205,1.250,0.195,136.111,113.889,338.889,955.556,541.667,N
1146,0.135,1.270,-0.045,147.222,116.667,341.667,713.889,241.667,N
1147,0.015,1.270,-0.080,144.444,116.667,341.667,716.667,2.778,N
1148,-0.010,1.175,-0.170,152.778,113.889,336.111,730.556,13.889,N
1149,-0.120,1.070,-0.265,155.556,91.667,325.000,725.000,5.556,N
1150,-0.175,1.015,-0.270,147.222,113.889,347.222,725.000,0.000,N
1151,-0.120,1.065,-0.210,144.444,108.333,325.000,713.889,11.111,N
1152,-0.115,1.070,-0.210,141.667,86.111,297.222,713.889,0.000,N
1153,-0.090,1.125,-0.175,141.667,111.111,308.333,702.778,11.111,N
1154,-0.075,1.125,-0.160,141.667,111.111,322.222,683.333,19.444,N
1155,-0.050,1.115,-0.290,141.667,111.111,338.889,688.889,5.556,N
1156,-0.170,1.045,-0.305,152.778,97.222,316.667,719.444,30.556,N
1157,-0.220,1.075,-0.280,155.556,111.111,338.889,758.333,38.889,N
1158,-0.120,1.120,-0.185,150.000,100.000,330.556,736.111,22.222,N
1159,-0.110,1.165,-0.145,136.111,100.000,305.556,727.778,8.333,N
1160,-0.050,1.075,-0.175,141.667,97.222,305.556,697.222,30.556,N
1161,-0.055,1.210,-0.200,136.111,113.889,316.667,697.222,0.000,N
1162,-0.080,1.175,-0.245,147.222,116.667,330.556,691.667,5.556,N
1163,-0.125,1.070,-0.205,144.444,105.556,330.556,711.111,19.444,N
1164,-0.090,1.190,-0.205,136.111,113.889,338.889,711.111,0.000,N
1165,-0.135,1.065,-0.250,147.222,113.889,336.111,736.111,25.000,N
1166,-0.140,1.045,-0.245,152.778,108.333,347.222,730.556,5.556,N
1167,-0.110,1.075,-0.255,150.000,116.667,350.000,736.111,5.556,N
1168,-0.150,1.065,-0.255,141.667,105.556,325.000,725.000,11.111,N
1169,-0.150,1.045,-0.280,141.667,113.889,308.333,700.000,25.000,N
1170,-0.190,1.070,-0.315,136.111,111.111,305.556,669.444,30.556,N
1171,-0.115,1.115,-0.315,144.444,116.667,327.778,686.111,16.667,N
1172,-0.145,1.105,-0.265,144.444,116.667,341.667,697.222,11.111,N
1173,-0.110,1.200,-0.215,147.222,113.889,355.556,733.333,36.111,N
1174,0.120,1.190,-0.200,138.889,113.889,341.667,744.444,11.111,N
1175,-0.100,1.120,-0.200,152.778,91.667,313.889,727.778,16.667,N
1176,-0.095,1.045,-0.150,136.111,102.778,311.111,713.889,13.889,N
1177,0.005,1.055,0.110,144.444,80.556,277.778,694.444,19.444,N
1178,0.195,1.305,0.330,144.444,116.667,397.222,700.000,5.556,N
1179,0.470,2.205,1.725,58.333,116.667,397.222,680.556,19.444,N
1180,-0.445,2.440,2.440,849597.222,0.000,849594.444,680.556,0.000,N
1181,-0.445,1.595,2.440,850288.889,0.000,849594.444,691.667,11.111,N
1182,0.785,0.820,0.330,147.222,94.444,111.111,730.556,38.889,N
1183,0.080,0.375,-0.295,150.000,94.444,316.667,719.444,11.111,N
1184,-0.405,0.110,-0.700,144.444,83.333,305.556,725.000,5.556,N
1185,-0.880,-0.195,-0.445,141.667,80.556,-853147.222,713.889,11.111,N
1186,-0.445,-0.675,-0.445,853863.889,91.667,-853825.000,686.111,27.778,N
1187,-0.445,-0.645,-0.445,854522.222,100.000,-854463.889,658.333,27.778,N
1188,-0.445,-0.205,-0.445,855208.333,111.111,-855150.000,686.111,27.778,N
1189,-0.445,0.215,-0.860,855922.222,111.111,355.556,713.889,27.778,N
1190,-0.610,0.480,-0.650,150.000,102.778,319.444,719.444,5.556,N
1191,-0.255,1.300,0.235,150.000,111.111,341.667,711.111,8.333,N
1192,0.430,1.760,0.420,144.444,105.556,341.667,716.667,5.556,N
1193,0.505,1.780,0.090,138.889,94.444,302.778,722.222,5.556,N
1194,-0.110,1.160,-0.300,133.333,100.000,294.444,694.444,27.778,N
1195,-0.265,0.985,-0.355,141.667,100.000,308.333,691.667,2.778,N
1196,-0.410,0.700,-0.535,141.667,88.889,297.222,680.556,11.111,N
1197,-0.285,0.995,-0.135,127.778,108.333,313.889,672.222,8.333,N
1198,-0.035,1.215,-0.080,150.000,102.778,327.778,691.667,19.444,N
1199,0.200,1.580,0.330,155.556,113.889,361.111,741.667,50.000,N
1200,0.290,1.560,0.105,141.667,111.111,327.778,733.333,8.333,N
1201,0.155,1.415,0.030,147.222,116.667,327.778,722.222,11.111,N
1202,0.135,1.470,0.020,144.444,105.556,400.000,694.444,27.778,N
1203,-0.030,2.400,-0.005,58.333,116.667,338.889,391.667,302.778,V
1204,-0.035,1.555,0.155,125.000,111.111,347.222,958.333,566.667,N
1205,0.065,1.520,-0.105,136.111,108.333,361.111,694.444,263.889,N
1206,0.065,1.380,0.010,147.222,97.222,302.778,702.778,8.333,N
1207,0.095,1.425,0.070,147.222,108.333,330.556,694.444,8.333,N
1208,0.170,1.385,0.210,147.222,88.889,308.333,711.111,16.667,N
1209,0.130,1.255,0.090,152.778,97.222,322.222,719.444,8.333,N
1210,0.140,1.425,0.080,150.000,97.222,319.444,730.556,11.111,N
1211,0.115,1.395,0.050,138.889,105.556,327.778,677.778,52.778,N
1212,-0.010,1.430,0.105,147.222,111.111,383.333,669.444,8.333,N
1213,0.120,1.555,0.800,55.556,88.889,341.667,658.333,11.111,N
1214,0.060,-0.560,1.025,63.889,2.778,33.333,627.778,30.556,N
1215,0.680,1.790,0.715,102.778,100.000,316.667,702.778,75.000,N
1216,-0.340,1.520,0.240,58.333,116.667,144.444,700.000,2.778,N
1217,0.025,1.090,-0.025,150.000,86.111,322.222,727.778,27.778,N
1218,-0.190,0.975,-0.240,150.000,100.000,350.000,677.778,50.000,N
1219,-0.210,1.330,-0.190,144.444,102.778,311.111,688.889,11.111,N
1220,-0.120,1.195,-0.165,147.222,113.889,325.000,672.222,16.667,N
1221,-0.075,1.100,-0.170,152.778,102.778,297.222,663.889,8.333,N
1222,-0.640,0.735,-0.770,138.889,113.889,322.222,663.889,0.000,N
1223,-0.700,0.635,-0.720,141.667,111.111,291.667,666.667,2.778,N
1224,-0.650,0.710,-0.630,147.222,105.556,316.667,675.000,8.333,N
1225,-0.420,1.120,-0.250,150.000,111.111,333.333,700.000,25.000,N
1226,-0.075,1.385,-0.065,161.111,116.667,333.333,708.333,8.333,N
1227,-0.010,1.225,-0.010,150.000,113.889,341.667,719.444,11.111,N
1228,0.085,1.555,0.050,58.333,116.667,377.778,713.889,5.556,N
1229,0.300,1.600,0.430,138.889,88.889,294.444,675.000,38.889,N
1230,0.625,1.850,0.925,138.889,100.000,338.889,669.444,5.556,N
1231,0.665,1.740,0.415,144.444,108.333,327.778,669.444,0.000,N
1232,0.605,1.820,0.470,147.222,116.667,333.333,702.778,33.333,N
1233,0.500,1.680,0.330,150.000,111.111,338.889,700.000,2.778,N
1234,0.325,1.515,0.135,144.444,108.333,313.889,708.333,8.333,N
1235,0.140,1.290,-0.100,144.444,94.444,308.333,705.556,2.778,N
1236,-0.030,1.170,-0.185,155.556,102.778,308.333,725.000,19.444,N
1237,0.015,1.180,-0.075,150.000,100.000,319.444,700.000,25.000,N
1238,-0.075,1.290,-0.035,147.222,97.222,302.778,680.556,19.444,N
1239,0.030,1.250,-0.035,144.444,94.444,291.667,680.556,0.000,N
1240,0.045,1.295,-0.040,144.444,116.667,325.000,686.111,5.556,N
1241,-0.005,1.190,-0.090,147.222,97.222,305.556,680.556,5.556,N
1242,-0.220,1.125,-0.210,161.111,100.000,333.333,719.444,38.889,N
1243,-0.165,1.055,-0.230,158.333,94.444,305.556,744.444,25.000,N
1244,-0.145,1.120,-0.105,152.778,100.000,305.556,725.000,19.444,N
1245,-0.090,1.150,-0.175,141.667,88.889,291.667,691.667,33.333,N
1246,-0.100,1.245,-0.125,144.444,111.111,316.667,691.667,0.000,N
1247,-0.085,1.230,-0.140,136.111,86.111,275.000,686.111,5.556,N
1248,-0.095,1.115,-0.150,152.778,91.667,280.556,683.333,2.778,N
1249,-0.065,1.180,-0.185,150.000,97.222,305.556,694.444,11.111,N
1250,-0.105,0.995,-0.230,147.222,97.222,322.222,700.000,5.556,N
1251,-0.100,1.055,-0.165,144.444,94.444,308.333,727.778,27.778,N
1252,-0.110,1.140,-0.205,155.556,97.222,322.222,725.000,2.778,N
1253,-0.130,1.050,-0.175,155.556,94.444,316.667,736.111,11.111,N
1254,-0.105,1.150,-0.280,144.444,91.667,305.556,719.444,16.667,N
1255,-0.075,1.040,0.230,144.444,111.111,341.667,691.667,27.778,N
1256,0.230,0.075,0.915,44.444,77.778,363.889,327.778,363.889,|
1257,-0.495,0.885,-0.020,150.000,116.667,333.333,347.222,19.444,N
1258,-0.255,1.190,-0.130,169.444,116.667,319.444,697.222,350.000,N
1259,-0.110,1.170,-0.155,144.444,108.333,325.000,688.889,8.333,N
1260,-0.115,1.120,-0.155,155.556,108.333,341.667,733.333,44.444,N
1261,-0.055,1.155,-0.215,152.778,116.667,322.222,758.333,25.000,N
1262,-0.040,1.120,-0.195,158.333,108.333,322.222,722.222,36.111,N
1263,-0.110,1.135,-0.170,147.222,116.667,325.000,708.333,13.889,N
1264,-0.095,1.160,-0.165,144.444,108.333,327.778,708.333,0.000,N
1265,-0.065,1.165,-0.130,144.444,91.667,291.667,716.667,8.333,N
1266,-0.055,1.240,-0.125,141.667,113.889,322.222,688.889,27.778,N
1267,-0.015,1.235,-0.080,141.667,113.889,325.000,700.000,11.111,N
1268,0.000,1.205,-0.125,147.222,113.889,327.778,713.889,13.889,N
1269,-0.050,1.180,-0.170,155.556,111.111,325.000,747.222,33.333,N
1270,-0.100,1.145,-0.150,166.667,102.778,319.444,744.444,2.778,N
1271,-0.040,1.230,-0.110,155.556,116.667,341.667,744.444,0.000,N
1272,-0.035,1.235,-0.150,147.222,113.889,308.333,716.667,27.778,N
1273,-0.080,1.190,-0.170,141.667,108.333,305.556,694.444,22.222,N
1274,-0.070,1.180,-0.135,150.000,111.111,325.000,697.222,2.778,N
1275,-0.050,1.190,-0.145,147.222,111.111,327.778,719.444,22.222,N
1276,-0.050,1.185,-0.120,152.778,116.667,333.333,730.556,11.111,N
1277,-0.035,1.200,-0.115,152.778,113.889,325.000,744.444,13.889,N
1278,0.005,1.185,-0.065,161.111,116.667,333.333,741.667,2.778,N
1279,0.010,1.205,-0.055,158.333,111.111,325.000,736.111,5.556,N
1280,0.025,1.315,-0.065,150.000,116.667,325.000,722.222,13.889,N
1281,0.005,1.250,-0.070,147.222,113.889,319.444,713.889,8.333,N
1282,0.020,1.325,-0.060,136.111,116.667,311.111,702.778,11.111,N
1283,0.005,1.310,-0.100,147.222,97.222,300.000,697.222,5.556,N
1284,-0.045,1.210,-0.130,150.000,105.556,319.444,708.333,11.111,N
1285,0.005,1.235,-0.065,161.111,111.111,338.889,738.889,30.556,N
1286,-0.010,1.290,-0.100,158.333,97.222,313.889,766.667,27.778,N
1287,-0.015,1.250,-0.130,161.111,111.111,322.222,750.000,16.667,N
1288,-0.085,1.185,-0.155,150.000,97.222,308.333,716.667,33.333,N
1289,-0.040,1.190,-0.140,141.667,108.333,316.667,697.222,19.444,N
1290,-0.010,1.240,-0.100,138.889,111.111,313.889,700.000,2.778,N
1291,-0.040,1.290,-0.135,147.222,113.889,308.333,711.111,11.111,N
1292,-0.055,1.240,-0.140,150.000,111.111,325.000,711.111,0.000,N
1293,-0.010,1.245,-0.125,155.556,108.333,327.778,725.000,13.889,N
1294,-0.025,1.245,-0.130,152.778,113.889,333.333,744.444,19.444,N
1295,-0.020,1.210,-0.100,155.556,113.889,341.667,736.111,8.333,N
1296,0.035,1.240,-0.045,158.333,111.111,325.000,755.556,19.444,N
1297,0.065,1.345,-0.040,150.000,111.111,330.556,719.444,36.111,N
1298,0.040,1.290,-0.020,141.667,105.556,305.556,694.444,25.000,N
1299,0.060,1.285,-0.045,147.222,108.333,311.111,688.889,5.556,N
1300,0.065,1.345,-0.035,152.778,102.778,311.111,711.111,22.222,N
1301,0.045,1.345,-0.070,155.556,108.333,325.000,716.667,5.556,N
1302,0.025,1.270,-0.060,158.333,108.333,352.778,752.778,36.111,N
1303,0.060,1.265,-0.050,152.778,102.778,325.000,761.111,8.333,N
1304,0.040,1.290,-0.090,150.000,113.889,327.778,741.667,19.444,N
1305,-0.060,1.150,-0.165,150.000,100.000,319.444,708.333,33.333,N
1306,-0.040,1.160,-0.130,152.778,105.556,327.778,716.667,8.333,N
1307,-0.050,1.190,-0.170,144.444,116.667,316.667,711.111,5.556,N
1308,-0.080,1.150,-0.190,150.000,116.667,305.556,702.778,8.333,N
1309,-0.070,1.120,-0.170,155.556,113.889,336.111,702.778,0.000,N
1310,-0.045,1.175,-0.170,158.333,105.556,336.111,738.889,36.111,N
1311,-0.065,1.190,-0.140,150.000,113.889,338.889,738.889,0.000,N
1312,-0.020,1.210,-0.125,152.778,116.667,338.889,752.778,13.889,N
1313,-0.060,1.170,-0.180,147.222,116.667,322.222,750.000,2.778,N
1314,-0.070,1.110,-0.140,138.889,100.000,305.556,702.778,47.222,N
1315,-0.025,1.200,-0.105,138.889,113.889,319.444,683.333,19.444,N
1316,-0.025,1.200,-0.135,152.778,116.667,325.000,713.889,30.556,N
1317,-0.035,1.185,-0.070,150.000,116.667,325.000,733.333,19.444,N
1318,-0.020,1.270,-0.075,152.778,113.889,338.889,730.556,2.778,N
1319,-0.005,1.185,-0.140,155.556,97.222,336.111,738.889,8.333,N
1320,-0.055,1.145,-0.200,161.111,108.333,325.000,755.556,16.667,N
1321,-0.100,1.135,-0.205,144.444,108.333,327.778,730.556,25.000,N
1322,-0.085,1.185,-0.185,147.222,116.667,327.778,725.000,5.556,N
1323,-0.095,1.155,-0.220,150.000,116.667,311.111,719.444,5.556,N
1324,-0.120,1.115,-0.200,144.444,88.889,294.444,691.667,27.778,N
1325,-0.075,1.190,-0.125,144.444,116.667,325.000,705.556,13.889,N
1326,0.025,1.210,-0.080,158.333,94.444,325.000,727.778,22.222,N
1327,-0.010,1.150,-0.200,158.333,111.111,344.444,766.667,38.889,N
1328,-0.105,1.145,-0.130,150.000,116.667,347.222,733.333,33.333,N
1329,0.005,1.265,-0.055,144.444,108.333,322.222,747.222,13.889,N
1330,0.055,1.270,-0.030,144.444,111.111,308.333,719.444,27.778,N
1331,0.010,1.330,-0.065,150.000,116.667,308.333,705.556,13.889,N
1332,-0.040,1.175,-0.120,152.778,113.889,322.222,702.778,2.778,N
1333,-0.040,1.225,-0.100,155.556,113.889,330.556,725.000,22.222,N
1334,-0.065,1.240,-0.110,155.556,111.111,322.222,733.333,8.333,N
1335,-0.030,1.210,-0.090,152.778,116.667,338.889,741.667,8.333,N
1336,-0.005,1.265,-0.070,152.778,116.667,336.111,750.000,8.333,N
1337,-0.030,1.200,-0.085,155.556,113.889,336.111,766.667,16.667,N
1338,-0.040,1.205,-0.120,144.444,111.111,327.778,741.667,25.000,N
1339,-0.060,1.180,-0.160,147.222,116.667,322.222,722.222,19.444,N
1340,-0.100,1.155,-0.150,144.444,105.556,308.333,691.667,30.556,N
1341,-0.095,1.145,-0.170,158.333,105.556,308.333,713.889,22.222,N
1342,-0.100,1.125,-0.130,150.000,111.111,336.111,725.000,11.111,N
1343,-0.050,1.220,-0.130,163.889,116.667,344.444,769.444,44.444,N
1344,-0.085,1.135,-0.180,147.222,116.667,341.667,763.889,5.556,N
1345,-0.150,1.050,-0.220,155.556,91.667,316.667,758.333,5.556,N
1346,-0.040,1.100,-0.195,147.222,116.667,338.889,727.778,30.556,N
1347,-0.220,1.255,-0.275,150.000,116.667,325.000,733.333,5.556,N
1348,-0.030,1.145,-0.185,144.444,94.444,308.333,725.000,8.333,N
1349,-0.070,1.135,-0.095,144.444,94.444,291.667,716.667,8.333,N
1350,-0.045,1.195,-0.180,152.778,97.222,319.444,708.333,8.333,N
1351,-0.015,1.170,-0.110,158.333,97.222,330.556,738.889,30.556,N
1352,0.030,1.275,-0.110,158.333,91.667,338.889,755.556,16.667,N
1353,-0.045,1.155,-0.025,158.333,113.889,344.444,750.000,5.556,N
1354,0.055,1.250,-0.040,155.556,100.000,305.556,741.667,8.333,N
1355,0.055,1.345,-0.055,150.000,100.000,308.333,711.111,30.556,N
1356,-0.005,1.235,-0.135,141.667,94.444,294.444,694.444,16.667,N
1357,-0.035,1.200,-0.110,150.000,105.556,322.222,711.111,16.667,N
1358,-0.030,1.220,-0.120,147.222,94.444,308.333,741.667,30.556,N
1359,-0.030,1.180,-0.235,161.111,94.444,313.889,744.444,2.778,N
1360,-0.130,1.090,-0.130,158.333,108.333,341.667,733.333,11.111,N
1361,0.010,1.175,-0.120,152.778,111.111,341.667,755.556,22.222,N
1362,0.075,1.280,-0.090,150.000,86.111,325.000,744.444,11.111,N
1363,-0.260,1.280,0.025,166.667,111.111,322.222,727.778,16.667,N
1364,0.130,1.430,0.300,150.000,113.889,325.000,727.778,0.000,N
1365,0.250,1.340,0.020,141.667,91.667,297.222,708.333,19.444,N
1366,0.215,1.330,0.090,141.667,102.778,327.778,713.889,5.556,N
1367,-0.030,1.135,-0.020,152.778,97.222,319.444,736.111,22.222,N
1368,-0.025,1.170,-0.020,161.111,111.111,347.222,783.333,47.222,N
1369,0.035,1.265,-0.040,150.000,116.667,344.444,741.667,41.667,N
1370,-0.005,1.200,-0.080,144.444,113.889,341.667,733.333,8.333,N
1371,-0.045,1.180,-0.075,144.444,102.778,319.444,727.778,5.556,N
1372,-0.035,1.195,-0.095,138.889,111.111,300.000,711.111,16.667,N
1373,-0.045,1.220,-0.095,150.000,113.889,322.222,716.667,5.556,N
1374,-0.075,1.210,0.115,152.778,113.889,333.333,738.889,22.222,N
1375,-0.115,1.135,-0.235,150.000,102.778,327.778,747.222,8.333,N
1376,-0.200,0.860,-0.140,147.222,94.444,305.556,755.556,8.333,N
1377,-0.375,1.355,-0.030,155.556,116.667,336.111,763.889,8.333,N
1378,-0.060,1.230,-0.095,158.333,116.667,336.111,791.667,27.778,N
1379,-0.075,1.180,-0.180,144.444,113.889,358.333,733.333,58.333,N
1380,-0.090,1.310,-0.080,141.667,105.556,375.000,719.444,13.889,N
1381,-0.380,0.980,-0.095,177.778,108.333,388.889,711.111,8.333,N
1382,0.135,1.025,0.110,152.778,105.556,308.333,725.000,13.889,N
1383,-0.385,0.895,-0.380,133.333,94.444,305.556,741.667,16.667,N
1384,-0.525,0.775,-0.395,175.000,100.000,394.444,763.889,22.222,N
1385,-0.065,1.045,-0.150,141.667,113.889,169.444,744.444,19.444,N
1386,0.005,1.285,0.360,150.000,105.556,394.444,747.222,2.778,N
1387,0.350,1.165,-0.115,161.111,108.333,325.000,722.222,25.000,N
1388,-0.115,-0.715,1.045,97.222,50.000,352.778,369.444,352.778,|
1389,0.330,1.265,0.010,150.000,102.778,325.000,355.556,13.889,N
1390,-0.080,-0.850,1.630,52.778,55.556,100.000,602.778,247.222,|
1391,-0.080,1.630,0.015,152.778,102.778,158.333,100.000,502.778,N
1392,-0.025,1.295,-0.040,141.667,116.667,311.111,713.889,613.889,N
1393,-0.045,1.125,-0.090,155.556,105.556,327.778,725.000,11.111,N
1394,-0.075,1.200,-0.095,152.778,108.333,327.778,747.222,22.222,N
1395,-0.095,1.140,-0.105,161.111,94.444,322.222,752.778,5.556,N
1396,-0.075,1.115,-0.130,147.222,100.000,325.000,755.556,2.778,N
1397,0.075,1.105,-0.360,147.222,113.889,325.000,736.111,19.444,N
1398,-0.245,0.970,-0.210,144.444,116.667,313.889,708.333,27.778,N
1399,0.025,1.225,0.080,144.444,100.000,313.889,686.111,22.222,N
1400,-0.265,1.310,-0.145,130.556,111.111,336.111,716.667,30.556,N
1401,-0.125,1.030,-0.110,141.667,108.333,325.000,727.778,11.111,N
1402,0.055,1.205,-0.120,155.556,108.333,322.222,750.000,22.222,N
1403,0.020,0.915,0.040,147.222,116.667,347.222,736.111,13.889,N
1404,0.070,1.175,-0.210,152.778,116.667,352.778,741.667,5.556,N
1405,0.165,0.365,1.190,55.556,111.111,213.889,575.000,166.667,|
1406,0.505,1.180,-0.195,141.667,113.889,322.222,158.333,416.667,N
1407,-0.210,1.315,-0.095,138.889,111.111,333.333,719.444,561.111,N
1408,-0.105,1.170,-0.075,141.667,116.667,338.889,708.333,11.111,N
1409,-0.070,1.285,-0.030,141.667,116.667,333.333,694.444,13.889,N
1410,-0.015,1.295,0.045,147.222,113.889,325.000,705.556,11.111,N
1411,0.120,1.235,0.135,147.222,91.667,330.556,719.444,13.889,N
1412,0.025,1.405,0.010,158.333,111.111,336.111,777.778,58.333,N
1413,0.050,1.250,-0.005,147.222,91.667,311.111,747.222,30.556,N
1414,0.015,1.165,-0.035,141.667,102.778,322.222,727.778,19.444,N
1415,0.000,1.395,-0.060,141.667,116.667,327.778,708.333,19.444,N
1416,-0.100,1.160,-0.270,141.667,113.889,308.333,705.556,2.778,N
1417,0.180,1.210,-0.325,158.333,113.889,302.778,694.444,11.111,N
1418,-0.405,-0.745,1.335,152.778,27.778,133.333,572.222,122.222,|
1419,-0.400,1.335,0.005,58.333,113.889,344.444,133.333,438.889,N
1420,-0.160,1.275,-0.050,147.222,113.889,355.556,719.444,586.111,N
1421,0.050,1.435,-0.070,136.111,91.667,316.667,730.556,11.111,N
1422,0.125,1.360,-0.145,150.000,97.222,366.667,727.778,2.778,N
1423,-0.080,1.110,-0.110,147.222,97.222,325.000,750.000,22.222,N
1424,-0.015,1.360,0.110,144.444,86.111,291.667,730.556,19.444,N
1425,0.290,1.440,-0.065,138.889,108.333,297.222,694.444,36.111,N
1426,-0.075,1.040,0.185,150.000,83.333,300.000,677.778,16.667,N
1427,-0.080,1.315,-0.110,141.667,91.667,302.778,694.444,16.667,N
1428,0.175,0.995,-0.340,130.556,88.889,230.556,691.667,2.778,N
1429,0.220,1.500,0.140,136.111,116.667,172.222,733.333,41.667,N
1430,0.180,1.335,0.025,152.778,94.444,313.889,752.778,19.444,N
1431,0.330,0.945,-0.080,144.444,88.889,258.333,722.222,30.556,N
1432,-0.260,1.365,-0.085,155.556,116.667,325.000,705.556,16.667,N
1433,0.020,1.355,-0.030,138.889,113.889,319.444,702.778,2.778,N
1434,0.220,1.230,-0.305,150.000,105.556,302.778,702.778,0.000,N
1435,0.055,0.140,1.215,58.333,61.111,172.222,561.111,141.667,|
1436,0.425,1.215,-0.170,63.889,83.333,300.000,113.889,447.222,N
1437,-0.170,1.290,1.055,138.889,111.111,347.222,677.778,563.889,N
1438,-0.200,0.935,0.155,61.111,116.667,397.222,291.667,386.111,|
1439,0.155,0.965,-0.050,75.000,72.222,308.333,413.889,122.222,N
1440,-0.050,0.565,1.175,161.111,83.333,316.667,438.889,25.000,|
1441,0.000,1.145,-0.180,141.667,91.667,297.222,288.889,150.000,N
1442,0.210,1.305,-0.065,69.444,97.222,366.667,513.889,225.000,V
1443,-0.460,-2.785,0.910,197.222,11.111,94.444,841.667,327.778,|
1444,-0.800,0.865,-0.015,197.222,116.667,388.889,88.889,752.778,N
1445,0.320,1.385,0.015,133.333,91.667,300.000,708.333,619.444,N
1446,-0.035,1.240,0.000,136.111,100.000,325.000,675.000,33.333,N
1447,-0.110,1.230,-0.185,130.556,108.333,325.000,658.333,16.667,N
1448,-0.090,1.180,-0.045,141.667,113.889,327.778,683.333,25.000,N
1449,0.035,1.275,-0.040,141.667,108.333,327.778,697.222,13.889,N
1450,0.020,1.290,-0.035,150.000,100.000,325.000,708.333,11.111,N
1451,-0.015,1.250,-0.070,141.667,108.333,330.556,702.778,5.556,N
1452,0.005,1.280,-0.060,144.444,116.667,341.667,713.889,11.111,N
1453,-0.045,1.290,-0.120,138.889,100.000,305.556,702.778,11.111,N
1454,-0.100,1.235,-0.125,141.667,113.889,322.222,700.000,2.778,N
1455,-0.060,1.255,-0.110,150.000,116.667,330.556,686.111,13.889,N
1456,-0.035,1.260,-0.095,136.111,108.333,313.889,669.444,16.667,N
1457,0.245,0.510,1.310,58.333,116.667,244.444,494.444,175.000,|
1458,0.600,1.310,-0.050,172.222,88.889,294.444,186.111,308.333,N
1459,-0.140,1.140,-0.150,144.444,113.889,341.667,691.667,505.556,N
1460,-0.120,1.195,-0.125,147.222,88.889,325.000,727.778,36.111,N
1461,0.020,1.285,-0.070,144.444,86.111,313.889,730.556,2.778,N
1462,-0.140,1.210,0.005,147.222,113.889,369.444,725.000,5.556,N
1463,1.210,-0.910,0.005,186.111,5.556,133.333,186.111,538.889,|
1464,-0.120,0.900,-0.105,69.444,77.778,294.444,500.000,313.889,N
1465,0.015,1.285,-0.030,141.667,116.667,333.333,675.000,175.000,N
1466,0.020,1.325,-0.005,136.111,86.111,305.556,666.667,8.333,N
1467,0.000,1.250,-0.070,141.667,91.667,294.444,686.111,19.444,N
1468,-0.025,1.260,-0.165,144.444,116.667,327.778,686.111,0.000,N
1469,-0.065,1.225,-0.145,141.667,102.778,325.000,691.667,5.556,N
1470,-0.120,1.190,-0.120,138.889,105.556,325.000,713.889,22.222,N
1471,-0.095,1.175,-0.140,144.444,97.222,327.778,711.111,2.778,N
1472,-0.100,1.225,-0.130,144.444,108.333,322.222,727.778,16.667,N
1473,-0.070,1.245,-0.120,141.667,116.667,327.778,691.667,36.111,N
1474,-0.045,1.265,-0.100,138.889,100.000,305.556,672.222,19.444,N
1475,0.015,1.385,-0.085,138.889,113.889,305.556,658.333,13.889,N
1476,0.035,1.320,-0.075,141.667,108.333,311.111,675.000,16.667,N
1477,0.035,1.305,-0.090,144.444,113.889,338.889,680.556,5.556,N
1478,0.010,1.215,-0.170,152.778,94.444,316.667,713.889,33.333,N
1479,-0.030,1.215,-0.185,152.778,113.889,336.111,733.333,19.444,N
1480,-0.020,1.240,-0.105,147.222,113.889,327.778,711.111,22.222,N
1481,-0.020,1.240,-0.110,138.889,113.889,316.667,691.667,19.444,N
1482,-0.035,1.230,-0.095,138.889,116.667,322.222,680.556,11.111,N
1483,0.000,1.300,-0.045,141.667,108.333,308.333,691.667,11.111,N
1484,-0.035,1.270,-0.070,141.667,102.778,322.222,666.667,25.000,N
1485,-0.010,1.200,-0.125,136.111,113.889,305.556,661.111,5.556,N
1486,0.175,1.175,-0.045,147.222,83.333,308.333,688.889,27.778,N
1487,0.045,1.285,-0.055,158.333,100.000,308.333,716.667,27.778,N
1488,-0.105,1.350,0.175,144.444,113.889,341.667,702.778,13.889,N
1489,0.130,1.350,-0.090,147.222,94.444,313.889,716.667,13.889,N
1490,-0.055,1.170,-0.180,138.889,86.111,297.222,702.778,13.889,N
1491,-0.045,1.170,-0.160,141.667,86.111,291.667,675.000,27.778,N
1492,-0.010,1.270,-0.200,133.333,116.667,308.333,644.444,30.556,N
1493,0.380,1.865,-0.055,58.333,116.667,266.667,672.222,27.778,N
1494,-0.330,0.905,0.110,147.222,108.333,336.111,697.222,25.000,N
1495,-0.005,1.275,0.065,144.444,102.778,338.889,694.444,2.778,N
1496,0.005,0.960,0.170,141.667,86.111,308.333,691.667,2.778,N
1497,0.030,0.720,-0.245,155.556,86.111,272.222,700.000,8.333,N
1498,-0.045,0.685,1.255,58.333,116.667,222.222,541.667,158.333,|
1499,0.720,1.255,-0.565,161.111,91.667,91.667,163.889,377.778,N
1500,-0.735,-1.420,0.740,197.222,8.333,355.556,308.333,144.444,|
1501,0.250,1.790,0.390,138.889,113.889,288.889,366.667,58.333,N
1502,-0.025,1.370,-0.155,144.444,111.111,325.000,672.222,305.556,N
1503,-0.095,1.115,-0.210,136.111,100.000,308.333,663.889,8.333,N
1504,-0.145,1.165,-0.150,138.889,111.111,305.556,652.778,11.111,N
1505,-0.085,1.180,-0.075,138.889,111.111,322.222,652.778,0.000,N
1506,-0.100,1.140,-0.115,150.000,97.222,319.444,705.556,52.778,N
1507,-0.135,1.215,-0.085,147.222,116.667,325.000,730.556,25.000,N
1508,-0.060,1.175,-0.135,150.000,116.667,327.778,700.000,30.556,N
1509,-0.100,1.165,-0.125,136.111,116.667,327.778,680.556,19.444,N
1510,-0.120,1.080,-0.190,138.889,105.556,308.333,677.778,2.778,N
1511,-0.140,1.165,-0.140,136.111,111.111,291.667,672.222,5.556,N
1512,-0.100,1.135,-0.120,141.667,102.778,308.333,658.333,13.889,N
1513,-0.130,-1.185,1.175,197.222,13.889,219.444,461.111,197.222,|
1514,-0.360,1.175,-0.015,52.778,100.000,311.111,216.667,244.444,N
1515,0.000,1.090,1.350,58.333,116.667,202.778,533.333,316.667,|
1516,1.230,1.350,-0.070,136.111,91.667,302.778,144.444,388.889,N
1517,-0.090,1.275,-0.045,144.444,108.333,327.778,700.000,555.556,N
1518,-0.015,1.210,-0.060,147.222,105.556,319.444,700.000,0.000,N
1519,-0.020,1.155,-0.095,147.222,105.556,325.000,713.889,13.889,N
1520,-0.060,1.205,-0.100,136.111,113.889,311.111,711.111,2.778,N
1521,-0.060,1.185,-0.115,147.222,113.889,311.111,680.556,30.556,N
1522,-0.075,1.150,-0.135,133.333,113.889,322.222,650.000,30.556,N
1523,-0.095,1.135,-0.125,144.444,116.667,311.111,663.889,13.889,N
1524,-0.095,1.180,-0.130,136.111,111.111,302.778,675.000,11.111,N
1525,-0.070,1.165,-0.120,150.000,116.667,308.333,694.444,19.444,N
1526,-0.080,1.150,-0.120,152.778,116.667,344.444,716.667,22.222,N
1527,-0.070,1.125,-0.125,141.667,105.556,319.444,711.111,5.556,N
1528,-0.065,1.150,-0.105,144.444,108.333,325.000,716.667,5.556,N
1529,-0.070,1.185,-0.100,141.667,111.111,305.556,686.111,30.556,N
1530,-0.050,1.125,-0.125,138.889,108.333,311.111,677.778,8.333,N
1531,-0.080,1.165,-0.105,133.333,111.111,308.333,686.111,8.333,N
1532,-0.085,1.125,-0.145,141.667,111.111,308.333,677.778,8.333,N
1533,-0.100,1.125,-0.135,147.222,116.667,322.222,663.889,13.889,N
1534,-0.085,1.145,-0.130,147.222,116.667,338.889,683.333,19.444,N
1535,-0.100,1.155,-0.145,144.444,105.556,325.000,722.222,38.889,N
1536,-0.100,1.170,-0.135,155.556,113.889,322.222,727.778,5.556,N
1537,-0.065,1.055,-0.185,152.778,108.333,316.667,713.889,13.889,N
1538,-0.080,1.095,-0.045,133.333,113.889,325.000,680.556,33.333,N
1539,0.005,1.205,-0.095,138.889,102.778,308.333,680.556,0.000,N
1540,-0.070,1.140,-0.165,141.667,100.000,308.333,661.111,19.444,N
1541,-0.070,1.190,-0.145,147.222,102.778,316.667,686.111,25.000,N
1542,-0.055,1.180,-0.190,147.222,113.889,336.111,694.444,8.333,N
1543,-0.095,1.120,-0.205,150.000,97.222,305.556,713.889,19.444,N
1544,-0.110,1.140,-0.165,150.000,113.889,327.778,697.222,16.667,N
1545,-0.055,1.190,-0.140,158.333,113.889,344.444,711.111,13.889,N
1546,-0.040,1.195,-0.175,141.667,102.778,322.222,700.000,11.111,N
1547,-0.065,1.210,-0.170,138.889,116.667,322.222,691.667,8.333,N
1548,-0.045,1.290,-0.155,147.222,108.333,300.000,683.333,8.333,N
1549,-0.040,1.240,-0.155,141.667,116.667,327.778,666.667,16.667,N
1550,-0.030,1.260,-0.145,136.111,100.000,305.556,672.222,5.556,N
1551,0.000,1.295,-0.095,150.000,116.667,336.111,694.444,22.222,N
1552,0.000,1.240,-0.115,158.333,102.778,341.667,738.889,44.444,N
1553,-0.015,1.205,-0.110,152.778,88.889,308.333,719.444,19.444,N
1554,0.015,1.320,-0.110,144.444,116.667,322.222,708.333,11.111,N
1555,0.005,1.400,0.300,147.222,116.667,405.556,697.222,11.111,N
1556,0.100,1.310,-0.405,183.333,102.778,113.889,683.333,13.889,N
1557,0.245,1.380,-0.010,194.444,105.556,330.556,663.889,19.444,N
1558,-0.010,0.325,0.595,125.000,116.667,350.000,397.222,266.667,|
1559,-0.110,0.595,-0.140,122.222,88.889,277.778,291.667,105.556,N
1560,0.595,-1.730,-0.140,69.444,30.556,180.556,69.444,222.222,|
1561,0.100,1.055,-0.140,138.889,113.889,319.444,633.333,563.889,N
1562,-0.045,1.145,-0.130,150.000,105.556,308.333,702.778,69.444,N
1563,-0.055,1.140,-0.095,144.444,113.889,325.000,705.556,2.778,N
1564,-0.065,1.115,-0.135,147.222,113.889,327.778,730.556,25.000,N
1565,-0.070,1.155,-0.150,150.000,113.889,305.556,738.889,8.333,N
1566,-0.115,1.100,-0.195,141.667,111.111,316.667,691.667,47.222,N
1567,-0.180,1.045,-0.225,138.889,111.111,308.333,672.222,19.444,N
1568,-0.145,1.070,-0.185,136.111,102.778,311.111,680.556,8.333,N
1569,-0.115,1.130,-0.150,136.111,113.889,325.000,688.889,8.333,N
1570,-0.015,1.175,-0.035,163.889,100.000,313.889,700.000,11.111,N
1571,-0.080,0.980,-0.165,150.000,113.889,361.111,736.111,36.111,N
1572,0.000,1.160,-0.130,138.889,113.889,336.111,733.333,2.778,N
1573,-0.080,1.085,-0.160,141.667,97.222,322.222,719.444,13.889,N
1574,-0.145,1.070,-0.200,136.111,111.111,322.222,697.222,22.222,N
1575,-0.070,1.140,-0.185,147.222,100.000,305.556,705.556,8.333,N
1576,-0.090,1.160,-0.150,130.556,102.778,294.444,691.667,13.889,N
1577,-0.065,1.125,-0.120,147.222,102.778,302.778,691.667,0.000,N
1578,-0.070,1.160,-0.175,141.667,108.333,308.333,683.333,8.333,N
1579,-0.065,1.155,-0.160,147.222,94.444,341.667,711.111,27.778,N
1580,-0.055,1.220,-0.140,150.000,113.889,341.667,733.333,22.222,N
1581,-0.065,1.175,-0.195,147.222,108.333,322.222,747.222,13.889,N
1582,-0.050,1.120,-0.175,155.556,105.556,308.333,744.444,2.778,N
1583,-0.105,1.205,-0.235,141.667,108.333,308.333,688.889,55.556,N
1584,-0.150,1.155,-0.180,141.667,111.111,316.667,677.778,11.111,N
1585,-0.050,1.130,-0.140,144.444,88.889,291.667,683.333,5.556,N
1586,-0.030,1.260,-0.040,150.000,111.111,319.444,713.889,30.556,N
1587,0.085,1.390,-0.100,144.444,113.889,319.444,700.000,13.889,N
1588,-0.030,1.250,0.075,147.222,113.889,325.000,725.000,25.000,N
1589,0.075,-0.905,1.225,191.667,16.667,277.778,458.333,266.667,|
1590,0.020,1.225,-0.110,50.000,94.444,300.000,261.111,197.222,N
1591,0.000,1.225,-0.125,150.000,111.111,325.000,727.778,466.667,N
1592,-0.040,1.000,-0.180,144.444,113.889,330.556,700.000,27.778,N
1593,-0.105,1.110,-0.170,138.889,100.000,308.333,694.444,5.556,N
1594,-0.050,1.165,-0.115,136.111,111.111,305.556,688.889,5.556,N
1595,-0.110,1.265,0.175,141.667,111.111,375.000,683.333,5.556,N
1596,-0.375,1.120,0.010,144.444,113.889,325.000,686.111,2.778,N
1597,-0.010,1.230,-0.015,150.000,116.667,325.000,719.444,33.333,N
1598,-0.005,1.145,-0.045,150.000,113.889,336.111,752.778,33.333,N
1599,0.250,1.580,-0.485,55.556,102.778,102.778,733.333,19.444,N
1600,-0.500,-0.930,-0.065,197.222,36.111,291.667,258.333,475.000,|
1601,-0.065,1.285,0.040,144.444,105.556,325.000,433.333,175.000,N
1602,0.000,1.375,-0.080,141.667,116.667,325.000,688.889,255.556,N
1603,0.035,1.320,-0.095,133.333,100.000,288.889,680.556,8.333,N
1604,0.115,1.230,0.065,141.667,88.889,297.222,672.222,8.333,N
1605,0.125,1.315,0.280,138.889,102.778,308.333,686.111,13.889,N
1606,0.165,1.205,0.425,133.333,100.000,341.667,683.333,2.778,N
1607,0.470,1.415,-0.295,155.556,102.778,308.333,716.667,33.333,N
1608,-0.485,1.095,-0.275,58.333,113.889,311.111,708.333,8.333,N
1609,-0.040,1.060,-0.125,152.778,102.778,325.000,725.000,16.667,N
1610,-0.275,1.110,-0.360,161.111,113.889,405.556,730.556,5.556,N
1611,-0.330,1.480,0.800,136.111,100.000,225.000,683.333,47.222,N
1612,0.130,1.125,0.125,158.333,83.333,94.444,658.333,25.000,N
1613,-0.165,1.020,0.270,138.889,102.778,338.889,675.000,16.667,N
1614,0.310,2.195,0.640,58.333,100.000,141.667,680.556,5.556,N
1615,-0.320,1.045,-0.505,180.556,91.667,369.444,716.667,36.111,N
1616,0.625,1.470,-0.345,136.111,116.667,402.778,738.889,22.222,N
1617,0.285,0.670,-0.260,186.111,88.889,313.889,713.889,25.000,N
1618,0.045,1.530,0.415,155.556,100.000,325.000,702.778,11.111,N
1619,0.100,1.120,-0.020,144.444,97.222,322.222,691.667,11.111,N
1620,1.120,-1.180,-0.020,188.889,11.111,105.556,188.889,502.778,|
1621,0.025,1.160,-0.025,141.667,113.889,300.000,500.000,311.111,N
1622,0.020,1.240,0.030,138.889,113.889,313.889,672.222,172.222,N
1623,-0.015,1.505,-0.105,133.333,111.111,311.111,675.000,2.778,N
1624,-0.070,1.210,-0.065,141.667,113.889,325.000,686.111,11.111,N
1625,-0.040,1.200,-0.070,152.778,116.667,322.222,716.667,30.556,N
1626,-0.100,1.180,-0.100,150.000,116.667,338.889,719.444,2.778,N
1627,-0.080,1.175,-0.085,150.000,108.333,325.000,736.111,16.667,N
1628,-0.060,1.250,-0.080,138.889,100.000,300.000,727.778,8.333,N
1629,-0.035,1.235,-0.080,141.667,105.556,308.333,688.889,38.889,N
1630,-0.070,1.185,-0.090,136.111,105.556,308.333,669.444,19.444,N
1631,-0.050,1.260,-0.050,141.667,111.111,327.778,700.000,30.556,N
1632,-0.020,1.225,-0.095,141.667,111.111,305.556,713.889,13.889,N
1633,-0.080,1.175,-0.080,144.444,113.889,327.778,702.778,11.111,N
1634,-0.035,1.240,-0.090,147.222,113.889,341.667,719.444,16.667,N
1635,-0.065,1.270,-0.040,150.000,116.667,338.889,738.889,19.444,N
1636,-0.025,1.295,-0.050,138.889,100.000,313.889,722.222,16.667,N
1637,-0.020,1.265,-0.030,144.444,111.111,313.889,716.667,5.556,N
1638,-0.025,1.225,-0.115,138.889,102.778,313.889,697.222,19.444,N
1639,0.050,1.215,-0.135,138.889,100.000,311.111,686.111,11.111,N
1640,-0.025,1.355,0.060,138.889,111.111,380.556,686.111,0.000,N
1641,-0.115,1.065,-0.205,147.222,105.556,330.556,702.778,16.667,N
1642,-0.150,1.175,-0.105,152.778,100.000,325.000,738.889,36.111,N
1643,-0.045,1.185,0.120,147.222,113.889,308.333,730.556,8.333,N
1644,-0.145,1.095,-0.245,150.000,91.667,333.333,733.333,2.778,N
1645,-0.170,1.140,-0.040,144.444,116.667,330.556,702.778,30.556,N
1646,0.075,1.255,0.015,136.111,113.889,291.667,683.333,19.444,N
1647,-0.155,1.175,-0.025,136.111,113.889,325.000,666.667,16.667,N
1648,-0.120,1.165,-0.195,136.111,108.333,316.667,694.444,27.778,N
1649,-0.105,1.175,-0.165,138.889,83.333,280.556,697.222,2.778,N
1650,-0.135,1.200,-0.155,147.222,116.667,322.222,694.444,2.778,N
1651,-0.035,1.270,-0.090,144.444,113.889,325.000,711.111,16.667,N
1652,0.005,1.325,-0.045,144.444,108.333,322.222,727.778,16.667,N
1653,0.055,1.395,0.030,147.222,116.667,333.333,738.889,11.111,N
1654,-0.035,1.200,0.085,150.000,113.889,322.222,700.000,38.889,N
1655,0.025,1.180,-0.095,130.556,100.000,308.333,677.778,22.222,N
1656,-0.050,1.200,0.235,133.333,97.222,311.111,675.000,2.778,N
1657,0.055,1.250,-0.110,150.000,111.111,319.444,686.111,11.111,N
1658,-0.005,1.120,-0.080,161.111,100.000,302.778,697.222,11.111,N
1659,-0.060,1.145,-0.075,161.111,108.333,341.667,722.222,25.000,N
1660,0.010,1.410,0.170,147.222,113.889,338.889,727.778,5.556,N
1661,0.160,1.370,0.030,147.222,116.667,325.000,719.444,8.333,N
1662,-0.005,1.205,-0.135,141.667,94.444,300.000,702.778,16.667,N
1663,0.065,1.220,0.050,141.667,113.889,333.333,697.222,5.556,N
1664,-0.030,1.095,-0.110,150.000,97.222,291.667,694.444,2.778,N
1665,-0.130,1.090,-0.300,141.667,102.778,305.556,683.333,11.111,N
1666,-0.325,0.870,-0.380,141.667,116.667,322.222,661.111,22.222,N
1667,-0.310,0.975,-0.240,152.778,108.333,330.556,697.222,36.111,N
1668,0.035,1.120,0.105,138.889,105.556,325.000,716.667,19.444,N
1669,0.025,1.245,0.095,147.222,94.444,286.111,727.778,11.111,N
1670,0.010,1.330,0.015,152.778,100.000,322.222,719.444,8.333,N
1671,-0.030,1.210,-0.095,138.889,116.667,316.667,688.889,30.556,N
1672,-0.055,1.210,-0.115,136.111,113.889,308.333,677.778,11.111,N
1673,0.055,1.315,0.010,138.889,113.889,308.333,658.333,19.444,N
1674,-0.085,1.010,-0.140,144.444,97.222,311.111,686.111,27.778,N
1675,0.065,1.315,0.370,136.111,113.889,286.111,688.889,2.778,N
1676,0.370,1.900,-0.070,183.333,94.444,338.889,411.111,277.778,V
1677,-0.080,1.285,0.090,147.222,116.667,352.778,983.333,572.222,N
1678,-0.225,1.015,-0.270,147.222,105.556,308.333,722.222,261.111,N
1679,-0.145,1.130,-0.210,144.444,108.333,319.444,691.667,30.556,N
1680,-0.240,0.995,-0.360,138.889,116.667,316.667,680.556,11.111,N
1681,-0.165,0.910,-0.105,141.667,108.333,308.333,680.556,0.000,N
1682,0.280,1.440,0.010,133.333,86.111,147.222,661.111,19.444,N
1683,0.245,1.580,0.535,55.556,97.222,300.000,658.333,2.778,N
1684,-0.005,0.920,-0.610,141.667,100.000,200.000,669.444,11.111,N
1685,0.275,1.530,0.020,150.000,97.222,305.556,719.444,50.000,N
1686,0.300,1.720,0.460,58.333,116.667,338.889,702.778,16.667,N
1687,-0.445,0.625,0.545,1194191.667,116.667,338.889,702.778,0.000,N
1688,0.990,1.610,-0.150,130.556,83.333,91.667,688.889,13.889,N
1689,-0.445,0.435,1.360,1195544.444,105.556,400.000,663.889,25.000,N
1690,1.695,0.915,-0.790,116.667,80.556,375.000,644.444,19.444,N
1691,0.610,1.220,0.410,138.889,91.667,380.556,661.111,16.667,N
1692,1.315,1.530,0.470,158.333,83.333,133.333,677.778,16.667,N
1693,-0.235,1.330,0.860,55.556,102.778,300.000,661.111,16.667,N
1694,0.180,0.705,-0.200,100.000,91.667,233.333,683.333,22.222,N
1695,0.625,1.110,0.860,127.778,86.111,308.333,691.667,8.333,N
1696,-0.550,0.865,-0.355,194.444,116.667,325.000,708.333,16.667,N
1697,0.420,1.075,0.295,152.778,97.222,333.333,675.000,33.333,N
1698,0.415,1.205,-0.415,166.667,91.667,302.778,655.556,19.444,N
1699,0.295,0.930,0.640,138.889,75.000,305.556,627.778,27.778,N
1700,-0.440,1.225,0.020,183.333,102.778,111.111,633.333,5.556,N
1701,1.360,1.750,1.190,136.111,75.000,372.222,641.667,8.333,N
1702,0.350,1.395,1.800,188.889,83.333,394.444,677.778,36.111,N
1703,-0.445,-1.360,-0.370,1205555.556,102.778,391.667,1372.222,694.444,N
1704,-0.085,0.830,0.145,136.111,88.889,302.778,686.111,686.111,N
1705,0.145,1.710,0.560,122.222,97.222,400.000,394.444,291.667,V
1706,-0.445,-0.450,0.175,1207533.333,102.778,369.444,897.222,502.778,N
1707,0.525,1.560,1.240,52.778,83.333,194.444,691.667,205.556,N
1708,-0.445,-0.580,1.350,1208858.333,75.000,369.444,633.333,58.333,N
1709,0.830,2.315,0.700,197.222,116.667,355.556,625.000,8.333,N
1710,2.535,-0.505,2.755,52.778,5.556,77.778,713.889,88.889,N
1711,0.615,-0.845,0.220,197.222,83.333,358.333,622.222,91.667,N
1712,-0.415,0.650,-0.475,172.222,111.111,263.889,680.556,58.333,N
1713,-0.505,1.395,-0.085,152.778,108.333,200.000,686.111,5.556,N
1714,0.935,1.765,-0.450,72.222,94.444,127.778,677.778,8.333,N
1715,0.710,1.205,1.390,94.444,91.667,327.778,647.222,30.556,N
1716,0.910,1.720,0.255,197.222,116.667,116.667,636.111,11.111,N
1717,-0.035,-0.720,1.275,161.111,116.667,313.889,652.778,16.667,N
1718,1.370,-0.995,1.350,91.667,11.111,55.556,608.333,44.444,N
1719,-0.395,0.515,1.330,147.222,116.667,405.556,711.111,102.778,N
1720,-0.510,-0.125,0.035,144.444,66.667,288.889,677.778,33.333,N
1721,0.480,1.355,2.240,141.667,113.889,394.444,672.222,5.556,N
1722,1.955,1.735,0.895,197.222,105.556,366.667,688.889,16.667,N
1723,1.050,1.415,1.150,186.111,86.111,172.222,669.444,19.444,N
1724,-0.120,-2.900,0.490,180.556,8.333,347.222,705.556,36.111,N
1725,0.815,0.615,0.285,197.222,94.444,383.333,600.000,105.556,N
1726,-0.245,0.725,-0.445,138.889,102.778,-1220716.667,627.778,27.778,N
1727,1.455,2.335,3.000,80.556,-1221352.778,-3486.111,636.111,8.333,N
1728,0.285,1.170,-0.220,133.333,116.667,322.222,627.778,8.333,N
1729,-0.430,1.465,0.415,166.667,116.667,219.444,680.556,52.778,N
1730,-0.470,-0.315,0.135,197.222,61.111,330.556,677.778,2.778,N
1731,0.760,1.645,0.525,55.556,83.333,244.444,677.778,0.000,N
1732,-0.930,0.305,1.080,188.889,116.667,391.667,641.667,36.111,N
1733,2.635,1.615,0.930,197.222,88.889,102.778,638.889,2.778,N
1734,0.245,-1.825,1.015,136.111,5.556,338.889,613.889,25.000,N
1735,-0.545,1.315,1.420,141.667,111.111,375.000,663.889,50.000,N
1736,0.005,-0.335,-0.445,136.111,83.333,-1227227.778,633.333,30.556,N
1737,1.220,1.695,0.225,147.222,86.111,247.222,652.778,19.444,N
1738,0.380,2.455,1.560,58.333,113.889,311.111,650.000,2.778,N
1739,-0.375,1.000,0.460,80.556,102.778,191.667,666.667,16.667,N
1740,-0.445,1.350,1.700,1229905.556,91.667,183.333,683.333,16.667,N
1741,-0.445,2.330,0.370,1230600.000,1230658.333,1230866.667,694.444,11.111,N
1742,-0.575,0.225,-0.445,197.222,113.889,-1231202.778,658.333,36.111,N
1743,0.095,1.280,0.455,188.889,105.556,386.111,630.556,27.778,N
1744,1.255,1.080,0.465,188.889,86.111,255.556,638.889,8.333,N
1745,0.015,1.495,1.070,52.778,77.778,277.778,641.667,2.778,N
1746,2.535,-0.025,2.795,25.000,2.778,50.000,669.444,27.778,Q
1747,-0.635,0.265,-0.185,119.444,63.889,336.111,638.889,30.556,N
1748,-0.460,1.155,0.495,58.333,111.111,316.667,697.222,58.333,N
1749,0.100,0.750,-0.140,161.111,97.222,255.556,675.000,22.222,N
1750,0.005,1.140,0.105,116.667,113.889,391.667,666.667,8.333,N
1751,0.055,2.240,1.420,197.222,116.667,363.889,658.333,8.333,Q
1752,-0.165,0.745,-0.385,136.111,88.889,275.000,669.444,11.111,N
1753,-0.230,0.915,-0.245,113.889,86.111,272.222,636.111,33.333,N
1754,-0.495,1.355,0.665,113.889,111.111,197.222,638.889,2.778,N
1755,-0.425,0.440,-0.705,175.000,111.111,122.222,641.667,2.778,N
1756,-0.170,1.145,0.295,144.444,108.333,400.000,666.667,25.000,N
1757,0.200,1.430,0.460,141.667,116.667,400.000,666.667,0.000,N
1758,0.380,1.475,-0.195,138.889,88.889,363.889,691.667,25.000,N
1759,1.130,1.235,0.090,191.667,91.667,288.889,694.444,2.778,N
1760,0.245,1.350,0.070,77.778,91.667,297.222,652.778,41.667,N
1761,0.010,1.380,0.310,141.667,108.333,294.444,641.667,11.111,N
1762,0.130,1.315,-0.370,197.222,91.667,291.667,472.222,169.444,Q
1763,0.435,1.420,-0.270,197.222,116.667,116.667,802.778,330.556,N
1764,-0.085,0.575,0.855,169.444,94.444,166.667,658.333,144.444,N
1765,-0.660,0.280,0.715,136.111,116.667,238.889,661.111,2.778,N
1766,-0.240,1.385,-0.210,163.889,116.667,333.333,661.111,0.000,N
1767,-0.220,0.670,-0.300,150.000,91.667,297.222,672.222,11.111,N
1768,-0.165,0.860,-0.315,133.333,113.889,319.444,666.667,5.556,N
1769,-0.255,0.960,-0.200,141.667,113.889,308.333,661.111,5.556,N
1770,-0.165,1.080,-0.200,136.111,113.889,308.333,652.778,8.333,N
1771,0.080,0.990,1.515,80.556,83.333,355.556,627.778,25.000,N
1772,0.375,1.270,0.085,197.222,97.222,125.000,625.000,2.778,N
1773,-0.940,0.560,-0.145,58.333,116.667,380.556,630.556,5.556,N
1774,0.290,1.125,0.375,155.556,102.778,280.556,658.333,27.778,N
1775,-0.010,1.135,-0.130,141.667,116.667,319.444,680.556,22.222,N
1776,-0.065,1.135,-0.075,155.556,100.000,308.333,680.556,0.000,N
1777,-0.070,1.110,0.040,152.778,105.556,297.222,672.222,8.333,N
1778,-0.105,1.055,-0.185,150.000,100.000,291.667,647.222,25.000,N
1779,-0.100,1.010,-0.100,150.000,113.889,308.333,641.667,5.556,N
1780,-0.055,1.215,-0.050,133.333,113.889,311.111,630.556,11.111,N
1781,-0.055,1.285,0.095,147.222,111.111,308.333,638.889,8.333,N
1782,0.125,1.335,0.070,133.333,113.889,308.333,647.222,8.333,N
1783,0.040,1.295,-0.080,138.889,105.556,316.667,644.444,2.778,N
1784,-0.095,1.120,-0.130,144.444,116.667,311.111,675.000,30.556,N
1785,-0.095,1.135,-0.150,141.667,100.000,319.444,672.222,2.778,N
1786,0.525,1.555,-0.070,144.444,113.889,244.444,694.444,22.222,N
1787,-0.490,1.910,0.720,177.778,111.111,166.667,675.000,19.444,N
1788,0.525,1.380,0.040,130.556,91.667,102.778,658.333,16.667,N
1789,-0.450,0.715,-0.765,141.667,111.111,269.444,622.222,36.111,N
1790,-0.445,0.065,0.180,1262736.111,102.778,405.556,630.556,8.333,N
1791,0.345,1.075,-0.155,186.111,116.667,313.889,638.889,8.333,N
1792,-0.330,1.040,-0.340,138.889,108.333,288.889,666.667,27.778,N
1793,-0.275,1.025,-0.115,147.222,116.667,319.444,677.778,11.111,N
1794,-0.135,1.140,-0.105,141.667,116.667,319.444,680.556,2.778,N
1795,-0.185,1.160,-0.100,136.111,116.667,319.444,683.333,2.778,N
1796,-0.185,1.060,-0.170,138.889,100.000,291.667,652.778,30.556,N
1797,-0.190,1.140,-0.125,136.111,111.111,305.556,658.333,5.556,N
1798,-0.130,1.230,-0.045,133.333,113.889,305.556,655.556,2.778,N
1799,-0.065,1.480,-0.035,58.333,91.667,308.333,483.333,172.222,V
1800,0.560,1.380,0.655,141.667,83.333,308.333,775.000,291.667,N
1801,0.105,1.000,0.775,41.667,86.111,180.556,652.778,122.222,N
1802,0.695,1.370,1.455,161.111,113.889,247.222,669.444,16.667,N
1803,0.000,0.990,-0.320,144.444,116.667,372.222,669.444,0.000,N
1804,-0.580,0.710,-0.710,147.222,94.444,294.444,680.556,11.111,N
1805,-0.370,1.230,-0.275,141.667,111.111,330.556,683.333,2.778,N
1806,-0.315,0.720,0.340,158.333,97.222,338.889,647.222,36.111,N
1807,0.475,1.325,0.375,147.222,88.889,377.778,622.222,25.000,N
1808,0.465,1.405,0.560,197.222,108.333,316.667,622.222,0.000,N
1809,-0.040,0.985,-0.455,144.444,100.000,297.222,655.556,33.333,N
1810,-0.445,0.795,-0.155,152.778,111.111,319.444,641.667,13.889,N
1811,-0.095,1.145,0.045,136.111,105.556,313.889,652.778,11.111,N
1812,0.240,1.550,0.290,141.667,111.111,288.889,661.111,8.333,N
1813,0.080,1.350,-0.165,144.444,116.667,327.778,666.667,5.556,N
1814,-0.055,1.290,0.070,138.889,116.667,319.444,652.778,13.889,N
1815,0.180,1.315,0.055,133.333,80.556,194.444,655.556,2.778,N
1816,-0.040,1.055,-0.270,152.778,113.889,302.778,641.667,13.889,N
1817,-0.255,1.030,-0.235,138.889,100.000,291.667,619.444,22.222,N
1818,-0.135,1.220,0.060,130.556,113.889,300.000,613.889,5.556,N
1819,-0.015,1.180,-0.170,133.333,113.889,322.222,616.667,2.778,N
1820,-0.265,0.935,-0.415,144.444,113.889,325.000,661.111,44.444,N
1821,-0.330,1.015,-0.135,141.667,116.667,330.556,683.333,22.222,N
1822,0.000,1.135,-0.030,186.111,105.556,294.444,658.333,25.000,N
1823,-0.245,1.185,-0.095,150.000,113.889,322.222,647.222,11.111,N
1824,-0.060,1.455,0.330,163.889,111.111,302.778,652.778,5.556,N
1825,0.450,1.345,-0.090,130.556,86.111,286.111,636.111,16.667,N
1826,0.020,1.320,0.320,136.111,105.556,311.111,616.667,19.444,N
1827,-0.615,0.355,-0.550,172.222,100.000,388.889,627.778,11.111,N
1828,1.030,1.620,0.160,152.778,77.778,86.111,644.444,16.667,N
1829,-0.545,2.120,-0.335,58.333,116.667,116.667,413.889,230.556,V
1830,0.150,1.105,1.110,133.333,111.111,283.333,875.000,461.111,N
1831,-0.025,0.845,-0.045,163.889,94.444,338.889,677.778,197.222,N
1832,0.325,1.355,-0.070,172.222,97.222,286.111,683.333,5.556,N
1833,-0.180,1.155,-0.190,138.889,116.667,311.111,647.222,36.111,N
1834,-0.205,1.120,-0.290,130.556,75.000,283.333,647.222,0.000,N
1835,-0.105,1.105,-0.090,147.222,86.111,291.667,616.667,30.556,N
1836,0.090,1.230,0.025,133.333,86.111,275.000,616.667,0.000,N
1837,0.060,1.460,-0.150,127.778,91.667,288.889,619.444,2.778,N
1838,-0.065,1.195,-0.095,144.444,108.333,308.333,650.000,30.556,N
1839,0.230,0.725,1.385,58.333,111.111,211.111,511.111,138.889,|
1840,0.760,1.385,0.125,147.222,94.444,308.333,152.778,358.333,N
1841,0.095,1.355,-0.150,136.111,113.889,333.333,663.889,511.111,N
1842,-0.130,1.085,-0.125,144.444,97.222,386.111,675.000,11.111,N
1843,-0.870,1.300,0.485,197.222,113.889,338.889,650.000,25.000,N
1844,0.615,1.430,-0.240,61.111,77.778,305.556,655.556,5.556,N
1845,-0.470,0.605,0.145,133.333,72.222,380.556,644.444,11.111,N
1846,-0.125,1.190,-0.310,155.556,108.333,341.667,627.778,16.667,N
1847,-0.450,1.110,-0.030,127.778,113.889,213.889,619.444,8.333,N
1848,-0.410,0.875,0.440,138.889,94.444,211.111,627.778,8.333,N
1849,0.085,1.360,-0.015,52.778,88.889,183.333,647.222,19.444,N
1850,-0.445,2.235,0.695,1301047.222,1301105.556,1301105.556,663.889,16.667,N
1851,-0.445,-0.585,1.200,1301727.778,97.222,377.778,680.556,16.667,N
1852,0.475,1.480,0.525,197.222,97.222,300.000,677.778,2.778,N
1853,0.165,0.450,0.355,158.333,83.333,275.000,652.778,25.000,N
1854,-0.445,-0.750,0.330,1303686.111,69.444,380.556,627.778,25.000,N
1855,0.305,0.030,0.515,197.222,88.889,244.444,627.778,0.000,N
1856,0.285,0.765,0.515,83.333,66.667,350.000,633.333,5.556,N
1857,-0.445,2.870,3.000,1305591.667,0.000,1217866.667,644.444,11.111,N
1858,1.140,2.315,2.540,136.111,113.889,372.222,652.778,8.333,N
1859,1.095,-2.225,-0.930,197.222,83.333,300.000,647.222,5.556,N
1860,1.575,0.590,-0.150,150.000,86.111,383.333,666.667,19.444,N
1861,0.205,1.475,0.045,172.222,111.111,152.778,672.222,5.556,N
1862,-0.555,1.205,0.170,58.333,113.889,319.444,669.444,2.778,N
1863,0.100,1.090,-0.180,177.778,80.556,113.889,647.222,22.222,N
1864,0.935,2.275,3.000,58.333,-1310122.222,-92255.556,633.333,13.889,N
1865,0.120,0.210,0.110,116.667,47.222,175.000,633.333,0.000,Q
1866,-0.380,1.235,-0.885,61.111,88.889,88.889,619.444,13.889,N
