id,Pamp,Ramp,Tamp,PR,QRS,QT,RRI,dRRI,label
1,-0.290,0.245,-0.005,188.889,105.556,391.667,794.444,36.111,/
2,-0.215,0.095,0.045,188.889,102.778,388.889,797.222,2.778,/
3,-0.245,1.425,-0.250,194.444,91.667,402.778,802.778,5.556,f
4,-0.200,0.770,-0.075,63.889,91.667,372.222,755.556,47.222,f
5,-0.235,0.350,-0.020,197.222,97.222,386.111,869.444,113.889,/
6,-0.220,0.135,-0.050,197.222,97.222,377.778,830.556,38.889,/
7,-0.310,0.315,-0.065,186.111,116.667,391.667,805.556,25.000,/
8,-0.320,0.115,-0.080,194.444,111.111,397.222,808.333,2.778,/
9,-0.300,0.225,-0.025,183.333,116.667,388.889,805.556,2.778,/
10,-0.270,1.410,-0.255,58.333,91.667,394.444,805.556,0.000,f
11,-0.130,0.840,-0.025,69.444,102.778,102.778,761.111,44.444,f
12,-0.195,0.415,0.055,186.111,100.000,388.889,850.000,88.889,/
13,-0.180,0.435,0.025,197.222,116.667,405.556,847.222,2.778,/
14,-0.220,0.270,0.045,169.444,91.667,375.000,825.000,22.222,/
15,-0.120,0.690,0.145,197.222,113.889,402.778,808.333,16.667,/
16,-0.125,0.500,0.055,188.889,108.333,391.667,794.444,13.889,/
17,-0.180,1.520,-0.180,191.667,86.111,391.667,800.000,5.556,f
18,0.875,0.950,-0.160,66.667,91.667,386.111,844.444,44.444,f
19,-0.205,0.425,0.030,155.556,105.556,391.667,750.000,94.444,/
20,-0.185,0.270,-0.050,191.667,108.333,388.889,855.556,105.556,/
21,-0.245,0.565,-0.050,177.778,108.333,394.444,813.889,41.667,/
22,-0.300,0.225,-0.090,197.222,102.778,391.667,827.778,13.889,/
23,-0.305,0.410,-0.105,177.778,83.333,327.778,805.556,22.222,/
24,-0.330,1.720,-0.455,183.333,111.111,402.778,797.222,8.333,f
25,0.810,0.930,-0.385,58.333,75.000,363.889,838.889,41.667,f
26,-0.365,0.160,-0.015,125.000,91.667,397.222,730.556,108.333,/
27,-0.100,-0.050,0.265,147.222,86.111,288.889,866.667,136.111,/
28,0.140,0.995,0.490,69.444,102.778,375.000,827.778,38.889,/
29,0.220,0.635,0.335,186.111,86.111,372.222,816.667,11.111,/
30,0.040,0.525,0.080,161.111,108.333,377.778,805.556,11.111,/
31,-0.160,1.230,-0.285,194.444,97.222,391.667,833.333,27.778,f
32,-0.225,0.740,-0.105,69.444,86.111,358.333,758.333,75.000,f
33,-0.275,0.115,-0.030,197.222,113.889,402.778,780.556,22.222,/
34,-0.230,0.340,-0.005,163.889,86.111,108.333,836.111,55.556,/
35,-0.300,0.120,-0.160,183.333,116.667,322.222,850.000,13.889,/
36,-0.365,0.155,-0.120,158.333,108.333,394.444,822.222,27.778,/
37,-0.360,1.320,-0.350,188.889,83.333,391.667,830.556,8.333,f
38,-0.265,1.110,-0.270,183.333,100.000,402.778,808.333,22.222,f
39,0.740,-0.905,-0.120,97.222,2.778,261.111,875.000,66.667,f
40,-0.305,0.015,-0.070,188.889,108.333,388.889,686.111,188.889,/
41,-0.255,0.260,0.010,194.444,91.667,375.000,800.000,113.889,/
42,-0.200,0.240,0.100,186.111,116.667,402.778,861.111,61.111,/
43,-0.205,0.215,-0.005,175.000,105.556,391.667,833.333,27.778,/
44,-0.235,0.365,0.075,188.889,100.000,388.889,816.667,16.667,/
45,-0.075,1.280,-0.085,58.333,100.000,405.556,844.444,27.778,f
46,-0.030,0.940,0.035,125.000,100.000,100.000,766.667,77.778,f
47,-0.205,0.525,0.020,175.000,108.333,394.444,777.778,11.111,/
48,-0.225,0.730,0.070,166.667,97.222,375.000,772.222,5.556,/
49,-0.175,0.235,0.095,183.333,116.667,405.556,869.444,97.222,/
50,-0.185,0.085,0.035,172.222,108.333,386.111,841.667,27.778,/
51,-0.265,0.150,-0.085,188.889,91.667,377.778,811.111,30.556,/
52,-0.330,1.515,-0.360,191.667,100.000,388.889,808.333,2.778,f
53,-0.240,1.195,-0.190,58.333,97.222,394.444,838.889,30.556,f
54,-0.170,0.445,0.120,75.000,63.889,100.000,755.556,83.333,/
55,-0.170,0.085,0.005,188.889,91.667,377.778,780.556,25.000,/
56,-0.210,0.330,-0.030,197.222,111.111,391.667,822.222,41.667,/
57,-0.200,0.105,0.100,130.556,113.889,386.111,852.778,30.556,/
58,-0.150,0.405,0.105,188.889,105.556,394.444,825.000,27.778,/
59,-0.125,0.395,0.155,136.111,116.667,405.556,827.778,2.778,/
60,-0.100,1.285,-0.155,58.333,94.444,388.889,838.889,11.111,f
61,-0.020,0.910,0.110,66.667,97.222,372.222,758.333,80.556,f
62,-0.075,0.310,0.120,177.778,91.667,372.222,777.778,19.444,/
63,-0.170,0.215,-0.020,183.333,113.889,388.889,788.889,11.111,/
64,-0.255,0.265,-0.085,175.000,111.111,380.556,861.111,72.222,/
65,-0.360,0.240,-0.080,152.778,102.778,391.667,827.778,33.333,/
66,-0.355,0.145,-0.140,186.111,102.778,388.889,816.667,11.111,/
67,-0.315,0.955,-0.365,197.222,88.889,400.000,775.000,41.667,f
68,-0.260,1.305,-0.220,191.667,100.000,394.444,841.667,66.667,f
69,0.590,0.215,-0.245,75.000,69.444,327.778,866.667,25.000,f
70,-0.285,0.240,-0.085,152.778,105.556,388.889,700.000,166.667,/
71,-0.310,-0.010,-0.175,172.222,105.556,375.000,850.000,150.000,/
72,-0.365,-0.075,-0.075,188.889,105.556,388.889,850.000,0.000,/
73,-0.310,0.240,-0.020,197.222,97.222,372.222,808.333,41.667,/
74,-0.095,0.670,0.330,83.333,116.667,319.444,805.556,2.778,/
75,0.095,1.075,0.215,61.111,102.778,355.556,786.111,19.444,Q
76,0.590,1.140,0.290,72.222,108.333,394.444,822.222,36.111,Q
77,0.125,0.630,-0.065,94.444,75.000,127.778,758.333,63.889,Q
78,-0.205,0.120,0.110,113.889,86.111,383.333,825.000,66.667,/
79,-0.385,0.200,-0.095,61.111,108.333,397.222,841.667,16.667,/
80,-0.175,0.115,0.095,186.111,100.000,327.778,825.000,16.667,/
81,-0.240,0.255,0.000,169.444,116.667,402.778,838.889,13.889,/
82,-0.230,0.160,0.055,188.889,111.111,397.222,805.556,33.333,/
83,-0.230,1.370,-0.250,188.889,80.556,388.889,797.222,8.333,f
84,0.720,0.760,-0.315,61.111,69.444,363.889,836.111,38.889,f
85,-0.365,0.105,-0.135,122.222,105.556,377.778,727.778,108.333,/
86,-0.400,0.295,-0.210,172.222,94.444,380.556,852.778,125.000,/
87,-0.430,0.070,-0.095,188.889,108.333,388.889,836.111,16.667,/
88,-0.300,0.205,0.050,183.333,105.556,391.667,813.889,22.222,/
89,-0.180,0.265,0.060,83.333,102.778,391.667,813.889,0.000,/
90,-0.225,0.340,-0.010,197.222,116.667,391.667,811.111,2.778,/
91,-0.285,1.000,-0.375,197.222,88.889,391.667,716.667,94.444,N
92,-0.245,1.165,-0.290,180.556,100.000,397.222,847.222,130.556,f
93,-0.175,0.755,-0.025,66.667,97.222,358.333,802.778,44.444,f
94,-0.210,0.675,0.165,69.444,116.667,394.444,850.000,47.222,/
95,-0.210,0.200,-0.110,188.889,88.889,355.556,822.222,27.778,/
96,-0.395,0.360,-0.150,191.667,108.333,391.667,819.444,2.778,/
97,-0.430,0.165,-0.105,177.778,108.333,372.222,800.000,19.444,/
98,-0.365,0.490,-0.060,188.889,105.556,388.889,797.222,2.778,/
99,-0.330,1.080,-0.300,50.000,72.222,391.667,747.222,50.000,f
100,-0.275,1.120,-0.345,197.222,97.222,100.000,813.889,66.667,f
101,0.990,1.120,-0.275,55.556,83.333,394.444,922.222,108.333,f
102,-0.160,0.820,0.045,58.333,94.444,375.000,769.444,152.778,f
103,-0.150,0.655,0.030,152.778,102.778,366.667,827.778,58.333,/
104,-0.300,0.535,-0.095,186.111,116.667,402.778,813.889,13.889,/
105,-0.355,0.280,0.010,41.667,94.444,377.778,805.556,8.333,/
106,-0.280,0.345,0.070,111.111,113.889,391.667,772.222,33.333,/
107,-0.190,0.585,0.100,175.000,105.556,386.111,780.556,8.333,/
108,-0.150,0.305,0.150,197.222,113.889,391.667,852.778,72.222,/
109,-0.115,1.160,-0.220,197.222,100.000,402.778,769.444,83.333,N
110,-0.090,1.190,-0.160,183.333,97.222,405.556,802.778,33.333,N
111,1.090,1.250,-0.130,55.556,80.556,391.667,902.778,100.000,f
112,-0.110,0.875,-0.065,77.778,94.444,383.333,758.333,144.444,f
113,-0.255,0.385,0.065,188.889,108.333,391.667,794.444,36.111,/
114,-0.175,0.435,0.140,180.556,97.222,386.111,772.222,22.222,/
115,-0.105,0.785,0.160,191.667,105.556,391.667,827.778,55.556,/
116,-0.100,0.670,0.160,172.222,102.778,391.667,844.444,16.667,/
117,-0.120,0.395,0.155,194.444,108.333,391.667,822.222,22.222,/
118,-0.150,0.705,0.075,186.111,100.000,388.889,825.000,2.778,/
119,-0.235,1.045,-0.350,194.444,94.444,394.444,744.444,80.556,N
120,-0.220,1.255,-0.210,186.111,100.000,388.889,838.889,94.444,f
121,-0.155,0.700,-0.065,86.111,100.000,138.889,769.444,69.444,f
122,-0.180,0.355,0.105,186.111,105.556,394.444,797.222,27.778,/
123,-0.145,0.435,0.075,130.556,100.000,377.778,844.444,47.222,/
124,-0.135,0.560,0.110,175.000,91.667,377.778,827.778,16.667,/
125,-0.175,0.715,0.085,180.556,97.222,358.333,822.222,5.556,/
126,-0.230,0.035,0.065,147.222,116.667,405.556,816.667,5.556,/
127,-0.235,0.175,0.120,169.444,88.889,377.778,811.111,5.556,/
128,-0.135,1.205,-0.180,197.222,97.222,397.222,744.444,66.667,N
129,-0.065,1.365,-0.100,188.889,97.222,397.222,836.111,91.667,f
130,-0.065,0.110,0.160,44.444,91.667,355.556,822.222,13.889,/
131,-0.120,0.275,0.150,136.111,105.556,377.778,827.778,5.556,/
132,-0.145,0.190,0.105,188.889,91.667,380.556,813.889,13.889,/
133,-0.130,0.305,0.160,177.778,94.444,291.667,825.000,11.111,/
134,-0.090,0.580,0.175,188.889,105.556,391.667,811.111,13.889,/
135,-0.125,0.105,0.105,177.778,108.333,397.222,791.667,19.444,/
136,-0.135,1.135,-0.225,183.333,86.111,394.444,730.556,61.111,N
137,-0.125,1.795,-0.160,191.667,88.889,127.778,847.222,116.667,f
138,-0.125,0.745,-0.065,83.333,100.000,152.778,841.667,5.556,f
139,-0.210,0.155,-0.055,119.444,102.778,380.556,833.333,8.333,/
140,-0.225,-0.170,0.010,113.889,88.889,361.111,836.111,2.778,/
141,-0.100,0.035,0.340,94.444,111.111,386.111,808.333,27.778,/
142,0.805,-0.770,0.290,119.444,19.444,266.667,927.778,119.444,/
143,-0.020,0.270,0.235,152.778,75.000,336.111,655.556,272.222,/
144,-0.155,0.095,0.090,122.222,108.333,397.222,775.000,119.444,/
145,-0.170,1.085,-0.245,183.333,80.556,388.889,836.111,61.111,f
146,-0.190,1.055,-0.210,69.444,86.111,383.333,811.111,25.000,N
147,-0.085,1.220,-0.220,183.333,102.778,133.333,866.667,55.556,f
148,-0.195,0.745,-0.105,66.667,91.667,336.111,797.222,69.444,f
149,0.000,0.120,0.580,63.889,105.556,391.667,825.000,27.778,/
150,0.350,0.535,0.300,66.667,100.000,258.333,780.556,44.444,/
151,-0.035,0.325,0.150,144.444,113.889,397.222,769.444,11.111,/
152,-0.080,0.005,0.155,136.111,102.778,375.000,844.444,75.000,/
153,-0.140,-0.090,0.020,66.667,94.444,319.444,844.444,0.000,/
154,-0.330,-0.350,-0.110,141.667,100.000,341.667,816.667,27.778,/
155,-0.415,-0.240,-0.155,183.333,97.222,338.889,825.000,8.333,/
156,-0.410,0.870,-0.395,130.556,100.000,169.444,786.111,38.889,f
157,-0.335,0.885,-0.335,166.667,91.667,383.333,766.667,19.444,N
158,-0.225,1.630,-0.220,197.222,88.889,388.889,802.778,36.111,f
159,-0.115,0.990,0.245,94.444,102.778,147.222,800.000,2.778,f
160,-0.185,0.185,0.360,172.222,102.778,344.444,852.778,52.778,/
161,0.145,0.115,0.465,122.222,116.667,377.778,822.222,30.556,/
162,0.625,0.160,0.845,144.444,83.333,383.333,838.889,16.667,/
163,0.175,0.420,0.745,80.556,113.889,372.222,816.667,22.222,/
164,0.785,0.755,0.855,163.889,91.667,380.556,816.667,0.000,/
165,0.445,0.560,0.410,180.556,66.667,327.778,777.778,38.889,/
166,-0.160,0.080,-0.030,69.444,111.111,386.111,775.000,2.778,/
167,-0.465,-0.375,-0.270,58.333,94.444,300.000,850.000,75.000,/
168,-0.405,0.675,-0.535,194.444,94.444,163.889,813.889,36.111,f
169,-0.550,0.540,-0.530,97.222,97.222,261.111,694.444,119.444,N
170,-0.415,0.725,-0.315,94.444,77.778,355.556,869.444,175.000,f
171,0.775,0.400,0.155,63.889,88.889,380.556,861.111,8.333,f
172,-0.190,0.680,0.110,113.889,66.667,194.444,730.556,130.556,f
173,-0.115,0.900,0.120,66.667,91.667,308.333,769.444,38.889,f
174,-0.030,0.120,0.260,138.889,88.889,361.111,825.000,55.556,/
175,-0.035,0.180,0.170,141.667,105.556,322.222,841.667,16.667,/
176,-0.140,0.095,0.265,122.222,94.444,361.111,825.000,16.667,/
177,0.010,0.280,0.145,183.333,105.556,388.889,836.111,11.111,/
178,-0.170,-0.055,0.140,80.556,88.889,327.778,811.111,25.000,/
179,-0.135,0.040,0.190,180.556,111.111,388.889,800.000,11.111,/
180,-0.090,-0.065,0.390,136.111,80.556,322.222,775.000,25.000,/
181,0.015,0.155,0.265,186.111,100.000,277.778,783.333,8.333,/
182,0.075,-0.090,0.370,66.667,102.778,336.111,841.667,58.333,/
183,0.055,0.375,0.240,61.111,111.111,386.111,822.222,19.444,/
184,-0.095,0.945,-0.250,194.444,111.111,366.667,722.222,100.000,N
185,-0.015,1.145,-0.195,80.556,105.556,397.222,802.778,80.556,N
186,0.065,0.980,-0.150,130.556,86.111,244.444,819.444,16.667,N
187,-0.005,1.385,-0.090,47.222,75.000,125.000,816.667,2.778,f
188,-0.250,1.130,-0.140,58.333,91.667,397.222,808.333,8.333,f
189,0.795,0.365,-0.105,75.000,105.556,202.778,866.667,58.333,f
190,-0.140,0.885,-0.140,150.000,63.889,363.889,761.111,105.556,f
191,-0.005,0.470,0.200,58.333,91.667,272.222,827.778,66.667,/
192,-0.010,0.475,0.245,108.333,94.444,263.889,822.222,5.556,/
193,0.100,0.460,0.450,155.556,102.778,358.333,816.667,5.556,/
194,0.065,0.325,0.380,144.444,100.000,341.667,800.000,16.667,/
195,0.170,0.240,0.370,63.889,77.778,211.111,772.222,27.778,/
196,0.000,0.275,0.050,136.111,94.444,330.556,797.222,25.000,/
197,-0.260,0.345,-0.005,175.000,108.333,383.333,841.667,44.444,/
198,-0.315,0.190,-0.005,186.111,94.444,333.333,825.000,16.667,/
199,-0.265,1.060,-0.455,144.444,86.111,388.889,772.222,52.778,N
200,-0.280,1.055,-0.360,191.667,86.111,388.889,783.333,11.111,N
201,-0.275,0.925,-0.085,175.000,83.333,377.778,872.222,88.889,f
202,-0.225,0.855,0.110,125.000,69.444,100.000,752.778,119.444,f
203,-0.120,0.775,0.170,36.111,83.333,366.667,777.778,25.000,/
204,-0.115,0.245,0.155,186.111,91.667,308.333,850.000,72.222,/
205,-0.120,0.185,0.125,144.444,116.667,383.333,830.556,19.444,/
206,-0.150,0.765,0.165,169.444,116.667,388.889,808.333,22.222,/
207,-0.025,0.420,0.645,161.111,105.556,330.556,830.556,22.222,/
208,0.290,-0.015,0.670,188.889,91.667,352.778,822.222,8.333,/
209,0.300,0.355,0.315,77.778,86.111,355.556,783.333,38.889,/
210,-0.110,0.840,-0.235,197.222,83.333,88.889,738.889,44.444,f
211,-0.330,0.595,-0.525,194.444,83.333,380.556,752.778,13.889,N
212,-0.330,0.610,-0.445,58.333,100.000,405.556,922.222,169.444,f
213,-0.400,0.650,-0.285,108.333,94.444,355.556,775.000,147.222,f
214,-0.390,-0.080,-0.035,133.333,116.667,405.556,841.667,66.667,/
215,-0.335,0.155,-0.060,97.222,88.889,350.000,813.889,27.778,/
216,-0.305,0.215,0.005,183.333,105.556,394.444,805.556,8.333,/
217,-0.305,-0.120,0.015,122.222,88.889,377.778,783.333,22.222,/
218,-0.375,0.045,-0.010,188.889,111.111,338.889,786.111,2.778,/
219,-0.340,0.115,-0.070,197.222,100.000,375.000,830.556,44.444,/
220,-0.340,0.025,-0.060,100.000,97.222,369.444,827.778,2.778,/
221,-0.140,0.770,-0.420,172.222,113.889,400.000,755.556,72.222,N
222,-0.165,0.980,-0.265,161.111,102.778,394.444,772.222,16.667,N
223,0.015,0.930,0.015,97.222,86.111,183.333,880.556,108.333,f
224,0.985,0.585,-0.070,52.778,61.111,375.000,827.778,52.778,f
225,-0.085,0.850,0.315,55.556,100.000,338.889,708.333,119.444,f
226,-0.055,0.255,0.165,169.444,113.889,383.333,841.667,133.333,/
227,0.220,0.555,0.450,63.889,100.000,391.667,833.333,8.333,/
228,-0.095,0.070,-0.130,194.444,111.111,388.889,808.333,25.000,/
229,-0.430,-0.220,-0.175,194.444,111.111,400.000,830.556,22.222,/
230,-0.420,-0.145,-0.095,136.111,102.778,386.111,825.000,5.556,/
231,-0.350,0.440,0.065,58.333,105.556,330.556,788.889,36.111,/
232,-0.295,0.190,-0.025,75.000,100.000,327.778,780.556,8.333,/
233,-0.355,-0.175,-0.005,197.222,100.000,388.889,811.111,30.556,/
234,-0.280,0.130,0.070,130.556,105.556,391.667,822.222,11.111,/
235,-0.275,-0.360,0.805,125.000,19.444,50.000,786.111,36.111,/
236,-0.265,-0.040,0.085,161.111,105.556,391.667,886.111,100.000,/
237,-0.190,0.935,-0.345,188.889,111.111,400.000,705.556,180.556,N
238,-0.240,0.815,-0.260,161.111,83.333,366.667,805.556,100.000,N
239,-0.225,0.720,-0.295,166.667,88.889,97.222,791.667,13.889,f
240,-0.235,1.705,-0.300,113.889,100.000,138.889,786.111,5.556,f
241,-0.250,1.025,-0.310,177.778,80.556,386.111,847.222,61.111,f
242,-0.215,0.855,-0.225,158.333,105.556,388.889,841.667,5.556,f
243,-0.175,0.970,-0.230,141.667,94.444,400.000,838.889,2.778,f
244,-0.090,0.890,-0.215,94.444,111.111,386.111,827.778,11.111,f
245,0.775,0.695,-0.250,55.556,77.778,372.222,841.667,13.889,f
246,0.710,0.370,-0.215,63.889,69.444,369.444,797.222,44.444,f
247,0.875,0.550,-0.120,55.556,66.667,380.556,763.889,33.333,f
248,0.945,0.570,0.000,72.222,77.778,391.667,830.556,66.667,f
249,1.025,0.880,-0.020,63.889,75.000,358.333,825.000,5.556,f
250,0.975,0.650,-0.110,61.111,75.000,366.667,822.222,2.778,f
251,0.830,0.370,-0.150,63.889,66.667,352.778,841.667,19.444,f
252,0.970,0.745,-0.060,52.778,75.000,388.889,805.556,36.111,f
253,-0.065,0.895,-0.095,175.000,94.444,402.778,802.778,2.778,f
254,-0.090,1.030,-0.130,72.222,97.222,400.000,752.778,50.000,f
255,0.155,0.855,0.195,133.333,91.667,200.000,780.556,27.778,Q
256,0.345,1.470,0.035,69.444,86.111,211.111,827.778,47.222,Q
257,0.145,1.840,-0.050,77.778,91.667,130.556,813.889,13.889,f
258,0.055,1.815,-0.065,172.222,91.667,125.000,825.000,11.111,f
259,0.015,1.180,-0.080,183.333,94.444,105.556,825.000,0.000,f
260,-0.085,1.180,-0.175,166.667,97.222,391.667,783.333,41.667,N
261,-0.110,1.300,-0.105,169.444,83.333,391.667,755.556,27.778,N
262,-0.100,1.310,-0.165,144.444,100.000,402.778,744.444,11.111,N
263,-0.100,1.230,-0.265,166.667,102.778,386.111,802.778,58.333,N
264,-0.140,1.105,-0.245,188.889,94.444,388.889,808.333,5.556,N
265,-0.105,1.135,-0.165,183.333,94.444,391.667,805.556,2.778,N
266,-0.055,1.135,-0.125,163.889,97.222,405.556,819.444,13.889,N
267,-0.040,1.090,-0.240,163.889,100.000,400.000,811.111,8.333,N
268,-0.120,1.125,-0.220,161.111,94.444,397.222,783.333,27.778,N
269,-0.150,1.210,-0.200,147.222,100.000,380.556,766.667,16.667,N
270,-0.070,1.095,-0.295,169.444,77.778,388.889,769.444,2.778,N
271,-0.135,1.135,-0.210,166.667,102.778,405.556,816.667,47.222,N
272,-0.090,1.230,-0.190,152.778,86.111,391.667,808.333,8.333,N
273,-0.035,1.250,-0.215,166.667,100.000,405.556,808.333,0.000,N
274,-0.085,1.210,-0.205,169.444,100.000,400.000,816.667,8.333,N
275,-0.100,1.155,-0.215,172.222,94.444,394.444,808.333,8.333,N
276,-0.175,1.190,-0.275,163.889,94.444,394.444,772.222,36.111,N
277,-0.210,1.165,-0.300,155.556,83.333,391.667,744.444,27.778,N
278,-0.210,1.120,-0.270,166.667,100.000,394.444,794.444,50.000,N
279,-0.115,1.270,-0.255,180.556,97.222,394.444,811.111,16.667,N
280,-0.130,1.250,-0.230,172.222,83.333,391.667,802.778,8.333,N
281,-0.200,-0.010,0.145,122.222,100.000,372.222,525.000,277.778,V
282,-0.200,0.225,0.175,133.333,86.111,344.444,875.000,350.000,/
283,-0.215,0.145,0.110,197.222,100.000,372.222,816.667,58.333,/
284,-0.270,0.175,0.110,183.333,83.333,361.111,769.444,47.222,/
285,-0.275,-0.025,0.070,194.444,111.111,394.444,775.000,5.556,/
286,-0.340,0.060,0.095,194.444,108.333,394.444,830.556,55.556,/
287,-0.320,0.055,0.090,158.333,91.667,375.000,816.667,13.889,/
288,-0.335,0.025,0.050,180.556,102.778,391.667,822.222,5.556,/
289,-0.335,-0.025,0.085,183.333,113.889,402.778,833.333,11.111,/
290,-0.320,0.195,0.055,191.667,100.000,386.111,830.556,2.778,/
291,-0.345,0.125,0.075,197.222,105.556,380.556,788.889,41.667,/
292,-0.320,0.385,0.110,197.222,100.000,388.889,766.667,22.222,/
293,-0.350,0.125,0.070,183.333,111.111,400.000,816.667,50.000,/
294,-0.365,0.150,0.010,191.667,111.111,377.778,825.000,8.333,/
295,-0.410,-0.075,-0.005,197.222,116.667,394.444,822.222,2.778,/
296,-0.440,0.210,-0.045,175.000,108.333,388.889,827.778,5.556,/
297,-0.335,0.525,0.005,44.444,91.667,377.778,830.556,2.778,f
298,-0.290,0.775,0.010,47.222,94.444,380.556,805.556,25.000,f
299,-0.275,0.755,-0.060,52.778,86.111,363.889,769.444,36.111,f
300,-0.235,0.685,-0.090,77.778,97.222,141.667,797.222,27.778,f
301,-0.180,0.795,0.265,97.222,83.333,122.222,825.000,27.778,f
302,0.950,0.560,-0.160,72.222,80.556,369.444,888.889,63.889,f
303,0.920,0.745,-0.215,72.222,77.778,361.111,838.889,50.000,f
304,0.795,0.960,-0.225,52.778,77.778,386.111,811.111,27.778,f
305,-0.125,1.100,-0.130,58.333,94.444,391.667,819.444,8.333,f
306,-0.125,1.435,-0.145,158.333,91.667,380.556,763.889,55.556,f
307,-0.130,1.335,-0.195,150.000,94.444,397.222,755.556,8.333,f
308,-0.065,1.385,-0.145,100.000,111.111,391.667,822.222,66.667,f
309,-0.100,1.485,-0.215,141.667,102.778,380.556,816.667,5.556,f
310,-0.050,1.820,0.070,66.667,113.889,402.778,805.556,11.111,f
311,-0.200,1.740,-0.245,180.556,94.444,377.778,833.333,27.778,f
312,-0.095,1.920,-0.270,80.556,97.222,147.222,836.111,2.778,f
313,-0.065,1.545,-0.165,72.222,100.000,358.333,791.667,44.444,f
314,0.030,1.835,-0.215,102.778,83.333,352.778,766.667,25.000,f
315,0.010,1.405,-0.070,80.556,88.889,394.444,827.778,61.111,f
316,-0.165,1.250,-0.275,175.000,116.667,405.556,666.667,161.111,N
317,-0.105,0.725,-0.025,80.556,111.111,327.778,861.111,194.444,f
318,-0.095,0.925,0.020,61.111,83.333,372.222,836.111,25.000,f
319,-0.210,-0.005,0.035,58.333,108.333,358.333,827.778,8.333,/
320,-0.255,-0.020,-0.005,44.444,80.556,338.889,822.222,5.556,/
321,-0.105,-0.240,0.050,136.111,108.333,316.667,783.333,38.889,/
322,-0.480,0.475,-0.230,194.444,94.444,327.778,766.667,16.667,/
323,-0.430,-0.125,-0.030,169.444,116.667,377.778,825.000,58.333,/
324,-0.380,-0.120,0.000,52.778,83.333,352.778,816.667,8.333,/
325,-0.345,-0.020,0.025,169.444,75.000,327.778,833.333,16.667,/
326,-0.255,-0.095,0.180,177.778,94.444,394.444,836.111,2.778,/
327,0.010,0.515,0.545,80.556,80.556,358.333,838.889,2.778,/
328,0.210,0.370,0.565,116.667,80.556,350.000,788.889,50.000,/
329,0.110,0.380,0.545,122.222,102.778,372.222,769.444,19.444,/
330,0.040,0.900,0.350,163.889,100.000,316.667,822.222,52.778,/
331,-0.010,0.330,0.325,69.444,88.889,372.222,811.111,11.111,/
332,0.015,0.875,0.380,161.111,111.111,277.778,808.333,2.778,/
333,0.125,0.355,0.305,152.778,116.667,405.556,836.111,27.778,/
334,-0.190,0.180,0.155,97.222,116.667,394.444,833.333,2.778,/
335,-0.255,0.275,0.205,183.333,116.667,405.556,800.000,33.333,/
336,-0.200,0.135,0.200,188.889,108.333,394.444,769.444,30.556,/
337,-0.275,-0.010,0.070,197.222,97.222,377.778,808.333,38.889,/
338,-0.110,-0.725,0.300,80.556,88.889,238.889,833.333,25.000,/
339,-0.230,0.250,0.020,166.667,91.667,375.000,797.222,36.111,/
340,-0.105,0.155,0.285,152.778,116.667,405.556,847.222,50.000,/
341,-0.105,0.300,0.230,191.667,88.889,375.000,833.333,13.889,/
342,-0.065,1.185,-0.155,194.444,91.667,394.444,730.556,102.778,N
343,-0.055,1.105,-0.010,169.444,77.778,369.444,647.222,83.333,N
344,0.015,1.220,-0.005,172.222,86.111,400.000,763.889,116.667,N
345,-0.015,1.120,-0.115,175.000,94.444,388.889,772.222,8.333,N
346,-0.100,1.150,-0.235,180.556,102.778,391.667,791.667,19.444,N
347,-0.075,1.165,-0.100,172.222,94.444,394.444,808.333,16.667,N
348,-0.120,1.095,-0.110,169.444,80.556,391.667,797.222,11.111,N
349,-0.015,1.255,-0.165,163.889,100.000,388.889,825.000,27.778,N
350,0.040,1.230,-0.090,150.000,86.111,363.889,794.444,30.556,N
351,0.030,1.225,-0.145,155.556,116.667,402.778,744.444,50.000,N
352,-0.065,1.270,-0.180,166.667,86.111,391.667,769.444,25.000,N
353,-0.075,1.180,-0.080,166.667,94.444,397.222,786.111,16.667,N
354,0.080,1.250,-0.105,152.778,102.778,397.222,797.222,11.111,N
355,0.000,1.110,-0.125,63.889,100.000,391.667,800.000,2.778,N
356,0.170,1.015,-0.035,180.556,72.222,80.556,805.556,5.556,N
357,0.155,1.185,0.040,177.778,94.444,388.889,827.778,22.222,N
358,0.115,1.230,-0.155,175.000,75.000,375.000,758.333,69.444,N
359,0.165,1.160,-0.110,61.111,75.000,86.111,747.222,11.111,N
360,0.110,1.245,-0.040,88.889,94.444,377.778,808.333,61.111,N
361,0.110,1.295,0.090,119.444,111.111,400.000,769.444,38.889,N
362,0.080,1.330,0.005,161.111,116.667,405.556,811.111,41.667,N
363,0.085,1.185,-0.135,177.778,88.889,391.667,827.778,16.667,N
364,-0.035,1.245,-0.230,172.222,102.778,405.556,805.556,22.222,N
365,-0.180,0.995,-0.285,172.222,72.222,83.333,822.222,16.667,f
366,-0.365,0.805,-0.490,163.889,116.667,158.333,758.333,63.889,f
367,-0.430,0.745,-0.370,152.778,97.222,405.556,769.444,11.111,N
368,-0.215,0.950,-0.305,194.444,88.889,97.222,827.778,58.333,f
369,-0.120,0.760,-0.245,177.778,72.222,80.556,808.333,19.444,f
370,-0.285,0.800,-0.560,186.111,116.667,394.444,813.889,5.556,N
371,-0.250,1.105,-0.185,77.778,108.333,116.667,847.222,33.333,f
372,0.090,0.995,-0.130,158.333,72.222,175.000,841.667,5.556,f
373,0.075,0.950,-0.230,91.667,105.556,388.889,772.222,69.444,f
374,-0.145,1.045,-0.170,172.222,91.667,100.000,777.778,5.556,f
375,-0.040,1.130,-0.150,175.000,108.333,397.222,813.889,36.111,f
376,-0.015,1.210,0.050,180.556,102.778,166.667,813.889,0.000,f
377,-0.075,0.980,-0.100,69.444,86.111,383.333,825.000,11.111,f
378,0.205,1.155,-0.040,177.778,108.333,180.556,811.111,13.889,f
379,0.110,1.060,0.090,100.000,80.556,130.556,844.444,33.333,f
380,0.115,1.290,0.060,72.222,80.556,358.333,819.444,25.000,f
381,0.135,1.175,-0.165,197.222,86.111,175.000,755.556,63.889,Q
382,0.415,1.365,0.405,166.667,75.000,138.889,825.000,69.444,Q
383,0.930,1.730,0.585,125.000,77.778,236.111,805.556,19.444,Q
384,0.990,1.650,0.150,197.222,116.667,402.778,816.667,11.111,Q
385,0.205,1.590,0.145,188.889,66.667,363.889,850.000,33.333,f
386,0.465,1.720,0.295,108.333,94.444,172.222,833.333,16.667,f
387,0.180,0.845,0.030,183.333,63.889,261.111,808.333,25.000,f
388,-0.035,0.995,0.245,172.222,77.778,366.667,777.778,30.556,Q
389,0.140,1.440,0.275,172.222,105.556,216.667,791.667,13.889,Q
390,0.085,1.240,0.090,141.667,83.333,161.111,822.222,30.556,Q
391,0.105,1.265,-0.015,166.667,75.000,86.111,800.000,22.222,Q
392,0.050,1.110,-0.060,125.000,94.444,108.333,858.333,58.333,Q
393,0.805,0.895,1.085,63.889,88.889,394.444,863.889,5.556,Q
394,0.910,0.485,0.175,63.889,52.778,261.111,847.222,16.667,Q
395,0.910,0.915,0.140,63.889,44.444,294.444,788.889,58.333,Q
396,0.470,0.665,0.420,91.667,69.444,108.333,702.778,86.111,Q
397,0.205,1.005,0.265,144.444,105.556,297.222,825.000,122.222,f
398,0.000,0.435,0.040,108.333,72.222,347.222,808.333,16.667,/
399,0.875,-0.980,-0.060,88.889,13.889,277.778,891.667,83.333,/
400,-0.520,-0.255,-0.225,133.333,108.333,338.889,758.333,133.333,/
401,-0.450,-0.200,-0.080,108.333,108.333,358.333,844.444,86.111,/
402,-0.275,0.600,0.145,125.000,77.778,352.778,802.778,41.667,/
403,-0.040,1.190,0.640,191.667,97.222,316.667,769.444,33.333,/
404,0.060,0.020,0.410,136.111,50.000,355.556,802.778,33.333,/
405,0.425,0.890,0.420,161.111,69.444,369.444,811.111,8.333,/
406,0.225,0.370,0.325,44.444,91.667,313.889,808.333,2.778,/
407,0.995,-0.110,0.300,44.444,58.333,241.667,877.778,69.444,/
408,-0.110,0.075,0.120,111.111,111.111,386.111,797.222,80.556,/
409,-0.130,-0.025,0.115,197.222,116.667,394.444,838.889,41.667,/
410,-0.145,0.270,0.115,166.667,116.667,375.000,766.667,72.222,/
411,-0.320,-0.035,-0.060,197.222,108.333,358.333,788.889,22.222,/
412,-0.190,-0.065,0.140,197.222,111.111,400.000,816.667,27.778,/
413,-0.200,0.065,0.160,169.444,88.889,361.111,794.444,22.222,/
414,-0.145,0.265,0.185,77.778,113.889,375.000,827.778,33.333,/
415,-0.170,0.080,0.020,188.889,102.778,369.444,841.667,13.889,/
416,-0.245,0.310,0.035,194.444,111.111,369.444,838.889,2.778,/
417,-0.275,0.335,0.070,175.000,113.889,397.222,794.444,44.444,/
418,-0.300,0.145,0.015,191.667,108.333,391.667,766.667,27.778,/
419,-0.355,0.030,0.070,194.444,108.333,391.667,819.444,52.778,/
420,-0.255,0.120,0.135,197.222,100.000,388.889,802.778,16.667,/
421,-0.295,0.130,0.030,83.333,116.667,405.556,802.778,0.000,/
422,-0.295,0.130,0.080,83.333,113.889,391.667,830.556,27.778,/
423,-0.225,0.100,0.220,66.667,116.667,405.556,852.778,22.222,/
424,-0.110,0.290,0.265,86.111,100.000,388.889,816.667,36.111,/
425,-0.090,0.230,0.210,194.444,108.333,388.889,777.778,38.889,/
426,-0.180,0.225,0.175,169.444,100.000,388.889,805.556,27.778,/
427,-0.225,0.435,0.085,66.667,113.889,391.667,797.222,8.333,/
428,-0.275,0.220,0.000,188.889,88.889,375.000,805.556,8.333,/
429,-0.365,-0.015,-0.075,197.222,108.333,388.889,841.667,36.111,/
430,-0.410,-0.005,-0.025,180.556,111.111,394.444,833.333,8.333,/
431,-0.365,0.065,0.005,169.444,105.556,391.667,841.667,8.333,/
432,-0.370,0.235,-0.015,66.667,86.111,375.000,780.556,61.111,/
433,-0.390,0.070,0.035,47.222,97.222,375.000,780.556,0.000,/
434,-0.300,0.225,0.085,194.444,113.889,402.778,813.889,33.333,/
435,-0.250,0.105,0.070,194.444,94.444,377.778,797.222,16.667,/
436,-0.270,0.300,0.030,191.667,108.333,391.667,816.667,19.444,/
437,-0.290,0.440,0.095,52.778,108.333,397.222,841.667,25.000,/
438,-0.210,0.205,0.170,191.667,108.333,391.667,855.556,13.889,/
439,-0.220,0.760,0.015,152.778,116.667,391.667,794.444,61.111,f
440,-0.255,0.835,-0.135,69.444,88.889,130.556,769.444,25.000,f
441,-0.320,1.000,-0.345,172.222,100.000,388.889,861.111,91.667,f
442,-0.300,1.395,-0.330,172.222,94.444,372.222,744.444,116.667,f
443,-0.295,0.950,-0.345,172.222,97.222,405.556,758.333,13.889,N
444,-0.220,1.025,-0.245,166.667,94.444,405.556,797.222,38.889,N
445,-0.170,1.095,-0.225,183.333,83.333,388.889,788.889,8.333,N
446,-0.105,1.115,-0.165,169.444,94.444,405.556,794.444,5.556,N
447,-0.115,1.130,-0.120,175.000,83.333,372.222,738.889,55.556,N
448,-0.050,1.210,-0.040,169.444,86.111,391.667,744.444,5.556,N
449,0.030,1.265,-0.025,166.667,94.444,400.000,794.444,50.000,N
450,0.025,1.265,-0.060,175.000,80.556,386.111,761.111,33.333,N
451,-0.035,1.175,-0.180,186.111,100.000,394.444,780.556,19.444,N
452,-0.115,1.140,-0.240,180.556,97.222,394.444,805.556,25.000,N
453,-0.135,1.030,-0.275,194.444,94.444,391.667,833.333,27.778,N
454,-0.175,1.115,-0.170,183.333,83.333,388.889,794.444,38.889,N
455,-0.120,1.150,-0.095,172.222,94.444,405.556,761.111,33.333,N
456,-0.020,1.235,-0.050,194.444,102.778,394.444,794.444,33.333,N
457,0.000,1.250,-0.125,186.111,83.333,383.333,797.222,2.778,N
458,-0.035,1.130,-0.135,191.667,108.333,113.889,802.778,5.556,f
459,-0.160,1.235,-0.330,197.222,97.222,388.889,819.444,16.667,N
460,-0.255,1.115,-0.305,197.222,80.556,394.444,833.333,13.889,N
461,-0.200,1.205,-0.230,172.222,111.111,372.222,855.556,22.222,f
462,-0.160,1.160,-0.285,166.667,111.111,355.556,780.556,75.000,f
463,-0.195,1.200,-0.295,191.667,102.778,111.111,777.778,2.778,f
464,-0.180,1.810,-0.095,91.667,88.889,380.556,830.556,52.778,f
465,-0.035,1.570,-0.125,175.000,75.000,127.778,808.333,22.222,f
466,-0.330,1.560,-0.205,58.333,102.778,405.556,830.556,22.222,f
467,-0.005,1.760,-0.085,83.333,102.778,405.556,855.556,25.000,f
468,-0.005,1.655,0.005,197.222,97.222,383.333,838.889,16.667,f
469,1.190,1.590,0.395,52.778,75.000,141.667,816.667,22.222,f
470,0.835,1.330,0.010,58.333,66.667,369.444,775.000,41.667,f
471,1.270,1.060,-0.160,69.444,80.556,136.111,830.556,55.556,f
472,0.695,0.210,-0.330,77.778,72.222,341.667,800.000,30.556,f
473,0.855,0.280,-0.290,86.111,72.222,375.000,808.333,8.333,f
474,-0.215,0.915,-0.045,72.222,52.778,75.000,747.222,61.111,f
475,-0.090,0.940,0.070,55.556,102.778,102.778,847.222,100.000,f
476,0.120,1.045,0.170,66.667,100.000,388.889,827.778,19.444,f
477,0.100,0.915,0.195,41.667,75.000,338.889,777.778,50.000,f
478,0.005,0.845,0.130,58.333,94.444,94.444,800.000,22.222,f
479,-0.065,0.735,-0.040,66.667,83.333,372.222,805.556,5.556,f
480,-0.175,0.800,-0.085,61.111,77.778,361.111,794.444,11.111,f
481,-0.250,0.755,-0.155,75.000,94.444,94.444,836.111,41.667,f
482,-0.300,0.685,-0.165,86.111,86.111,136.111,838.889,2.778,f
483,-0.295,0.845,-0.085,77.778,94.444,138.889,844.444,5.556,f
484,0.785,0.490,-0.310,69.444,80.556,341.667,858.333,13.889,f
485,0.765,0.840,-0.355,61.111,75.000,383.333,769.444,88.889,f
486,0.870,1.095,-0.335,55.556,83.333,372.222,797.222,27.778,f
487,-0.250,1.225,-0.260,177.778,97.222,405.556,777.778,19.444,f
488,-0.200,1.385,-0.275,191.667,97.222,391.667,791.667,13.889,f
489,-0.210,1.650,-0.295,197.222,116.667,391.667,825.000,33.333,f
490,-0.240,1.795,-0.270,188.889,91.667,394.444,852.778,27.778,f
491,-0.175,0.975,-0.160,186.111,83.333,388.889,802.778,50.000,f
492,-0.100,1.205,-0.190,188.889,100.000,105.556,752.778,50.000,f
493,-0.185,1.110,-0.280,191.667,97.222,388.889,816.667,63.889,f
494,-0.210,1.115,-0.265,191.667,100.000,372.222,797.222,19.444,f
495,-0.165,1.005,-0.235,191.667,100.000,105.556,805.556,8.333,f
496,-0.090,1.170,-0.155,194.444,100.000,394.444,833.333,27.778,f
497,-0.070,1.475,-0.170,197.222,113.889,400.000,872.222,38.889,f
498,-0.130,1.185,-0.290,186.111,113.889,405.556,833.333,38.889,f
499,-0.265,1.075,-0.375,183.333,97.222,405.556,800.000,33.333,f
500,0.720,0.505,-0.285,77.778,83.333,375.000,838.889,38.889,f
501,-0.225,0.735,0.015,97.222,94.444,136.111,722.222,116.667,f
502,-0.235,0.840,-0.175,88.889,91.667,355.556,797.222,75.000,f
503,-0.215,0.595,-0.105,58.333,91.667,341.667,833.333,36.111,f
504,-0.360,-0.020,-0.110,183.333,113.889,402.778,838.889,5.556,/
505,-0.410,0.355,-0.085,166.667,97.222,372.222,850.000,11.111,/
506,-0.345,0.090,-0.060,175.000,88.889,358.333,791.667,58.333,/
507,-0.310,0.320,0.000,155.556,102.778,372.222,783.333,8.333,/
508,-0.270,0.330,-0.025,183.333,108.333,383.333,808.333,25.000,/
509,-0.295,-0.035,0.025,122.222,105.556,394.444,786.111,22.222,/
510,-0.250,0.295,0.045,197.222,116.667,405.556,813.889,27.778,/
511,-0.270,0.075,-0.020,188.889,108.333,397.222,841.667,27.778,/
512,-0.360,0.005,-0.135,177.778,113.889,391.667,855.556,13.889,/
513,-0.490,0.070,-0.115,180.556,116.667,391.667,802.778,52.778,/
514,-0.395,-0.070,0.015,172.222,108.333,394.444,775.000,27.778,/
515,-0.370,-0.095,0.010,197.222,97.222,327.778,822.222,47.222,/
516,-0.385,0.135,-0.015,188.889,100.000,358.333,788.889,33.333,/
517,-0.430,-0.170,-0.120,191.667,91.667,377.778,788.889,0.000,/
518,-0.465,0.070,-0.150,183.333,116.667,394.444,825.000,36.111,/
519,-0.435,0.000,-0.120,194.444,111.111,394.444,861.111,36.111,/
520,-0.350,0.965,-0.440,188.889,97.222,388.889,730.556,130.556,N
521,-0.320,0.915,-0.285,177.778,94.444,386.111,708.333,22.222,N
522,-0.210,1.040,-0.220,194.444,83.333,108.333,811.111,102.778,f
523,-0.195,1.105,-0.225,194.444,97.222,125.000,805.556,5.556,f
524,-0.245,1.670,-0.315,188.889,102.778,113.889,794.444,11.111,f
525,-0.295,1.095,-0.325,194.444,111.111,388.889,816.667,22.222,f
526,-0.290,1.140,-0.305,197.222,111.111,386.111,833.333,16.667,f
527,-0.310,1.120,-0.265,197.222,108.333,397.222,858.333,25.000,f
528,-0.240,1.325,-0.260,183.333,86.111,363.889,825.000,33.333,f
529,-0.215,1.255,-0.285,186.111,111.111,386.111,794.444,30.556,f
530,-0.215,1.335,-0.280,191.667,116.667,394.444,822.222,27.778,f
531,0.980,0.890,-0.220,55.556,63.889,380.556,808.333,13.889,f
532,-0.215,0.920,-0.030,94.444,91.667,138.889,738.889,69.444,f
533,-0.220,0.855,-0.075,72.222,88.889,88.889,830.556,91.667,f
534,-0.195,0.910,0.000,44.444,91.667,375.000,869.444,38.889,f
535,-0.170,0.400,0.145,158.333,111.111,394.444,833.333,36.111,/
536,-0.150,0.325,0.075,186.111,100.000,372.222,775.000,58.333,/
537,-0.250,0.075,0.055,169.444,116.667,386.111,819.444,44.444,/
538,-0.270,0.080,0.075,194.444,108.333,388.889,788.889,30.556,/
539,-0.265,0.120,0.035,197.222,116.667,405.556,775.000,13.889,/
540,-0.265,0.510,0.085,188.889,88.889,322.222,822.222,47.222,/
541,-0.190,0.500,0.305,166.667,113.889,402.778,844.444,22.222,/
542,-0.065,0.380,0.350,172.222,111.111,400.000,838.889,5.556,/
543,0.035,0.635,0.240,188.889,86.111,375.000,797.222,41.667,/
544,-0.115,1.160,-0.275,194.444,102.778,394.444,725.000,72.222,N
545,-0.165,1.085,-0.230,172.222,83.333,388.889,794.444,69.444,N
546,-0.150,1.880,-0.200,180.556,102.778,405.556,811.111,16.667,f
547,-0.110,1.335,-0.165,58.333,100.000,394.444,858.333,47.222,f
548,1.070,0.970,-0.095,72.222,83.333,394.444,877.778,19.444,f
549,-0.060,1.020,0.350,111.111,86.111,125.000,791.667,86.111,f
550,-0.150,0.805,-0.015,69.444,88.889,361.111,805.556,13.889,f
551,-0.285,0.080,0.045,183.333,116.667,405.556,783.333,22.222,/
552,-0.305,0.350,0.025,180.556,111.111,388.889,811.111,27.778,/
553,-0.265,0.225,0.065,197.222,100.000,377.778,786.111,25.000,/
554,-0.235,0.305,0.125,116.667,116.667,405.556,786.111,0.000,/
555,-0.135,0.370,0.225,61.111,116.667,394.444,830.556,44.444,/
556,-0.110,0.270,0.180,172.222,108.333,391.667,858.333,27.778,/
557,-0.160,0.255,0.130,197.222,108.333,388.889,836.111,22.222,/
558,-0.230,0.400,0.040,194.444,108.333,388.889,783.333,52.778,/
559,-0.315,0.055,0.065,186.111,100.000,372.222,811.111,27.778,/
560,-0.370,-0.070,-0.045,191.667,105.556,391.667,802.778,8.333,/
561,-0.380,-0.020,-0.070,169.444,105.556,394.444,780.556,22.222,/
562,-0.375,1.020,-0.430,186.111,100.000,388.889,719.444,61.111,f
563,-0.305,1.025,-0.230,52.778,88.889,391.667,813.889,94.444,N
564,-0.100,1.230,-0.110,194.444,102.778,394.444,875.000,61.111,f
565,-0.065,1.405,-0.090,169.444,100.000,394.444,811.111,63.889,f
566,-0.065,1.430,-0.160,197.222,86.111,388.889,794.444,16.667,f
567,-0.105,1.290,-0.220,175.000,97.222,391.667,825.000,30.556,f
568,-0.115,1.045,-0.260,58.333,102.778,397.222,802.778,22.222,f
569,-0.190,0.935,0.665,113.889,83.333,133.333,750.000,52.778,f
570,-0.220,0.895,0.240,113.889,88.889,141.667,830.556,80.556,f
571,-0.315,0.665,-0.180,88.889,88.889,375.000,861.111,30.556,f
572,-0.265,0.085,0.015,36.111,88.889,375.000,833.333,27.778,/
573,-0.265,0.620,0.015,183.333,113.889,402.778,775.000,58.333,/
574,-0.310,0.325,-0.065,169.444,116.667,388.889,819.444,44.444,/
575,-0.400,0.045,-0.115,94.444,91.667,372.222,791.667,27.778,/
576,-0.430,0.045,-0.130,188.889,102.778,388.889,777.778,13.889,/
577,-0.390,0.040,-0.115,55.556,105.556,388.889,819.444,41.667,/
578,-0.395,0.080,-0.085,58.333,105.556,388.889,850.000,30.556,/
579,-0.365,-0.025,-0.040,197.222,111.111,394.444,838.889,11.111,/
580,-0.355,0.035,-0.035,197.222,111.111,391.667,800.000,38.889,/
581,-0.325,0.170,0.030,194.444,113.889,375.000,800.000,0.000,/
582,-0.290,0.220,0.215,158.333,108.333,391.667,794.444,5.556,/
583,-0.175,0.555,0.240,55.556,102.778,391.667,780.556,13.889,/
584,-0.105,0.545,0.140,188.889,108.333,394.444,819.444,38.889,/
585,-0.175,1.095,-0.385,194.444,113.889,402.778,741.667,77.778,N
586,-0.310,0.990,-0.355,197.222,97.222,394.444,786.111,44.444,N
587,-0.260,1.100,-0.255,197.222,97.222,375.000,844.444,58.333,f
588,-0.205,1.745,-0.270,186.111,86.111,391.667,788.889,55.556,f
589,-0.255,0.825,-0.310,197.222,97.222,388.889,811.111,22.222,f
590,-0.280,1.080,-0.315,175.000,102.778,386.111,777.778,33.333,f
591,-0.285,1.265,-0.375,177.778,94.444,397.222,788.889,11.111,f
592,-0.315,1.330,-0.380,191.667,100.000,394.444,825.000,36.111,f
593,-0.335,1.170,-0.440,197.222,116.667,405.556,861.111,36.111,f
594,-0.350,1.160,-0.390,188.889,97.222,391.667,838.889,22.222,f
595,0.875,0.955,-0.340,58.333,83.333,380.556,825.000,13.889,f
596,0.865,1.095,-0.290,55.556,86.111,380.556,816.667,8.333,f
597,0.905,0.490,-0.070,75.000,72.222,350.000,805.556,11.111,f
598,-0.005,1.010,0.170,75.000,83.333,366.667,700.000,105.556,f
599,-0.015,0.755,0.215,172.222,116.667,405.556,816.667,116.667,/
600,-0.085,0.300,0.080,197.222,113.889,402.778,844.444,27.778,/
601,-0.240,0.325,-0.075,186.111,100.000,388.889,852.778,8.333,/
602,-0.400,0.220,-0.135,186.111,88.889,369.444,805.556,47.222,/
603,-0.445,-0.005,-0.195,188.889,105.556,388.889,800.000,5.556,/
604,-0.460,-0.025,-0.105,194.444,105.556,391.667,800.000,0.000,/
605,-0.390,0.125,-0.040,180.556,113.889,388.889,775.000,25.000,/
606,-0.305,0.320,0.195,58.333,108.333,391.667,808.333,33.333,/
607,-0.140,0.340,0.255,172.222,108.333,391.667,833.333,25.000,/
608,-0.145,0.350,0.160,183.333,100.000,388.889,858.333,25.000,/
609,-0.280,0.265,0.025,183.333,113.889,402.778,816.667,41.667,/
610,-0.375,0.075,-0.025,169.444,105.556,394.444,788.889,27.778,/
611,-0.325,1.105,-0.380,177.778,100.000,397.222,722.222,66.667,N
612,-0.260,1.045,-0.270,180.556,100.000,391.667,769.444,47.222,N
613,-0.165,1.190,-0.165,183.333,111.111,402.778,775.000,5.556,f
614,-0.115,1.560,-0.165,191.667,88.889,397.222,836.111,61.111,f
615,-0.110,1.445,-0.245,197.222,102.778,405.556,875.000,38.889,f
616,-0.115,1.330,-0.160,191.667,102.778,397.222,861.111,13.889,f
617,-0.085,1.305,-0.145,58.333,94.444,397.222,800.000,61.111,f
618,0.895,0.965,-0.140,63.889,77.778,372.222,841.667,41.667,f
619,-0.125,1.010,-0.055,86.111,116.667,163.889,733.333,108.333,f
620,-0.180,0.940,-0.010,55.556,83.333,352.778,769.444,36.111,f
621,-0.220,0.260,0.050,61.111,116.667,391.667,811.111,41.667,/
622,-0.245,0.295,0.065,180.556,116.667,402.778,833.333,22.222,/
623,-0.180,-0.020,0.060,197.222,113.889,391.667,847.222,13.889,/
624,1.035,-0.500,0.265,86.111,5.556,277.778,891.667,44.444,/
625,-0.010,0.665,0.315,61.111,108.333,397.222,725.000,166.667,/
626,-0.005,0.725,0.250,175.000,113.889,391.667,797.222,72.222,/
627,-0.100,0.250,0.185,186.111,102.778,391.667,775.000,22.222,/
628,-0.255,0.790,0.055,183.333,116.667,402.778,797.222,22.222,/
629,-0.355,0.035,0.030,180.556,94.444,355.556,830.556,33.333,/
630,-0.245,0.555,0.080,191.667,108.333,394.444,861.111,30.556,/
631,-0.185,1.250,-0.305,180.556,116.667,397.222,738.889,122.222,N
632,-0.190,1.130,-0.200,175.000,91.667,386.111,761.111,22.222,N
633,-0.145,1.355,-0.215,194.444,105.556,375.000,850.000,88.889,f
634,-0.130,1.495,-0.150,169.444,102.778,363.889,797.222,52.778,f
635,-0.255,1.010,-0.445,169.444,97.222,111.111,794.444,2.778,f
636,-0.155,1.065,-0.350,58.333,105.556,394.444,813.889,19.444,f
637,0.925,0.755,-0.255,80.556,94.444,383.333,883.333,69.444,f
638,-0.195,0.920,-0.010,83.333,100.000,147.222,769.444,113.889,f
639,-0.235,0.740,-0.060,50.000,80.556,369.444,813.889,44.444,f
640,-0.250,0.395,-0.010,55.556,113.889,391.667,816.667,2.778,/
641,-0.240,0.225,0.075,191.667,111.111,377.778,794.444,22.222,/
642,-0.255,0.050,-0.060,197.222,116.667,405.556,775.000,19.444,/
643,-0.295,-0.010,-0.050,186.111,113.889,400.000,805.556,30.556,/
644,-0.315,0.100,-0.050,186.111,116.667,405.556,827.778,22.222,/
645,-0.265,0.315,0.100,88.889,116.667,402.778,852.778,25.000,/
646,-0.210,0.360,0.090,175.000,108.333,394.444,819.444,33.333,/
647,-0.215,0.410,0.060,191.667,105.556,394.444,800.000,19.444,/
648,-0.240,0.100,0.095,50.000,100.000,377.778,811.111,11.111,/
649,-0.215,0.160,0.230,186.111,102.778,391.667,769.444,41.667,/
650,-0.155,0.390,0.180,188.889,105.556,388.889,786.111,16.667,/
651,-0.055,1.120,-0.085,197.222,100.000,402.778,808.333,22.222,f
652,-0.045,1.185,-0.155,194.444,94.444,391.667,713.889,94.444,N
653,-0.055,1.165,-0.130,197.222,94.444,105.556,863.889,150.000,f
654,-0.175,1.170,-0.295,186.111,97.222,397.222,844.444,19.444,f
655,-0.230,1.155,-0.275,58.333,108.333,397.222,838.889,5.556,f
656,0.715,0.960,-0.335,55.556,77.778,366.667,802.778,36.111,f
657,0.650,0.430,-0.325,69.444,75.000,352.778,788.889,13.889,f
658,-0.315,0.595,-0.250,94.444,86.111,361.111,733.333,55.556,f
659,-0.340,0.680,-0.135,52.778,88.889,375.000,836.111,102.778,f
660,-0.360,0.240,-0.085,55.556,108.333,388.889,855.556,19.444,/
661,-0.370,-0.010,-0.115,177.778,111.111,377.778,816.667,38.889,/
662,-0.405,-0.070,-0.150,166.667,102.778,391.667,808.333,8.333,/
663,-0.420,-0.050,-0.085,194.444,108.333,391.667,811.111,2.778,/
664,-0.370,0.120,-0.035,144.444,108.333,388.889,763.889,47.222,/
665,-0.310,0.195,0.030,58.333,105.556,388.889,797.222,33.333,/
666,-0.225,0.210,0.130,186.111,116.667,391.667,827.778,30.556,/
667,-0.205,0.520,0.250,61.111,111.111,400.000,861.111,33.333,/
668,-0.070,0.420,0.195,122.222,116.667,405.556,825.000,36.111,/
669,-0.125,1.135,-0.270,186.111,102.778,394.444,733.333,91.667,N
670,-0.170,1.060,-0.205,194.444,94.444,388.889,825.000,91.667,N
671,-0.165,1.340,-0.185,186.111,83.333,391.667,822.222,2.778,f
672,-0.075,1.210,-0.150,58.333,97.222,405.556,802.778,19.444,f
673,-0.160,0.925,0.035,94.444,91.667,138.889,755.556,47.222,f
674,-0.190,0.880,-0.080,77.778,97.222,386.111,852.778,97.222,f
675,-0.270,0.500,0.025,58.333,116.667,388.889,838.889,13.889,/
676,-0.280,0.030,-0.005,163.889,111.111,366.667,811.111,27.778,/
677,-0.295,0.180,-0.015,186.111,108.333,394.444,825.000,13.889,/
678,-0.255,0.265,0.040,63.889,111.111,391.667,791.667,33.333,/
679,-0.265,0.275,0.020,169.444,116.667,405.556,769.444,22.222,/
680,-0.300,0.360,0.050,119.444,102.778,375.000,802.778,33.333,/
681,-0.300,0.305,-0.040,183.333,97.222,386.111,827.778,25.000,/
682,-0.360,0.200,-0.080,197.222,116.667,405.556,852.778,25.000,/
683,-0.355,0.295,-0.050,183.333,108.333,391.667,827.778,25.000,/
684,-0.305,1.065,-0.350,152.778,97.222,386.111,725.000,102.778,N
685,-0.210,1.035,-0.215,186.111,80.556,388.889,819.444,94.444,f
686,-0.180,1.285,-0.240,166.667,100.000,391.667,805.556,13.889,f
687,-0.125,1.180,-0.220,58.333,108.333,397.222,816.667,11.111,f
688,0.965,0.670,-0.165,80.556,83.333,391.667,844.444,27.778,f
689,-0.155,0.920,-0.010,77.778,94.444,375.000,788.889,55.556,f
690,-0.125,1.045,0.085,38.889,88.889,375.000,827.778,38.889,f
691,-0.185,0.595,0.155,150.000,116.667,391.667,808.333,19.444,/
692,-0.185,0.305,0.135,177.778,113.889,394.444,833.333,25.000,/
693,-0.200,0.485,0.075,197.222,111.111,372.222,780.556,52.778,/
694,-0.170,0.705,0.105,188.889,105.556,391.667,758.333,22.222,/
695,-0.135,0.440,0.210,55.556,102.778,391.667,800.000,41.667,/
696,-0.115,0.675,0.135,169.444,116.667,338.889,847.222,47.222,/
697,-0.170,0.370,0.140,197.222,111.111,375.000,844.444,2.778,/
698,-0.170,0.305,0.240,177.778,105.556,394.444,813.889,30.556,/
699,-0.105,0.530,0.225,141.667,97.222,380.556,830.556,16.667,/
700,-0.080,1.260,-0.150,191.667,91.667,391.667,733.333,97.222,N
701,-0.030,1.230,-0.025,183.333,88.889,394.444,725.000,8.333,N
702,0.050,1.780,-0.040,197.222,88.889,97.222,822.222,97.222,f
703,0.970,1.220,-0.190,52.778,77.778,386.111,872.222,50.000,f
704,0.880,0.860,-0.175,63.889,77.778,380.556,863.889,8.333,f
705,-0.170,0.845,0.230,111.111,102.778,144.444,755.556,108.333,f
706,-0.095,0.930,0.070,63.889,86.111,366.667,819.444,63.889,f
707,-0.145,0.490,0.115,66.667,116.667,394.444,819.444,0.000,/
708,-0.150,0.495,0.095,188.889,105.556,391.667,772.222,47.222,/
709,-0.205,0.110,0.070,197.222,94.444,380.556,788.889,16.667,/
710,-0.255,0.060,-0.050,188.889,116.667,402.778,808.333,19.444,/
711,-0.305,0.145,-0.040,58.333,113.889,397.222,855.556,47.222,/
712,-0.305,0.115,0.040,180.556,111.111,388.889,836.111,19.444,/
713,-0.265,0.130,0.070,197.222,116.667,405.556,805.556,30.556,/
714,-0.260,0.090,0.045,188.889,105.556,361.111,836.111,30.556,/
715,-0.295,0.365,0.015,194.444,113.889,391.667,791.667,44.444,/
716,-0.350,0.135,-0.040,197.222,100.000,375.000,752.778,38.889,/
717,-0.345,0.985,-0.465,169.444,88.889,391.667,738.889,13.889,N
718,-0.365,0.910,-0.415,197.222,100.000,402.778,791.667,52.778,N
719,-0.280,0.965,-0.335,188.889,88.889,388.889,877.778,86.111,f
720,-0.275,1.105,-0.330,180.556,100.000,391.667,836.111,41.667,f
721,0.835,0.875,-0.345,66.667,75.000,383.333,883.333,47.222,f
722,-0.315,0.615,-0.050,88.889,97.222,138.889,738.889,144.444,f
723,-0.320,0.735,-0.160,66.667,86.111,358.333,769.444,30.556,f
724,-0.330,0.355,-0.060,63.889,113.889,386.111,797.222,27.778,/
725,-0.305,0.095,0.030,175.000,105.556,391.667,808.333,11.111,/
726,-0.300,0.250,-0.065,141.667,91.667,377.778,850.000,41.667,/
727,-0.315,0.115,-0.060,183.333,111.111,372.222,825.000,25.000,/
728,-0.330,0.280,-0.060,180.556,116.667,405.556,816.667,8.333,/
729,-0.300,0.115,0.105,55.556,102.778,386.111,825.000,8.333,/
730,-0.225,0.240,0.065,197.222,94.444,336.111,772.222,52.778,/
731,-0.235,0.270,0.060,186.111,102.778,391.667,772.222,0.000,/
732,-0.270,0.205,-0.040,197.222,116.667,394.444,797.222,25.000,/
733,-0.310,1.005,-0.350,188.889,86.111,391.667,802.778,5.556,N
734,-0.215,1.095,-0.205,63.889,100.000,397.222,797.222,5.556,N
735,-0.105,1.285,-0.175,194.444,97.222,394.444,880.556,83.333,f
736,0.895,0.775,-0.220,69.444,83.333,361.111,886.111,5.556,f
737,-0.190,0.600,-0.140,88.889,105.556,150.000,722.222,163.889,f
738,-0.240,0.805,-0.010,52.778,86.111,361.111,763.889,41.667,f
739,-0.330,0.095,-0.065,191.667,108.333,394.444,788.889,25.000,/
740,-0.335,0.090,-0.075,194.444,111.111,386.111,822.222,33.333,/
741,-0.315,0.315,-0.040,180.556,113.889,402.778,852.778,30.556,/
742,-0.290,-0.045,0.000,188.889,108.333,391.667,825.000,27.778,/
743,-0.325,0.355,-0.020,186.111,116.667,355.556,827.778,2.778,/
744,-0.350,0.225,0.005,180.556,113.889,402.778,811.111,16.667,/
745,-0.325,0.070,-0.015,197.222,111.111,397.222,763.889,47.222,/
746,-0.290,0.985,-0.310,197.222,100.000,391.667,752.778,11.111,N
747,-0.245,1.095,-0.220,80.556,100.000,405.556,752.778,0.000,N
748,-0.115,1.275,-0.155,58.333,97.222,400.000,925.000,172.222,f
749,0.915,0.430,-0.130,75.000,72.222,347.222,863.889,61.111,f
750,-0.145,0.925,0.020,61.111,83.333,372.222,741.667,122.222,f
751,-0.225,0.225,0.085,191.667,108.333,375.000,844.444,102.778,/
752,-0.215,0.250,0.065,169.444,88.889,361.111,777.778,66.667,/
753,-0.215,0.295,0.060,186.111,105.556,377.778,769.444,8.333,/
754,-0.215,0.515,0.100,191.667,111.111,391.667,788.889,19.444,/
755,-0.225,0.450,0.055,183.333,116.667,358.333,838.889,50.000,/
756,-0.220,0.215,0.135,197.222,113.889,402.778,847.222,8.333,/
757,-0.180,0.350,0.090,194.444,111.111,388.889,813.889,33.333,/
758,-0.230,0.025,0.100,175.000,108.333,394.444,847.222,33.333,/
759,-0.230,1.090,-0.275,188.889,94.444,391.667,783.333,63.889,f
760,-0.200,1.160,-0.190,180.556,86.111,377.778,786.111,2.778,f
761,0.865,0.900,-0.180,55.556,75.000,383.333,836.111,50.000,f
762,-0.165,0.885,-0.045,77.778,108.333,391.667,761.111,75.000,f
763,-0.235,0.365,0.040,172.222,108.333,391.667,850.000,88.889,/
764,-0.250,0.280,-0.030,188.889,102.778,391.667,827.778,22.222,/
765,-0.305,0.055,-0.045,188.889,88.889,375.000,836.111,8.333,/
766,-0.310,-0.015,0.005,177.778,111.111,388.889,822.222,13.889,/
767,-0.305,0.015,-0.040,197.222,97.222,386.111,769.444,52.778,/
768,-0.355,-0.045,-0.005,186.111,102.778,341.667,786.111,16.667,/
769,-0.300,-0.015,0.060,197.222,113.889,402.778,797.222,11.111,/
770,-0.215,0.090,0.115,166.667,116.667,405.556,852.778,55.556,/
771,-0.200,1.120,-0.295,197.222,97.222,391.667,763.889,88.889,N
772,-0.195,1.080,-0.185,197.222,105.556,400.000,822.222,58.333,f
773,-0.135,1.325,-0.195,194.444,100.000,391.667,888.889,66.667,f
774,0.905,0.645,-0.195,66.667,91.667,375.000,838.889,50.000,f
775,-0.180,0.785,-0.040,58.333,91.667,377.778,691.667,147.222,f
776,-0.210,0.255,0.070,55.556,113.889,386.111,794.444,102.778,/
777,-0.225,0.360,0.105,197.222,116.667,394.444,830.556,36.111,/
778,-0.185,0.095,0.035,191.667,116.667,405.556,838.889,8.333,/
779,-0.190,0.240,0.065,194.444,108.333,391.667,822.222,16.667,/
780,-0.190,0.430,0.125,58.333,111.111,391.667,850.000,27.778,/
781,-0.175,0.280,0.135,80.556,100.000,375.000,802.778,47.222,/
782,-0.220,0.075,0.050,186.111,100.000,338.889,772.222,30.556,/
783,-0.260,0.210,0.110,183.333,100.000,388.889,783.333,11.111,/
784,-0.240,0.155,0.045,197.222,100.000,388.889,800.000,16.667,/
785,-0.245,1.095,-0.365,183.333,83.333,391.667,802.778,2.778,N
786,-0.240,0.995,-0.215,197.222,94.444,388.889,808.333,5.556,N
787,-0.145,1.810,-0.135,197.222,108.333,400.000,858.333,50.000,f
788,0.065,1.275,-0.145,58.333,97.222,405.556,880.556,22.222,f
789,-0.125,0.790,0.075,77.778,88.889,130.556,725.000,155.556,f
790,-0.130,0.790,0.005,69.444,86.111,375.000,775.000,50.000,f
791,-0.080,0.525,0.140,58.333,116.667,386.111,802.778,27.778,/
792,-0.170,0.490,0.070,180.556,113.889,400.000,844.444,41.667,/
793,-0.245,0.240,-0.005,186.111,116.667,405.556,836.111,8.333,/
794,-0.275,0.540,-0.040,188.889,116.667,402.778,819.444,16.667,/
795,-0.295,0.305,0.035,188.889,105.556,377.778,850.000,30.556,/
796,-0.295,0.400,0.065,97.222,111.111,391.667,788.889,61.111,/
797,-0.265,0.720,0.055,197.222,111.111,375.000,752.778,36.111,/
798,-0.245,0.360,0.025,197.222,116.667,405.556,783.333,30.556,/
799,-0.235,0.675,0.050,188.889,116.667,405.556,825.000,41.667,/
800,-0.205,1.210,-0.300,177.778,97.222,391.667,791.667,33.333,N
801,-0.175,1.065,-0.235,191.667,88.889,391.667,794.444,2.778,N
802,-0.140,1.780,-0.155,63.889,97.222,402.778,891.667,97.222,f
803,1.020,1.190,-0.130,52.778,88.889,363.889,861.111,30.556,f
804,-0.090,0.935,0.070,88.889,83.333,125.000,713.889,147.222,f
805,-0.220,0.550,0.045,194.444,113.889,391.667,788.889,75.000,/
806,-0.230,0.400,0.015,180.556,116.667,394.444,800.000,11.111,/
807,-0.245,0.435,0.005,177.778,97.222,380.556,833.333,33.333,/
808,-0.245,0.295,0.055,141.667,111.111,391.667,830.556,2.778,/
809,-0.240,0.255,0.020,197.222,116.667,394.444,838.889,8.333,/
810,-0.225,0.640,0.090,186.111,102.778,391.667,822.222,16.667,/
811,-0.205,0.280,0.160,183.333,116.667,388.889,780.556,41.667,/
812,-0.225,0.245,0.115,169.444,102.778,388.889,786.111,5.556,/
813,-0.240,0.125,0.045,191.667,108.333,388.889,786.111,0.000,/
814,-0.235,1.130,-0.255,194.444,105.556,397.222,811.111,25.000,f
815,-0.150,1.130,-0.165,197.222,100.000,391.667,847.222,36.111,f
816,-0.105,1.265,-0.190,58.333,116.667,405.556,866.667,19.444,f
817,-0.125,0.850,0.230,119.444,94.444,133.333,822.222,44.444,f
818,-0.225,0.425,0.030,169.444,116.667,386.111,800.000,22.222,/
819,-0.260,0.185,-0.010,194.444,111.111,391.667,755.556,44.444,/
820,-0.290,0.025,0.010,177.778,113.889,388.889,786.111,30.556,/
821,-0.260,0.320,0.020,172.222,102.778,391.667,825.000,38.889,/
822,-0.220,0.450,0.125,197.222,100.000,377.778,827.778,2.778,/
823,-0.190,0.190,0.115,186.111,116.667,388.889,819.444,8.333,/
824,-0.235,0.215,-0.015,166.667,102.778,377.778,863.889,44.444,/
825,-0.290,0.055,-0.105,183.333,100.000,375.000,816.667,47.222,/
826,-0.405,0.955,-0.385,161.111,105.556,386.111,744.444,72.222,f
827,-0.310,0.960,-0.325,186.111,88.889,394.444,786.111,41.667,f
828,0.865,0.810,-0.295,61.111,86.111,391.667,861.111,75.000,f
829,-0.220,0.775,-0.115,80.556,97.222,375.000,772.222,88.889,f
830,-0.270,0.410,0.050,50.000,105.556,388.889,825.000,52.778,/
831,-0.280,0.190,0.020,183.333,88.889,375.000,850.000,25.000,/
832,-0.240,0.035,0.010,194.444,102.778,386.111,836.111,13.889,/
833,-0.255,0.075,0.030,183.333,116.667,405.556,775.000,61.111,/
834,-0.250,0.085,0.100,188.889,105.556,391.667,788.889,13.889,/
835,-0.270,0.215,0.120,177.778,111.111,375.000,788.889,0.000,/
836,-0.275,0.080,0.010,188.889,105.556,391.667,827.778,38.889,/
837,-0.255,0.095,0.040,186.111,102.778,391.667,830.556,2.778,/
838,-0.250,1.020,-0.335,191.667,94.444,391.667,772.222,58.333,N
839,-0.160,1.065,-0.195,194.444,86.111,394.444,880.556,108.333,f
840,0.940,0.750,-0.215,63.889,69.444,363.889,866.667,13.889,f
841,-0.180,0.925,-0.030,58.333,88.889,372.222,700.000,166.667,f
842,-0.215,0.165,0.065,58.333,111.111,394.444,786.111,86.111,/
843,-0.225,0.265,0.075,183.333,102.778,380.556,825.000,38.889,/
844,-0.225,0.295,0.050,186.111,116.667,405.556,833.333,8.333,/
845,-0.235,0.115,-0.020,188.889,102.778,388.889,819.444,13.889,/
846,-0.280,0.040,-0.025,191.667,105.556,388.889,869.444,50.000,/
847,-0.310,0.125,0.065,172.222,108.333,372.222,816.667,52.778,/
848,-0.335,0.060,-0.080,183.333,97.222,386.111,761.111,55.556,/
849,-0.245,0.520,0.055,61.111,113.889,394.444,780.556,19.444,/
850,-0.170,1.135,-0.245,194.444,100.000,391.667,733.333,47.222,N
851,-0.140,1.850,-0.215,194.444,116.667,394.444,850.000,116.667,f
852,0.855,0.575,-0.230,77.778,80.556,372.222,902.778,52.778,f
853,-0.170,0.675,-0.090,83.333,102.778,102.778,766.667,136.111,f
854,-0.190,0.080,0.020,41.667,88.889,377.778,838.889,72.222,/
855,-0.250,0.215,0.035,108.333,108.333,391.667,783.333,55.556,/
856,-0.230,0.295,-0.035,194.444,111.111,391.667,786.111,2.778,/
857,-0.260,0.095,0.020,186.111,102.778,377.778,791.667,5.556,/
858,-0.215,0.100,0.065,197.222,97.222,386.111,830.556,38.889,/
859,-0.220,0.085,0.105,69.444,105.556,394.444,819.444,11.111,/
860,-0.225,0.210,-0.010,191.667,108.333,391.667,822.222,2.778,/
861,-0.230,0.210,0.015,138.889,105.556,394.444,863.889,41.667,/
862,-0.235,1.055,-0.225,180.556,102.778,377.778,794.444,69.444,f
863,-0.145,1.165,-0.180,191.667,97.222,386.111,686.111,108.333,N
864,-0.080,1.385,-0.165,177.778,100.000,402.778,847.222,161.111,f
865,-0.090,1.050,0.485,105.556,88.889,136.111,772.222,75.000,f
866,-0.165,0.855,-0.085,83.333,100.000,388.889,825.000,52.778,f
867,-0.240,0.195,0.010,58.333,116.667,400.000,825.000,0.000,/
868,-0.280,0.330,0.035,180.556,111.111,391.667,855.556,30.556,/
869,-0.235,0.505,0.010,197.222,113.889,402.778,836.111,19.444,/
870,-0.240,0.370,0.055,175.000,111.111,394.444,777.778,58.333,/
871,-0.220,0.370,0.065,188.889,94.444,377.778,783.333,5.556,/
872,-0.270,0.155,0.070,172.222,105.556,372.222,794.444,11.111,/
873,-0.285,0.100,0.015,191.667,108.333,388.889,825.000,30.556,/
874,-0.300,0.380,-0.040,177.778,108.333,397.222,813.889,11.111,/
875,-0.260,1.095,-0.275,63.889,100.000,105.556,822.222,8.333,f
876,-0.150,1.445,-0.175,197.222,100.000,391.667,880.556,58.333,f
877,0.785,0.915,-0.120,55.556,72.222,369.444,836.111,44.444,f
878,-0.125,0.985,0.065,69.444,86.111,372.222,722.222,113.889,f
879,-0.200,0.220,0.025,180.556,111.111,394.444,791.667,69.444,/
880,-0.250,0.265,0.040,191.667,105.556,391.667,811.111,19.444,/
881,-0.235,0.315,-0.010,194.444,111.111,391.667,819.444,8.333,/
882,-0.265,0.360,-0.015,183.333,116.667,391.667,822.222,2.778,/
883,-0.290,0.260,0.025,186.111,116.667,355.556,869.444,47.222,/
884,-0.325,0.020,0.050,50.000,100.000,388.889,816.667,52.778,/
885,-0.280,0.520,-0.005,183.333,116.667,391.667,763.889,52.778,/
886,-0.335,1.420,-0.355,172.222,102.778,391.667,772.222,8.333,f
887,-0.255,1.235,-0.300,197.222,97.222,386.111,825.000,52.778,f
888,-0.230,0.935,0.355,116.667,69.444,113.889,805.556,19.444,f
889,-0.250,0.455,-0.045,47.222,94.444,380.556,825.000,19.444,/
890,-0.300,0.100,-0.015,175.000,111.111,391.667,866.667,41.667,/
891,-0.315,0.270,-0.060,172.222,102.778,391.667,827.778,38.889,/
892,-0.300,0.470,-0.005,188.889,105.556,391.667,783.333,44.444,/
893,-0.290,0.240,0.025,197.222,116.667,388.889,780.556,2.778,/
894,-0.315,0.265,-0.025,197.222,100.000,388.889,780.556,0.000,/
895,-0.315,0.005,0.015,72.222,108.333,397.222,825.000,44.444,/
896,-0.270,1.645,-0.290,191.667,88.889,394.444,816.667,8.333,f
897,-0.285,0.930,-0.325,58.333,97.222,397.222,719.444,97.222,N
898,-0.150,0.325,0.070,55.556,111.111,391.667,900.000,180.556,/
899,-0.175,0.380,0.060,158.333,91.667,375.000,797.222,102.778,/
900,-0.245,0.060,0.055,169.444,102.778,391.667,777.778,19.444,/
901,-0.245,0.040,0.000,188.889,108.333,394.444,788.889,11.111,/
902,-0.245,0.110,0.045,172.222,105.556,391.667,813.889,25.000,/
903,-0.290,0.005,0.050,194.444,97.222,386.111,808.333,5.556,/
904,-0.285,-0.020,0.045,197.222,116.667,405.556,822.222,13.889,/
905,-0.225,1.410,-0.230,166.667,97.222,402.778,863.889,41.667,f
906,-0.190,1.075,-0.230,197.222,97.222,388.889,797.222,66.667,f
907,-0.185,1.135,-0.250,183.333,97.222,402.778,825.000,27.778,f
908,-0.205,0.880,-0.090,77.778,108.333,155.556,738.889,86.111,f
909,-0.245,0.405,0.005,138.889,113.889,402.778,811.111,72.222,/
910,-0.230,0.170,-0.030,197.222,105.556,377.778,813.889,2.778,/
911,-0.270,0.265,-0.055,186.111,116.667,405.556,813.889,0.000,/
912,-0.300,0.235,0.000,97.222,113.889,402.778,863.889,50.000,/
913,-0.295,0.120,-0.055,175.000,108.333,394.444,844.444,19.444,/
914,-0.345,0.330,0.000,194.444,97.222,361.111,788.889,55.556,/
915,-0.355,0.020,-0.020,197.222,113.889,402.778,783.333,5.556,/
916,-0.285,0.410,-0.075,166.667,102.778,377.778,786.111,2.778,/
917,-0.290,1.010,-0.360,191.667,102.778,391.667,788.889,2.778,f
918,-0.300,0.970,-0.280,197.222,80.556,388.889,813.889,25.000,f
919,-0.155,1.220,-0.365,58.333,100.000,119.444,900.000,86.111,f
920,-0.240,0.700,-0.120,80.556,97.222,150.000,808.333,91.667,f
921,-0.265,0.705,-0.160,58.333,77.778,347.222,797.222,11.111,f
922,-0.350,0.400,0.000,188.889,116.667,388.889,794.444,2.778,/
923,-0.350,0.125,-0.100,172.222,102.778,391.667,783.333,11.111,/
924,-0.340,0.135,-0.085,155.556,102.778,388.889,816.667,33.333,/
925,-0.295,-0.045,0.030,188.889,105.556,394.444,802.778,13.889,/
926,-0.275,0.090,-0.010,191.667,105.556,338.889,816.667,13.889,/
927,-0.290,0.240,0.045,186.111,108.333,377.778,880.556,63.889,/
928,-0.290,0.385,0.025,188.889,105.556,394.444,819.444,61.111,/
929,-0.265,0.285,0.065,80.556,94.444,375.000,772.222,47.222,/
930,-0.190,1.155,-0.375,194.444,100.000,388.889,697.222,75.000,N
931,-0.200,1.345,-0.215,188.889,105.556,397.222,827.778,130.556,f
932,-0.195,1.245,-0.260,191.667,105.556,391.667,825.000,2.778,f
933,0.865,1.075,-0.250,58.333,97.222,391.667,847.222,22.222,f
934,-0.190,0.875,-0.135,83.333,102.778,102.778,808.333,38.889,f
935,-0.265,0.675,-0.105,69.444,86.111,375.000,836.111,27.778,f
936,-0.380,0.040,-0.080,172.222,116.667,400.000,800.000,36.111,/
937,-0.385,0.300,-0.095,166.667,105.556,394.444,783.333,16.667,/
938,-0.355,0.485,-0.165,183.333,102.778,377.778,780.556,2.778,/
939,-0.375,0.300,-0.145,194.444,113.889,391.667,811.111,30.556,/
940,-0.375,0.105,-0.040,161.111,111.111,397.222,813.889,2.778,/
941,-0.300,0.055,-0.040,186.111,102.778,391.667,841.667,27.778,/
942,-0.315,0.240,-0.100,194.444,105.556,391.667,855.556,13.889,/
943,-0.310,0.180,-0.070,197.222,116.667,388.889,808.333,47.222,/
944,-0.290,1.100,-0.330,197.222,113.889,394.444,730.556,77.778,N
945,-0.240,1.040,-0.260,197.222,88.889,394.444,805.556,75.000,f
946,0.850,1.075,-0.310,55.556,91.667,386.111,875.000,69.444,f
947,-0.265,0.700,-0.115,88.889,105.556,155.556,744.444,130.556,f
948,-0.305,0.060,-0.050,58.333,116.667,397.222,819.444,75.000,/
949,-0.290,0.325,-0.015,194.444,97.222,377.778,869.444,50.000,/
950,-0.280,0.415,-0.040,166.667,116.667,405.556,822.222,47.222,/
951,-0.280,0.120,-0.065,183.333,113.889,402.778,780.556,41.667,/
952,-0.315,0.315,-0.055,183.333,116.667,347.222,783.333,2.778,/
953,-0.320,-0.035,-0.010,183.333,116.667,405.556,802.778,19.444,/
954,-0.280,0.010,-0.040,197.222,102.778,391.667,800.000,2.778,/
955,-0.300,1.415,-0.335,69.444,111.111,402.778,800.000,0.000,f
956,-0.285,1.150,-0.280,69.444,100.000,405.556,866.667,66.667,f
957,0.830,0.875,-0.230,61.111,75.000,380.556,908.333,41.667,f
958,-0.195,0.430,0.005,44.444,80.556,358.333,736.111,172.222,/
959,-0.265,0.100,0.000,191.667,105.556,388.889,794.444,58.333,/
960,-0.285,0.335,0.015,191.667,111.111,394.444,786.111,8.333,/
961,-0.200,0.405,0.070,158.333,108.333,397.222,797.222,11.111,/
962,-0.245,0.000,0.030,172.222,108.333,327.778,800.000,2.778,/
963,-0.285,0.435,-0.080,50.000,100.000,375.000,841.667,41.667,/
964,-0.305,0.270,-0.010,188.889,105.556,394.444,855.556,13.889,/
965,-0.280,1.420,-0.265,66.667,102.778,391.667,811.111,44.444,f
966,-0.195,1.450,-0.190,197.222,94.444,400.000,802.778,8.333,f
967,-0.100,0.910,0.275,105.556,94.444,133.333,786.111,16.667,f
968,-0.130,0.705,0.065,47.222,83.333,372.222,813.889,27.778,/
969,-0.210,0.415,0.025,183.333,100.000,358.333,797.222,16.667,/
970,-0.265,0.200,-0.020,175.000,108.333,391.667,808.333,11.111,/
971,-0.290,0.115,-0.005,186.111,105.556,388.889,880.556,72.222,/
972,-0.275,0.195,0.045,188.889,105.556,391.667,833.333,47.222,/
973,-0.240,0.590,0.055,180.556,113.889,402.778,775.000,58.333,/
974,-0.200,0.475,0.105,183.333,100.000,372.222,786.111,11.111,/
975,-0.200,1.730,-0.245,191.667,86.111,394.444,805.556,19.444,f
976,-0.150,1.170,-0.245,191.667,102.778,388.889,800.000,5.556,f
977,-0.190,0.870,0.115,113.889,83.333,130.556,788.889,11.111,f
978,-0.250,0.155,-0.005,52.778,108.333,394.444,880.556,91.667,/
979,-0.275,0.190,0.000,169.444,116.667,405.556,844.444,36.111,/
980,-0.250,0.125,0.015,191.667,108.333,391.667,805.556,38.889,/
981,-0.225,0.420,0.050,197.222,97.222,375.000,788.889,16.667,/
982,-0.225,0.160,0.085,183.333,116.667,355.556,786.111,2.778,/
983,-0.210,0.165,0.090,197.222,116.667,405.556,800.000,13.889,/
984,-0.235,0.040,0.020,175.000,108.333,391.667,791.667,8.333,/
985,-0.225,1.620,-0.265,58.333,100.000,108.333,833.333,41.667,f
986,-0.115,1.245,-0.230,197.222,102.778,405.556,891.667,58.333,f
987,-0.140,0.900,-0.055,80.556,97.222,377.778,777.778,113.889,f
988,-0.195,0.150,0.070,188.889,108.333,380.556,811.111,33.333,/
989,-0.190,0.090,0.050,194.444,108.333,375.000,786.111,25.000,/
990,-0.195,0.190,0.080,172.222,108.333,388.889,800.000,13.889,/
991,-0.210,0.190,0.145,155.556,97.222,386.111,791.667,8.333,/
992,-0.180,0.250,0.075,180.556,94.444,361.111,811.111,19.444,/
993,-0.190,0.365,0.090,155.556,102.778,391.667,875.000,63.889,/
994,-0.205,0.110,0.070,186.111,100.000,388.889,830.556,44.444,/
995,-0.170,1.110,-0.240,194.444,97.222,400.000,758.333,72.222,N
996,-0.130,1.075,-0.160,180.556,97.222,391.667,800.000,41.667,f
997,-0.100,1.220,-0.175,58.333,100.000,405.556,863.889,63.889,f
998,-0.135,0.915,-0.020,94.444,94.444,144.444,752.778,111.111,f
999,-0.180,0.285,0.000,169.444,116.667,402.778,794.444,41.667,/
1000,-0.225,0.100,-0.035,91.667,94.444,375.000,872.222,77.778,/
1001,-0.285,0.135,-0.105,191.667,102.778,386.111,847.222,25.000,/
1002,-0.280,0.115,0.065,136.111,116.667,405.556,794.444,52.778,/
1003,-0.245,0.330,-0.030,194.444,116.667,336.111,786.111,8.333,/
1004,-0.275,0.355,-0.050,194.444,111.111,391.667,788.889,2.778,/
1005,-0.285,0.040,-0.025,188.889,102.778,391.667,794.444,5.556,/
1006,-0.245,1.045,-0.340,188.889,97.222,394.444,719.444,75.000,N
1007,-0.275,1.180,-0.330,197.222,108.333,405.556,877.778,158.333,f
1008,0.735,0.780,-0.285,75.000,83.333,377.778,913.889,36.111,f
1009,-0.235,0.740,-0.080,61.111,91.667,372.222,744.444,169.444,f
1010,-0.295,0.080,-0.020,183.333,116.667,394.444,822.222,77.778,/
1011,-0.330,0.275,-0.130,183.333,113.889,402.778,783.333,38.889,/
1012,-0.330,0.415,-0.070,183.333,102.778,388.889,802.778,19.444,/
1013,-0.320,0.175,0.030,166.667,100.000,388.889,780.556,22.222,/
1014,-0.265,0.145,0.135,108.333,108.333,394.444,805.556,25.000,/
1015,-0.270,0.065,-0.070,191.667,111.111,397.222,869.444,63.889,/
1016,-0.295,0.150,-0.055,183.333,116.667,405.556,825.000,44.444,/
1017,-0.290,1.040,-0.345,194.444,100.000,400.000,744.444,80.556,N
1018,-0.180,1.415,-0.205,194.444,100.000,402.778,836.111,91.667,f
1019,-0.195,0.865,0.000,88.889,91.667,147.222,791.667,44.444,f
1020,-0.275,0.270,-0.025,66.667,116.667,405.556,794.444,2.778,/
1021,-0.315,0.465,-0.060,72.222,102.778,388.889,786.111,8.333,/
1022,-0.310,0.175,-0.035,155.556,116.667,400.000,866.667,80.556,/
1023,-0.275,0.070,-0.020,75.000,108.333,391.667,852.778,13.889,/
1024,-0.270,0.055,0.035,177.778,111.111,358.333,802.778,50.000,/
1025,-0.255,0.355,0.000,169.444,116.667,405.556,791.667,11.111,/
1026,-0.265,0.045,0.015,197.222,102.778,391.667,800.000,8.333,/
1027,-0.245,1.125,-0.345,169.444,75.000,391.667,766.667,33.333,f
1028,-0.220,1.165,-0.275,180.556,100.000,394.444,825.000,58.333,f
1029,-0.220,0.865,-0.110,91.667,111.111,177.778,816.667,8.333,f
1030,-0.330,0.305,-0.065,58.333,116.667,402.778,861.111,44.444,/
1031,-0.325,0.205,-0.080,172.222,105.556,391.667,816.667,44.444,/
1032,-0.335,0.105,-0.125,188.889,105.556,391.667,816.667,0.000,/
1033,-0.385,0.120,-0.095,177.778,113.889,397.222,791.667,25.000,/
1034,-0.360,-0.030,0.030,177.778,111.111,397.222,797.222,5.556,/
1035,-0.345,0.020,-0.015,186.111,105.556,391.667,777.778,19.444,/
1036,-0.320,1.190,-0.390,69.444,105.556,138.889,813.889,36.111,f
1037,-0.235,1.135,-0.325,197.222,100.000,397.222,875.000,61.111,f
1038,-0.200,0.755,-0.125,77.778,94.444,375.000,800.000,75.000,f
1039,-0.290,0.110,0.025,183.333,116.667,402.778,825.000,25.000,/
1040,-0.290,0.195,-0.070,155.556,105.556,388.889,788.889,36.111,/
1041,-0.285,0.065,0.005,186.111,102.778,391.667,811.111,22.222,/
1042,-0.290,0.400,0.035,169.444,116.667,352.778,783.333,27.778,/
1043,-0.235,0.120,-0.010,188.889,88.889,375.000,786.111,2.778,/
1044,-0.235,0.250,0.060,188.889,88.889,375.000,866.667,80.556,/
1045,-0.220,1.215,-0.220,66.667,100.000,405.556,844.444,22.222,f
1046,0.785,0.460,-0.160,75.000,77.778,377.778,869.444,25.000,f
1047,-0.205,0.215,0.035,133.333,116.667,405.556,733.333,136.111,/
1048,-0.225,0.110,-0.015,188.889,94.444,380.556,805.556,72.222,/
1049,-0.235,0.110,0.045,183.333,102.778,391.667,794.444,11.111,/
1050,-0.255,0.260,0.025,197.222,100.000,388.889,780.556,13.889,/
1051,-0.265,0.415,-0.055,188.889,105.556,394.444,838.889,58.333,/
1052,-0.270,0.310,-0.020,191.667,108.333,394.444,852.778,13.889,/
1053,-0.245,1.180,-0.240,50.000,86.111,388.889,822.222,30.556,f
1054,-0.145,1.220,-0.185,188.889,94.444,397.222,825.000,2.778,f
1055,-0.160,0.850,-0.045,47.222,83.333,366.667,772.222,52.778,f
1056,-0.265,0.220,-0.035,152.778,100.000,375.000,805.556,33.333,/
1057,-0.310,0.050,-0.040,177.778,111.111,397.222,775.000,30.556,/
1058,-0.325,0.075,-0.070,197.222,102.778,391.667,808.333,33.333,/
1059,-0.375,0.145,-0.135,169.444,102.778,355.556,855.556,47.222,/
1060,-0.405,-0.095,-0.150,191.667,111.111,394.444,819.444,36.111,/
1061,-0.385,0.005,-0.055,191.667,108.333,391.667,833.333,13.889,/
1062,-0.345,0.855,-0.420,175.000,100.000,391.667,780.556,52.778,f
1063,-0.335,1.065,-0.330,194.444,97.222,386.111,838.889,58.333,f
1064,-0.260,0.850,-0.090,100.000,108.333,150.000,769.444,69.444,f
1065,-0.345,0.400,-0.045,58.333,116.667,397.222,786.111,16.667,/
1066,-0.340,0.010,-0.170,177.778,111.111,388.889,861.111,75.000,/
1067,-0.375,0.065,-0.125,186.111,116.667,402.778,838.889,22.222,/
1068,-0.375,0.020,-0.025,197.222,108.333,325.000,811.111,27.778,/
1069,-0.320,0.090,-0.110,197.222,97.222,386.111,802.778,8.333,/
1070,-0.370,0.365,-0.095,188.889,111.111,394.444,808.333,5.556,/
1071,-0.345,1.035,-0.360,175.000,86.111,394.444,750.000,58.333,N
1072,-0.245,0.965,-0.280,188.889,83.333,394.444,797.222,47.222,f
1073,0.755,0.580,-0.310,80.556,86.111,388.889,925.000,127.778,f
1074,-0.275,0.305,-0.105,55.556,88.889,375.000,777.778,147.222,/
1075,-0.330,0.520,-0.130,172.222,108.333,397.222,816.667,38.889,/
1076,-0.370,0.185,-0.145,188.889,86.111,375.000,830.556,13.889,/
1077,-0.385,0.080,-0.065,194.444,116.667,405.556,797.222,33.333,/
1078,-0.340,0.070,0.030,47.222,97.222,341.667,797.222,0.000,/
1079,-0.315,0.310,-0.085,186.111,116.667,405.556,772.222,25.000,/
1080,-0.325,0.280,-0.140,191.667,94.444,375.000,808.333,36.111,/
1081,-0.345,1.015,-0.380,63.889,94.444,102.778,833.333,25.000,f
1082,-0.245,1.135,-0.330,177.778,97.222,394.444,863.889,30.556,f
1083,-0.230,0.810,-0.140,75.000,91.667,377.778,800.000,63.889,f
1084,-0.295,0.605,-0.005,183.333,116.667,402.778,811.111,11.111,/
1085,-0.255,0.140,0.025,197.222,113.889,369.444,811.111,0.000,/
1086,-0.260,0.305,-0.005,166.667,105.556,380.556,772.222,38.889,/
1087,-0.260,0.460,0.030,163.889,113.889,402.778,777.778,5.556,/
1088,-0.235,0.180,0.095,194.444,111.111,375.000,863.889,86.111,/
1089,-0.250,0.090,0.045,180.556,116.667,391.667,836.111,27.778,/
1090,-0.250,1.110,-0.315,172.222,86.111,394.444,791.667,44.444,f
1091,-0.220,1.100,-0.260,194.444,94.444,386.111,822.222,30.556,f
1092,0.765,0.900,-0.245,63.889,88.889,377.778,877.778,55.556,f
1093,-0.230,0.180,0.010,58.333,88.889,372.222,733.333,144.444,/
1094,-0.255,0.380,-0.055,197.222,97.222,375.000,775.000,41.667,/
1095,-0.300,0.280,-0.110,197.222,113.889,391.667,830.556,55.556,/
1096,-0.305,0.080,-0.055,191.667,108.333,394.444,847.222,16.667,/
1097,-0.250,0.235,0.035,183.333,113.889,358.333,822.222,25.000,/
1098,-0.225,0.255,0.095,147.222,100.000,388.889,816.667,5.556,/
1099,-0.155,0.380,0.130,169.444,113.889,402.778,802.778,13.889,/
1100,-0.160,1.210,-0.175,69.444,102.778,402.778,816.667,13.889,f
1101,1.005,0.780,-0.135,63.889,75.000,369.444,816.667,0.000,f
1102,-0.165,0.395,0.065,58.333,116.667,405.556,750.000,66.667,/
1103,-0.195,0.085,0.100,169.444,100.000,372.222,850.000,100.000,/
1104,-0.200,0.175,0.040,186.111,102.778,391.667,819.444,30.556,/
1105,-0.225,0.310,0.075,188.889,105.556,394.444,833.333,13.889,/
1106,-0.215,0.560,0.080,183.333,116.667,405.556,811.111,22.222,/
1107,-0.220,0.240,0.090,186.111,105.556,391.667,805.556,5.556,/
1108,-0.220,1.270,-0.230,55.556,86.111,391.667,783.333,22.222,f
1109,-0.055,1.130,-0.200,58.333,97.222,405.556,813.889,30.556,f
1110,-0.125,0.260,0.085,63.889,86.111,375.000,800.000,13.889,/
1111,-0.180,0.370,0.080,194.444,97.222,386.111,827.778,27.778,/
1112,-0.185,0.155,0.060,188.889,116.667,405.556,819.444,8.333,/
1113,-0.230,0.090,0.005,188.889,105.556,322.222,822.222,2.778,/
1114,-0.265,0.050,0.015,175.000,94.444,377.778,822.222,0.000,/
1115,-0.280,0.235,-0.015,188.889,88.889,372.222,777.778,44.444,/
1116,-0.245,1.050,-0.335,58.333,100.000,400.000,805.556,27.778,f
1117,-0.260,1.095,-0.270,55.556,100.000,388.889,833.333,27.778,f
1118,-0.185,0.785,0.050,69.444,100.000,388.889,805.556,27.778,f
1119,-0.220,0.275,-0.020,183.333,102.778,391.667,819.444,13.889,/
1120,-0.270,0.205,-0.075,175.000,108.333,388.889,822.222,2.778,/
1121,-0.320,0.220,-0.060,194.444,113.889,394.444,819.444,2.778,/
1122,-0.310,0.050,0.065,188.889,100.000,386.111,797.222,22.222,/
1123,-0.250,0.075,0.030,191.667,108.333,391.667,766.667,30.556,/
1124,-0.235,1.145,-0.340,61.111,102.778,127.778,836.111,69.444,f
1125,-0.165,1.135,-0.260,58.333,102.778,397.222,850.000,13.889,f
1126,-0.155,0.795,0.030,77.778,94.444,372.222,783.333,66.667,f
1127,-0.190,0.220,0.090,197.222,97.222,375.000,836.111,52.778,/
1128,-0.180,0.255,0.035,197.222,111.111,388.889,813.889,22.222,/
1129,-0.220,0.190,0.080,191.667,105.556,388.889,811.111,2.778,/
1130,-0.240,0.190,0.120,175.000,105.556,391.667,766.667,44.444,/
1131,-0.240,0.335,0.055,197.222,113.889,402.778,791.667,25.000,/
1132,-0.220,1.200,-0.240,63.889,102.778,405.556,850.000,58.333,f
1133,0.920,1.010,-0.190,52.778,77.778,383.333,858.333,8.333,f
1134,-0.095,0.810,0.075,58.333,88.889,375.000,780.556,77.778,f
1135,-0.190,0.400,0.050,180.556,97.222,386.111,827.778,47.222,/
1136,-0.195,0.085,0.040,183.333,100.000,388.889,816.667,11.111,/
1137,-0.230,0.085,-0.010,175.000,94.444,375.000,777.778,38.889,/
1138,-0.300,0.085,0.035,191.667,111.111,394.444,766.667,11.111,/
1139,-0.305,0.035,-0.015,191.667,113.889,391.667,836.111,69.444,/
1140,-0.265,1.530,-0.230,69.444,100.000,388.889,822.222,13.889,f
1141,-0.170,1.200,-0.250,188.889,97.222,391.667,819.444,2.778,f
1142,-0.070,0.835,0.300,105.556,100.000,141.667,819.444,0.000,f
1143,0.300,1.475,-0.435,58.333,116.667,405.556,786.111,33.333,V
1144,-0.240,0.090,0.010,86.111,116.667,405.556,825.000,38.889,/
1145,-0.240,0.180,-0.075,188.889,108.333,397.222,772.222,52.778,/
1146,-0.320,-0.050,0.080,58.333,94.444,377.778,819.444,47.222,/
1147,-0.255,0.010,-0.055,186.111,97.222,383.333,825.000,5.556,/
1148,-0.280,1.080,-0.305,197.222,111.111,402.778,797.222,27.778,f
1149,-0.225,1.065,-0.220,188.889,100.000,391.667,838.889,41.667,f
1150,0.800,0.745,-0.205,66.667,77.778,386.111,900.000,61.111,f
1151,-0.255,0.285,-0.035,188.889,105.556,391.667,750.000,150.000,/
1152,-0.290,0.165,-0.060,158.333,94.444,372.222,772.222,22.222,/
1153,-0.300,0.215,-0.080,194.444,113.889,375.000,786.111,13.889,/
1154,-0.380,0.070,-0.195,163.889,111.111,391.667,830.556,44.444,/
1155,-0.395,0.160,-0.045,194.444,111.111,394.444,816.667,13.889,/
1156,-0.345,-0.005,0.030,125.000,111.111,394.444,833.333,16.667,/
1157,-0.205,1.105,-0.280,172.222,100.000,125.000,808.333,25.000,f
1158,-0.225,1.365,-0.220,197.222,100.000,391.667,844.444,36.111,f
1159,0.855,1.030,-0.190,55.556,77.778,377.778,833.333,11.111,f
1160,-0.180,0.710,0.005,47.222,94.444,372.222,716.667,116.667,f
1161,-0.280,0.490,-0.115,127.778,94.444,372.222,830.556,113.889,/
1162,-0.350,0.300,-0.145,197.222,111.111,377.778,816.667,13.889,/
1163,-0.350,0.415,-0.120,183.333,116.667,397.222,822.222,5.556,/
1164,-0.265,0.515,0.055,194.444,97.222,366.667,827.778,5.556,/
1165,-0.230,0.425,-0.025,197.222,94.444,372.222,836.111,8.333,/
1166,-0.255,0.445,-0.025,188.889,111.111,397.222,791.667,44.444,/
1167,-0.280,1.475,-0.310,188.889,102.778,391.667,766.667,25.000,f
1168,0.895,1.120,-0.255,52.778,83.333,386.111,869.444,102.778,f
1169,-0.210,0.355,-0.065,50.000,86.111,372.222,777.778,91.667,/
1170,-0.290,0.365,-0.085,194.444,111.111,391.667,822.222,44.444,/
1171,-0.330,0.500,-0.105,163.889,111.111,394.444,836.111,13.889,/
1172,-0.310,0.485,-0.020,180.556,111.111,400.000,833.333,2.778,/
1173,-0.250,0.440,-0.010,186.111,88.889,338.889,808.333,25.000,/
1174,-0.275,0.470,-0.040,186.111,108.333,394.444,769.444,38.889,/
1175,-0.290,0.150,-0.040,188.889,105.556,391.667,797.222,27.778,/
1176,-0.255,1.080,-0.320,197.222,113.889,125.000,811.111,13.889,f
1177,-0.130,1.105,-0.300,58.333,100.000,394.444,869.444,58.333,f
1178,-0.260,0.855,-0.130,63.889,80.556,366.667,794.444,75.000,f
1179,-0.355,0.150,-0.080,194.444,111.111,391.667,833.333,38.889,/
1180,-0.305,0.240,-0.065,163.889,111.111,391.667,833.333,0.000,/
1181,-0.295,0.135,-0.020,188.889,102.778,388.889,775.000,58.333,/
1182,-0.315,0.305,0.030,169.444,102.778,388.889,766.667,8.333,/
1183,-0.250,0.230,0.060,191.667,105.556,391.667,836.111,69.444,/
1184,-0.225,1.495,-0.265,194.444,91.667,391.667,819.444,16.667,f
1185,-0.160,1.215,-0.280,197.222,88.889,94.444,819.444,0.000,f
1186,-0.185,0.690,0.030,108.333,83.333,130.556,827.778,8.333,f
1187,-0.310,0.110,-0.030,130.556,116.667,394.444,841.667,13.889,/
1188,-0.305,0.150,-0.030,166.667,94.444,366.667,786.111,55.556,/
1189,-0.305,0.195,-0.020,186.111,116.667,405.556,766.667,19.444,/
1190,-0.275,0.385,0.060,41.667,88.889,355.556,822.222,55.556,/
1191,-0.250,0.405,0.040,188.889,105.556,391.667,813.889,8.333,/
1192,-0.220,0.295,0.075,188.889,102.778,391.667,816.667,2.778,/
1193,-0.190,1.140,-0.230,186.111,102.778,405.556,847.222,30.556,f
1194,-0.105,0.930,0.105,111.111,86.111,133.333,811.111,36.111,f
1195,-0.150,0.615,0.100,186.111,113.889,402.778,819.444,8.333,/
1196,-0.185,0.145,0.025,177.778,108.333,391.667,777.778,41.667,/
1197,-0.240,0.135,0.030,197.222,102.778,391.667,791.667,13.889,/
1198,-0.215,0.355,0.195,52.778,100.000,388.889,816.667,25.000,/
1199,-0.185,0.255,0.060,197.222,116.667,405.556,816.667,0.000,/
1200,-0.220,1.670,-0.240,105.556,100.000,391.667,836.111,19.444,f
1201,-0.190,1.715,-0.235,194.444,100.000,394.444,836.111,0.000,f
1202,-0.160,0.695,0.055,105.556,100.000,138.889,833.333,2.778,f
1203,-0.245,0.160,-0.005,188.889,105.556,377.778,777.778,55.556,/
1204,-0.235,0.230,-0.050,180.556,108.333,369.444,777.778,0.000,/
1205,-0.265,0.160,-0.035,197.222,111.111,388.889,816.667,38.889,/
1206,-0.305,0.225,0.050,130.556,94.444,352.778,802.778,13.889,/
1207,-0.280,0.085,-0.025,197.222,116.667,402.778,822.222,19.444,/
1208,-0.270,1.670,-0.310,186.111,113.889,405.556,830.556,8.333,f
1209,-0.265,0.935,-0.270,191.667,105.556,400.000,838.889,8.333,f
1210,-0.165,0.875,0.380,108.333,86.111,125.000,800.000,38.889,f
1211,-0.280,0.475,-0.030,138.889,108.333,394.444,763.889,36.111,/
1212,-0.285,0.275,-0.090,197.222,111.111,388.889,825.000,61.111,/
1213,-0.325,0.110,-0.065,186.111,102.778,372.222,808.333,16.667,/
1214,-0.305,0.280,-0.005,172.222,100.000,322.222,800.000,8.333,/
1215,-0.295,0.140,-0.105,172.222,108.333,394.444,836.111,36.111,/
1216,-0.300,0.115,-0.065,194.444,111.111,391.667,852.778,16.667,/
1217,-0.255,0.985,-0.340,191.667,97.222,394.444,750.000,102.778,N
1218,-0.205,1.345,-0.170,169.444,83.333,388.889,808.333,58.333,f
1219,-0.150,0.850,-0.095,66.667,97.222,97.222,797.222,11.111,f
1220,-0.250,0.185,-0.035,188.889,113.889,402.778,805.556,8.333,/
1221,-0.270,0.275,-0.040,197.222,100.000,375.000,811.111,5.556,/
1222,-0.265,0.290,0.070,191.667,108.333,394.444,841.667,30.556,/
1223,-0.210,0.475,0.015,186.111,105.556,325.000,830.556,11.111,/
1224,-0.220,0.300,0.060,61.111,105.556,388.889,838.889,8.333,/
1225,-0.260,0.490,0.020,188.889,102.778,391.667,777.778,61.111,/
1226,-0.235,1.715,-0.255,119.444,97.222,405.556,780.556,2.778,f
1227,-0.190,1.040,-0.300,186.111,86.111,391.667,783.333,2.778,N
1228,-0.200,1.295,-0.255,172.222,111.111,400.000,836.111,52.778,f
1229,0.895,0.680,-0.210,80.556,83.333,372.222,900.000,63.889,f
1230,-0.230,0.220,-0.005,58.333,116.667,388.889,766.667,133.333,/
1231,-0.290,0.100,-0.075,186.111,100.000,388.889,850.000,83.333,/
1232,-0.325,0.250,-0.110,172.222,100.000,388.889,783.333,66.667,/
1233,-0.335,0.070,-0.005,188.889,113.889,400.000,769.444,13.889,/
1234,-0.270,0.230,0.035,63.889,113.889,325.000,822.222,52.778,/
1235,-0.240,0.465,-0.015,169.444,102.778,388.889,791.667,30.556,/
1236,-0.280,0.310,-0.090,194.444,108.333,386.111,808.333,16.667,/
1237,-0.270,1.085,-0.365,186.111,94.444,391.667,755.556,52.778,N
1238,-0.155,1.395,-0.275,191.667,102.778,125.000,894.444,138.889,f
1239,-0.175,0.865,-0.080,83.333,94.444,152.778,802.778,91.667,f
1240,-0.290,0.135,-0.010,152.778,116.667,402.778,772.222,30.556,/
1241,-0.285,0.230,0.000,183.333,100.000,388.889,813.889,41.667,/
1242,-0.245,0.175,0.055,172.222,102.778,388.889,802.778,11.111,/
1243,-0.215,0.225,-0.010,197.222,102.778,383.333,791.667,11.111,/
1244,-0.250,0.345,-0.015,197.222,111.111,388.889,833.333,41.667,/
1245,-0.250,0.030,-0.050,172.222,105.556,394.444,841.667,8.333,/
1246,-0.240,1.160,-0.245,50.000,91.667,386.111,811.111,30.556,f
1247,-0.175,1.745,-0.200,186.111,88.889,388.889,808.333,2.778,f
1248,0.860,0.745,-0.195,75.000,83.333,394.444,861.111,52.778,f
1249,-0.170,0.250,0.015,33.333,83.333,372.222,733.333,127.778,/
1250,-0.245,0.045,0.020,194.444,97.222,366.667,797.222,63.889,/
1251,-0.245,0.280,0.015,180.556,100.000,377.778,833.333,36.111,/
1252,-0.235,0.070,0.010,172.222,102.778,391.667,838.889,5.556,/
1253,-0.225,0.110,0.105,180.556,111.111,400.000,861.111,22.222,/
1254,-0.180,0.165,0.090,197.222,116.667,391.667,800.000,61.111,/
1255,-0.200,1.555,-0.230,50.000,86.111,388.889,766.667,33.333,f
1256,-0.135,1.590,-0.165,197.222,91.667,394.444,813.889,47.222,f
1257,-0.120,0.730,0.105,86.111,91.667,130.556,788.889,25.000,f
1258,-0.205,0.485,0.035,147.222,116.667,394.444,797.222,8.333,/
1259,-0.220,0.065,-0.035,194.444,97.222,377.778,844.444,47.222,/
1260,-0.250,0.115,0.025,194.444,94.444,372.222,852.778,8.333,/
1261,-0.260,0.300,0.015,177.778,100.000,347.222,813.889,38.889,/
1262,-0.270,0.225,-0.015,175.000,105.556,394.444,777.778,36.111,/
1263,-0.275,0.415,0.005,186.111,100.000,388.889,816.667,38.889,/
1264,-0.245,1.065,-0.205,58.333,100.000,391.667,802.778,13.889,f
1265,-0.135,0.885,0.335,116.667,97.222,136.111,775.000,27.778,f
1266,-0.245,0.210,-0.020,130.556,116.667,405.556,836.111,61.111,/
1267,-0.285,0.170,-0.075,169.444,111.111,400.000,850.000,13.889,/
1268,-0.305,0.375,-0.025,169.444,102.778,391.667,836.111,13.889,/
1269,-0.290,0.055,0.060,177.778,94.444,341.667,788.889,47.222,/
1270,-0.265,0.405,-0.020,172.222,102.778,388.889,794.444,5.556,/
1271,-0.265,0.390,0.010,191.667,116.667,402.778,800.000,5.556,/
1272,-0.235,1.130,-0.295,50.000,100.000,391.667,800.000,0.000,f
1273,-0.170,0.905,0.195,119.444,91.667,136.111,816.667,16.667,f
1274,-0.205,0.245,0.035,183.333,116.667,405.556,847.222,30.556,/
1275,-0.235,0.005,0.005,197.222,105.556,394.444,850.000,2.778,/
1276,-0.240,0.095,0.000,197.222,100.000,377.778,797.222,52.778,/
1277,-0.265,0.180,0.045,180.556,108.333,361.111,780.556,16.667,/
1278,-0.255,0.155,0.010,194.444,113.889,394.444,813.889,33.333,/
1279,-0.245,0.205,0.045,186.111,116.667,405.556,791.667,22.222,/
1280,-0.265,1.215,-0.320,191.667,97.222,105.556,808.333,16.667,f
1281,0.855,0.645,-0.165,77.778,86.111,397.222,900.000,91.667,f
1282,-0.205,0.225,0.095,186.111,116.667,402.778,794.444,105.556,/
1283,-0.165,0.350,0.050,197.222,100.000,388.889,813.889,19.444,/
1284,-0.190,0.320,0.000,191.667,105.556,388.889,772.222,41.667,/
1285,-0.235,0.380,0.090,66.667,113.889,391.667,825.000,52.778,/
1286,-0.215,0.135,0.055,188.889,102.778,386.111,791.667,33.333,/
1287,-0.220,0.115,0.000,186.111,102.778,388.889,780.556,11.111,/
1288,-0.220,1.040,-0.340,180.556,83.333,380.556,791.667,11.111,N
1289,-0.100,1.365,-0.175,194.444,105.556,125.000,886.111,94.444,f
1290,-0.080,0.865,-0.025,75.000,88.889,88.889,825.000,61.111,f
1291,-0.185,0.250,0.015,155.556,116.667,402.778,797.222,27.778,/
1292,-0.230,0.175,0.045,161.111,113.889,391.667,808.333,11.111,/
1293,-0.225,0.130,0.055,161.111,108.333,394.444,794.444,13.889,/
1294,-0.260,0.125,-0.010,180.556,97.222,377.778,788.889,5.556,/
1295,-0.260,0.330,0.085,186.111,108.333,397.222,825.000,36.111,/
1296,-0.250,0.325,0.030,175.000,105.556,388.889,836.111,11.111,/
1297,-0.210,1.075,-0.290,188.889,83.333,388.889,811.111,25.000,N
1298,-0.155,1.170,-0.195,183.333,97.222,386.111,819.444,8.333,f
1299,0.875,1.045,-0.215,58.333,100.000,388.889,855.556,36.111,f
1300,-0.145,0.460,0.025,44.444,80.556,358.333,755.556,100.000,/
1301,-0.245,0.485,-0.075,186.111,102.778,388.889,772.222,16.667,/
1302,-0.315,0.025,-0.105,47.222,97.222,377.778,808.333,36.111,/
1303,-0.305,0.390,-0.020,163.889,113.889,402.778,836.111,27.778,/
1304,-0.255,0.295,0.035,194.444,108.333,336.111,863.889,27.778,/
1305,-0.230,0.130,0.055,197.222,116.667,405.556,822.222,41.667,/
1306,-0.230,0.170,-0.010,197.222,116.667,405.556,780.556,41.667,/
1307,-0.190,1.200,-0.240,197.222,100.000,394.444,763.889,16.667,N
1308,-0.110,1.470,-0.170,177.778,97.222,388.889,852.778,88.889,f
1309,-0.100,0.815,-0.020,55.556,86.111,375.000,738.889,113.889,f
1310,-0.230,0.240,-0.005,194.444,113.889,391.667,825.000,86.111,/
1311,-0.240,0.065,-0.020,191.667,91.667,372.222,861.111,36.111,/
1312,-0.260,0.160,0.010,175.000,108.333,388.889,833.333,27.778,/
1313,-0.210,0.185,0.035,175.000,108.333,388.889,786.111,47.222,/
1314,-0.225,0.160,0.090,191.667,111.111,400.000,816.667,30.556,/
1315,-0.220,0.360,0.095,197.222,116.667,402.778,791.667,25.000,/
1316,-0.185,1.185,-0.210,180.556,88.889,394.444,730.556,61.111,N
1317,-0.100,1.350,-0.120,194.444,100.000,391.667,841.667,111.111,f
1318,0.975,0.920,-0.185,72.222,83.333,386.111,916.667,75.000,f
1319,-0.160,0.270,0.070,41.667,88.889,377.778,780.556,136.111,/
1320,-0.215,0.405,-0.020,169.444,116.667,402.778,811.111,30.556,/
1321,-0.220,0.350,-0.010,169.444,86.111,375.000,802.778,8.333,/
1322,-0.235,0.175,-0.015,186.111,113.889,400.000,797.222,5.556,/
1323,-0.240,0.475,0.085,197.222,113.889,388.889,780.556,16.667,/
1324,-0.265,0.090,0.040,177.778,113.889,402.778,813.889,33.333,/
1325,-0.215,1.530,-0.285,55.556,100.000,108.333,830.556,16.667,f
1326,-0.155,1.160,-0.215,197.222,102.778,405.556,875.000,44.444,f
1327,-0.165,0.740,-0.085,77.778,94.444,372.222,794.444,80.556,f
1328,-0.285,0.285,-0.010,152.778,105.556,391.667,791.667,2.778,/
1329,-0.280,0.280,-0.070,172.222,105.556,391.667,816.667,25.000,/
1330,-0.305,0.310,-0.040,169.444,116.667,405.556,780.556,36.111,/
1331,-0.325,0.345,0.025,191.667,113.889,383.333,775.000,5.556,/
1332,-0.295,0.275,-0.035,186.111,102.778,391.667,827.778,52.778,/
1333,-0.300,0.285,0.010,166.667,116.667,405.556,863.889,36.111,/
1334,-0.235,1.200,-0.305,194.444,97.222,394.444,844.444,19.444,f
1335,-0.200,0.750,-0.125,77.778,108.333,388.889,780.556,63.889,f
1336,-0.265,0.195,0.030,188.889,108.333,397.222,830.556,50.000,/
1337,-0.250,0.230,0.025,197.222,113.889,394.444,788.889,41.667,/
1338,-0.235,0.315,0.015,194.444,111.111,394.444,766.667,22.222,/
1339,-0.255,0.085,0.060,197.222,108.333,397.222,800.000,33.333,/
1340,-0.230,0.165,0.015,197.222,111.111,391.667,850.000,50.000,/
1341,-0.215,1.180,-0.280,61.111,100.000,108.333,847.222,2.778,f
1342,-0.185,1.050,-0.280,194.444,102.778,400.000,816.667,30.556,f
1343,-0.200,0.760,-0.035,75.000,91.667,375.000,800.000,16.667,f
1344,-0.255,0.275,0.035,188.889,88.889,372.222,797.222,2.778,/
1345,-0.250,0.440,-0.005,163.889,111.111,388.889,772.222,25.000,/
1346,-0.250,0.265,0.035,186.111,102.778,391.667,808.333,36.111,/
1347,-0.280,0.280,-0.005,197.222,116.667,405.556,827.778,19.444,/
1348,-0.255,0.420,0.025,188.889,102.778,388.889,855.556,27.778,/
1349,-0.250,1.155,-0.290,72.222,102.778,391.667,833.333,22.222,f
1350,0.900,0.960,-0.265,55.556,83.333,391.667,852.778,19.444,f
1351,-0.185,0.150,0.005,61.111,91.667,369.444,752.778,100.000,/
1352,-0.260,0.235,0.020,197.222,97.222,386.111,775.000,22.222,/
1353,-0.210,0.475,0.015,191.667,105.556,391.667,788.889,13.889,/
1354,-0.235,0.345,-0.015,188.889,105.556,322.222,816.667,27.778,/
1355,-0.305,0.185,0.005,194.444,113.889,400.000,872.222,55.556,/
1356,-0.300,0.445,0.000,191.667,105.556,388.889,827.778,44.444,/
1357,-0.265,1.035,-0.310,55.556,86.111,97.222,783.333,44.444,f
1358,-0.200,1.070,-0.265,188.889,86.111,391.667,863.889,80.556,f
1359,-0.200,0.700,-0.145,77.778,108.333,375.000,755.556,108.333,f
1360,-0.290,0.460,-0.005,191.667,108.333,394.444,763.889,8.333,/
1361,-0.275,0.535,-0.040,194.444,116.667,391.667,811.111,47.222,/
1362,-0.270,0.535,-0.025,50.000,102.778,391.667,850.000,38.889,/
1363,-0.265,0.325,0.030,177.778,91.667,355.556,841.667,8.333,/
1364,-0.275,0.110,0.055,191.667,91.667,375.000,816.667,25.000,/
1365,-0.200,0.175,0.035,169.444,97.222,386.111,827.778,11.111,/
1366,-0.220,1.230,-0.245,47.222,83.333,386.111,797.222,30.556,f
1367,0.815,0.950,-0.230,55.556,75.000,388.889,808.333,11.111,f
1368,-0.200,0.380,-0.005,55.556,86.111,355.556,744.444,63.889,/
1369,-0.275,0.445,-0.110,183.333,100.000,377.778,830.556,86.111,/
1370,-0.300,0.445,-0.145,186.111,100.000,391.667,852.778,22.222,/
1371,-0.335,0.100,-0.090,188.889,105.556,388.889,819.444,33.333,/
1372,-0.310,0.095,0.040,197.222,116.667,380.556,825.000,5.556,/
1373,-0.260,0.305,-0.055,186.111,86.111,375.000,805.556,19.444,/
1374,-0.270,0.135,-0.030,194.444,108.333,388.889,772.222,33.333,/
1375,-0.285,0.975,-0.330,188.889,91.667,394.444,763.889,8.333,N
1376,-0.185,1.325,-0.190,197.222,100.000,394.444,863.889,100.000,f
1377,-0.145,0.945,-0.120,66.667,97.222,375.000,844.444,19.444,f
1378,-0.245,0.290,0.000,61.111,116.667,391.667,833.333,11.111,/
1379,-0.260,0.470,0.010,119.444,116.667,391.667,802.778,30.556,/
1380,-0.240,0.575,0.070,44.444,94.444,358.333,827.778,25.000,/
1381,-0.170,0.170,0.100,180.556,113.889,402.778,786.111,41.667,/
1382,-0.150,0.210,0.045,194.444,91.667,338.889,761.111,25.000,/
1383,-0.335,0.095,-0.020,177.778,91.667,355.556,800.000,38.889,/
1384,-0.165,0.235,0.090,55.556,102.778,391.667,861.111,61.111,/
1385,-0.100,1.170,-0.265,197.222,97.222,400.000,791.667,69.444,N
1386,-0.130,1.405,-0.175,194.444,97.222,400.000,850.000,58.333,f
1387,-0.125,0.890,0.100,97.222,100.000,147.222,838.889,11.111,f
1388,0.010,0.645,0.165,61.111,113.889,388.889,794.444,44.444,/
1389,-0.095,0.615,0.025,188.889,88.889,372.222,761.111,33.333,/
1390,-0.200,0.305,-0.025,186.111,100.000,388.889,794.444,33.333,/
1391,-0.240,0.065,0.005,197.222,113.889,394.444,827.778,33.333,/
1392,-0.260,0.175,0.010,191.667,108.333,394.444,844.444,16.667,/
1393,-0.320,0.135,-0.110,175.000,111.111,391.667,819.444,25.000,/
1394,-0.340,0.060,-0.075,194.444,105.556,388.889,830.556,11.111,/
1395,-0.285,1.395,-0.320,191.667,100.000,391.667,802.778,27.778,f
1396,0.825,0.965,-0.260,58.333,86.111,377.778,825.000,22.222,f
1397,-0.270,0.320,-0.015,58.333,116.667,386.111,736.111,88.889,/
1398,-0.300,0.465,-0.045,180.556,100.000,372.222,811.111,75.000,/
1399,-0.275,0.085,-0.055,194.444,111.111,391.667,861.111,50.000,/
1400,-0.310,0.115,0.010,197.222,100.000,388.889,825.000,36.111,/
1401,-0.280,-0.045,0.035,194.444,94.444,380.556,825.000,0.000,/
1402,-0.255,0.175,0.005,186.111,102.778,375.000,825.000,0.000,/
1403,-0.250,1.325,-0.285,197.222,100.000,388.889,763.889,61.111,f
1404,-0.205,1.110,-0.215,197.222,83.333,391.667,769.444,5.556,f
1405,-0.185,0.820,0.095,111.111,91.667,138.889,808.333,38.889,f
1406,-0.260,0.205,0.000,172.222,116.667,405.556,861.111,52.778,/
1407,-0.280,0.015,-0.025,194.444,111.111,391.667,838.889,22.222,/
1408,-0.275,0.025,-0.030,188.889,108.333,397.222,811.111,27.778,/
1409,-0.315,0.090,-0.025,197.222,116.667,358.333,844.444,33.333,/
1410,-0.320,-0.075,-0.025,191.667,108.333,391.667,791.667,52.778,/
1411,-0.340,0.025,-0.050,191.667,108.333,388.889,752.778,38.889,/
1412,-0.285,1.090,-0.330,58.333,102.778,402.778,813.889,61.111,f
1413,0.790,0.405,-0.260,77.778,86.111,391.667,880.556,66.667,f
1414,-0.305,0.045,-0.005,58.333,113.889,388.889,775.000,105.556,/
1415,-0.305,0.015,-0.090,191.667,111.111,394.444,813.889,38.889,/
1416,-0.275,0.085,-0.020,180.556,111.111,394.444,852.778,38.889,/
1417,-0.305,0.040,-0.030,194.444,97.222,325.000,800.000,52.778,/
1418,-0.330,0.035,-0.065,194.444,113.889,400.000,763.889,36.111,/
1419,-0.355,-0.050,0.010,197.222,113.889,391.667,788.889,25.000,/
1420,-0.295,1.060,-0.370,66.667,100.000,405.556,836.111,47.222,f
1421,-0.245,0.750,-0.165,94.444,91.667,372.222,808.333,27.778,f
1422,-0.295,0.135,-0.025,161.111,111.111,394.444,833.333,25.000,/
1423,-0.290,0.025,-0.055,194.444,108.333,388.889,833.333,0.000,/
1424,-0.285,0.270,-0.080,197.222,94.444,380.556,816.667,16.667,/
1425,-0.390,0.360,-0.060,186.111,100.000,372.222,775.000,41.667,/
1426,-0.395,0.190,-0.070,188.889,108.333,391.667,788.889,13.889,/
1427,-0.340,1.155,-0.350,50.000,88.889,391.667,811.111,22.222,f
1428,-0.260,1.575,-0.270,52.778,88.889,391.667,836.111,25.000,f
1429,-0.215,0.685,-0.055,97.222,100.000,141.667,827.778,8.333,f
1430,-0.305,0.150,-0.040,191.667,108.333,391.667,825.000,2.778,/
1431,-0.285,0.015,-0.070,188.889,100.000,388.889,847.222,22.222,/
1432,-0.315,0.335,-0.030,172.222,97.222,386.111,783.333,63.889,/
1433,-0.350,0.080,-0.025,186.111,105.556,383.333,763.889,19.444,/
1434,-0.300,0.000,-0.060,194.444,111.111,394.444,791.667,27.778,/
1435,-0.310,0.990,-0.320,61.111,97.222,400.000,819.444,27.778,f
1436,-0.215,1.045,-0.235,72.222,100.000,397.222,830.556,11.111,f
1437,-0.165,0.860,0.210,108.333,97.222,141.667,827.778,2.778,f
1438,-0.210,0.160,0.030,58.333,108.333,391.667,869.444,41.667,/
1439,-0.225,0.290,0.045,194.444,91.667,355.556,802.778,66.667,/
1440,-0.205,0.160,0.050,119.444,102.778,388.889,758.333,44.444,/
1441,-0.240,0.210,-0.005,194.444,97.222,386.111,777.778,19.444,/
1442,-0.245,0.085,0.045,119.444,116.667,405.556,822.222,44.444,/
1443,-0.205,0.140,0.075,197.222,100.000,386.111,833.333,11.111,/
1444,-0.170,1.240,-0.315,197.222,97.222,397.222,775.000,58.333,N
1445,-0.160,1.350,-0.225,197.222,100.000,397.222,900.000,125.000,f
1446,1.010,1.025,-0.195,61.111,83.333,386.111,866.667,33.333,f
1447,-0.165,0.815,0.010,72.222,88.889,355.556,711.111,155.556,f
1448,-0.195,0.225,0.035,161.111,94.444,355.556,791.667,80.556,/
1449,-0.200,0.265,-0.035,150.000,100.000,388.889,786.111,5.556,/
1450,-0.225,0.260,-0.010,188.889,116.667,402.778,836.111,50.000,/
1451,-0.260,0.085,0.035,191.667,105.556,386.111,836.111,0.000,/
1452,-0.225,0.135,0.045,188.889,100.000,388.889,830.556,5.556,/
1453,-0.245,0.205,-0.075,191.667,108.333,394.444,838.889,8.333,/
1454,-0.235,1.045,-0.330,175.000,102.778,391.667,733.333,105.556,N
1455,-0.205,1.245,-0.200,183.333,116.667,405.556,825.000,91.667,f
1456,-0.195,0.925,-0.110,77.778,111.111,397.222,769.444,55.556,f
1457,-0.290,0.175,-0.095,116.667,113.889,388.889,844.444,75.000,/
1458,-0.300,-0.035,-0.090,61.111,111.111,391.667,827.778,16.667,/
1459,-0.300,0.105,-0.105,194.444,108.333,388.889,819.444,8.333,/
1460,-0.275,0.140,0.010,197.222,97.222,375.000,866.667,47.222,/
1461,-0.270,0.335,0.040,172.222,100.000,388.889,791.667,75.000,/
1462,-0.250,0.160,-0.040,197.222,113.889,391.667,758.333,33.333,/
1463,-0.235,1.145,-0.130,177.778,100.000,388.889,750.000,8.333,N
1464,-0.030,1.570,-0.095,197.222,116.667,405.556,852.778,102.778,f
1465,-0.060,0.930,-0.040,83.333,113.889,116.667,816.667,36.111,f
1466,-0.185,0.185,-0.005,197.222,113.889,391.667,830.556,13.889,/
1467,-0.265,0.870,-0.065,188.889,100.000,386.111,855.556,25.000,f
1468,-0.245,0.195,0.050,197.222,113.889,391.667,825.000,30.556,/
1469,-0.235,0.170,0.025,186.111,116.667,333.333,772.222,52.778,/
1470,-0.235,0.445,0.075,183.333,102.778,391.667,783.333,11.111,/
1471,-0.215,0.340,-0.030,197.222,97.222,375.000,797.222,13.889,/
1472,-0.235,1.460,-0.300,188.889,100.000,391.667,827.778,30.556,f
1473,-0.185,1.285,-0.255,194.444,94.444,391.667,830.556,2.778,f
1474,-0.155,0.860,-0.060,77.778,91.667,377.778,836.111,5.556,f
1475,-0.215,0.520,0.045,150.000,105.556,394.444,844.444,8.333,/
1476,-0.210,0.440,-0.020,197.222,113.889,394.444,777.778,66.667,/
1477,-0.230,0.490,0.050,186.111,100.000,386.111,788.889,11.111,/
1478,-0.255,0.300,0.075,41.667,94.444,361.111,788.889,0.000,/
1479,-0.230,0.245,0.010,169.444,116.667,405.556,825.000,36.111,/
1480,-0.265,0.180,0.025,177.778,108.333,388.889,825.000,0.000,/
1481,0.790,1.025,-0.295,52.778,88.889,383.333,866.667,41.667,f
1482,-0.165,0.830,-0.035,91.667,105.556,388.889,816.667,50.000,f
1483,-0.235,0.130,0.005,158.333,108.333,391.667,813.889,2.778,/
1484,-0.265,0.245,-0.045,186.111,116.667,405.556,761.111,52.778,/
1485,-0.295,0.015,-0.060,183.333,116.667,405.556,783.333,22.222,/
1486,-0.325,0.385,-0.035,191.667,105.556,391.667,819.444,36.111,/
1487,-0.300,0.300,-0.025,188.889,105.556,391.667,816.667,2.778,/
1488,-0.260,1.015,-0.350,55.556,97.222,105.556,836.111,19.444,f
1489,-0.190,1.090,-0.250,58.333,100.000,405.556,900.000,63.889,f
1490,-0.160,0.455,0.070,38.889,86.111,372.222,780.556,119.444,/
1491,-0.195,0.245,0.010,175.000,108.333,388.889,769.444,11.111,/
1492,-0.240,0.395,0.015,169.444,100.000,388.889,777.778,8.333,/
1493,-0.245,0.405,0.015,183.333,113.889,344.444,794.444,16.667,/
1494,-0.240,0.375,0.040,186.111,116.667,391.667,819.444,25.000,/
1495,-0.190,0.365,0.085,188.889,108.333,391.667,822.222,2.778,/
1496,-0.180,1.175,-0.255,63.889,105.556,122.222,880.556,58.333,f
1497,-0.090,0.970,0.185,119.444,91.667,133.333,813.889,66.667,f
1498,-0.190,0.245,0.095,183.333,113.889,391.667,797.222,16.667,/
1499,-0.220,0.110,0.030,177.778,113.889,394.444,783.333,13.889,/
1500,-0.230,0.460,0.000,197.222,113.889,402.778,783.333,0.000,/
1501,-0.260,0.225,0.045,183.333,116.667,372.222,819.444,36.111,/
1502,-0.245,0.305,0.005,197.222,97.222,372.222,813.889,5.556,/
1503,-0.250,0.095,0.035,52.778,102.778,388.889,838.889,25.000,/
1504,-0.220,1.095,-0.265,58.333,97.222,405.556,883.333,44.444,f
1505,-0.185,0.605,-0.035,63.889,83.333,372.222,763.889,119.444,f
1506,-0.235,0.120,-0.010,186.111,105.556,391.667,786.111,22.222,/
1507,-0.240,0.435,0.000,183.333,116.667,391.667,780.556,5.556,/
1508,-0.265,0.250,0.030,172.222,102.778,375.000,819.444,38.889,/
1509,-0.265,0.070,0.030,155.556,102.778,391.667,816.667,2.778,/
1510,-0.235,0.265,0.010,172.222,105.556,388.889,819.444,2.778,/
1511,-0.190,1.625,-0.205,63.889,94.444,386.111,872.222,52.778,f
1512,-0.110,1.595,-0.140,197.222,86.111,377.778,822.222,50.000,f
1513,-0.105,0.770,0.020,80.556,94.444,130.556,761.111,61.111,f
1514,-0.180,0.365,0.055,177.778,111.111,394.444,780.556,19.444,/
1515,-0.185,0.315,-0.035,152.778,105.556,391.667,811.111,30.556,/
1516,-0.295,0.270,-0.015,58.333,105.556,391.667,802.778,8.333,/
1517,-0.300,0.050,-0.050,188.889,111.111,366.667,813.889,11.111,/
1518,-0.300,0.310,-0.065,44.444,97.222,377.778,872.222,58.333,/
1519,-0.270,0.120,0.010,191.667,105.556,372.222,833.333,38.889,/
1520,-0.225,1.120,-0.255,180.556,94.444,394.444,736.111,97.222,N
1521,-0.180,1.130,-0.195,169.444,94.444,405.556,858.333,122.222,f
1522,-0.160,0.905,-0.065,75.000,111.111,166.667,741.667,116.667,f
1523,-0.255,0.330,0.030,194.444,116.667,397.222,813.889,72.222,/
1524,-0.265,0.100,-0.050,41.667,91.667,361.111,813.889,0.000,/
1525,-0.275,0.170,-0.100,188.889,91.667,375.000,850.000,36.111,/
1526,-0.270,0.145,-0.065,188.889,105.556,388.889,850.000,0.000,/
1527,-0.285,0.110,0.105,175.000,116.667,402.778,805.556,44.444,/
1528,-0.200,0.515,0.020,188.889,105.556,391.667,791.667,13.889,/
1529,-0.190,1.130,-0.255,197.222,116.667,394.444,744.444,47.222,N
1530,-0.125,1.260,-0.155,180.556,97.222,391.667,847.222,102.778,f
1531,-0.095,0.790,0.085,80.556,94.444,141.667,786.111,61.111,f
1532,-0.210,0.280,-0.035,197.222,113.889,402.778,830.556,44.444,/
1533,-0.245,0.045,-0.075,183.333,113.889,394.444,869.444,38.889,/
1534,-0.245,0.275,0.025,183.333,116.667,388.889,816.667,52.778,/
1535,-0.240,0.065,-0.015,166.667,116.667,400.000,786.111,30.556,/
1536,-0.245,0.145,0.055,152.778,102.778,355.556,783.333,2.778,/
1537,-0.220,0.395,0.015,191.667,105.556,394.444,805.556,22.222,/
1538,-0.235,0.280,0.015,177.778,111.111,391.667,800.000,5.556,/
1539,-0.250,1.405,-0.305,63.889,100.000,394.444,802.778,2.778,f
1540,0.085,1.210,-0.185,58.333,102.778,394.444,933.333,130.556,f
1541,-0.140,0.895,0.020,77.778,94.444,375.000,783.333,150.000,f
1542,-0.205,0.165,0.065,197.222,113.889,388.889,786.111,2.778,/
1543,-0.220,0.100,-0.035,197.222,111.111,388.889,780.556,5.556,/
1544,-0.250,0.265,0.010,163.889,111.111,391.667,800.000,19.444,/
1545,-0.205,0.200,0.055,133.333,108.333,397.222,788.889,11.111,/
1546,-0.195,0.265,0.075,197.222,116.667,405.556,800.000,11.111,/
1547,-0.205,0.135,-0.030,175.000,102.778,386.111,872.222,72.222,/
1548,-0.240,1.140,-0.325,183.333,116.667,405.556,811.111,61.111,N
1549,-0.210,1.375,-0.195,197.222,116.667,402.778,850.000,38.889,f
1550,-0.160,0.820,0.055,97.222,100.000,138.889,777.778,72.222,f
1551,-0.245,0.135,0.010,163.889,116.667,394.444,786.111,8.333,/
1552,-0.240,0.140,-0.025,169.444,100.000,388.889,802.778,16.667,/
1553,-0.230,0.100,0.030,69.444,108.333,394.444,802.778,0.000,/
1554,-0.210,0.175,0.035,172.222,102.778,338.889,833.333,30.556,/
1555,-0.220,0.040,0.055,177.778,113.889,394.444,858.333,25.000,/
1556,-0.190,0.300,0.045,197.222,111.111,394.444,816.667,41.667,/
1557,-0.190,1.290,-0.160,66.667,113.889,402.778,805.556,11.111,f
1558,0.960,1.115,-0.115,55.556,83.333,377.778,833.333,27.778,f
1559,-0.065,0.255,0.115,61.111,91.667,375.000,758.333,75.000,/
1560,-0.160,0.395,0.055,197.222,97.222,377.778,786.111,27.778,/
1561,-0.225,0.145,-0.075,177.778,94.444,377.778,813.889,27.778,/
1562,-0.285,0.010,0.005,186.111,105.556,391.667,877.778,63.889,/
1563,-0.245,0.055,0.055,177.778,94.444,383.333,822.222,55.556,/
1564,-0.230,0.045,0.050,191.667,105.556,391.667,794.444,27.778,/
1565,-0.200,1.235,-0.260,58.333,97.222,105.556,788.889,5.556,f
1566,-0.160,1.260,-0.200,58.333,100.000,405.556,827.778,38.889,f
1567,-0.115,0.240,0.020,72.222,86.111,372.222,766.667,61.111,/
1568,-0.255,0.140,-0.020,166.667,116.667,405.556,794.444,27.778,/
1569,-0.265,0.055,0.005,58.333,105.556,388.889,872.222,77.778,/
1570,-0.280,0.205,0.015,194.444,108.333,391.667,836.111,36.111,/
1571,-0.275,0.295,0.045,191.667,111.111,397.222,800.000,36.111,/
1572,-0.275,0.145,-0.015,197.222,100.000,375.000,791.667,8.333,/
1573,-0.290,1.080,-0.315,55.556,97.222,125.000,805.556,13.889,f
1574,-0.195,1.020,-0.255,191.667,102.778,397.222,822.222,16.667,f
1575,-0.255,0.100,0.000,58.333,113.889,391.667,752.778,69.444,/
1576,-0.250,0.200,-0.035,150.000,100.000,388.889,852.778,100.000,/
1577,-0.245,0.035,-0.005,188.889,116.667,402.778,852.778,0.000,/
1578,-0.255,0.035,0.025,177.778,108.333,325.000,822.222,30.556,/
1579,-0.230,0.165,0.115,177.778,108.333,386.111,816.667,5.556,/
1580,-0.215,0.225,0.000,194.444,108.333,391.667,783.333,33.333,/
1581,-0.250,1.015,-0.290,191.667,105.556,397.222,816.667,33.333,f
1582,-0.175,0.850,0.130,105.556,94.444,136.111,763.889,52.778,f
1583,-0.260,0.100,0.015,158.333,111.111,397.222,816.667,52.778,/
1584,-0.230,0.185,0.030,197.222,97.222,372.222,875.000,58.333,/
1585,-0.155,0.295,0.040,191.667,105.556,375.000,825.000,50.000,/
1586,-0.210,0.060,0.065,191.667,94.444,355.556,802.778,22.222,/
1587,-0.240,0.350,-0.010,197.222,102.778,391.667,791.667,11.111,/
1588,-0.250,0.105,0.070,197.222,113.889,394.444,811.111,19.444,/
1589,-0.250,1.140,-0.280,177.778,102.778,394.444,783.333,27.778,f
1590,-0.185,0.860,0.155,97.222,94.444,138.889,786.111,2.778,f
1591,-0.295,0.205,-0.040,166.667,116.667,405.556,886.111,100.000,/
1592,-0.325,0.015,-0.110,175.000,108.333,388.889,838.889,47.222,/
1593,-0.345,0.045,-0.035,183.333,108.333,388.889,802.778,36.111,/
1594,-0.330,0.220,-0.090,186.111,105.556,313.889,794.444,8.333,/
1595,-0.310,0.255,-0.075,197.222,116.667,402.778,794.444,0.000,/
1596,-0.300,-0.025,0.000,191.667,108.333,391.667,791.667,2.778,/
1597,-0.215,1.130,-0.290,188.889,88.889,391.667,730.556,61.111,N
1598,-0.105,1.260,-0.210,58.333,105.556,405.556,925.000,194.444,f
1599,-0.100,0.980,-0.010,88.889,102.778,163.889,808.333,116.667,f
1600,-0.170,0.270,0.145,58.333,111.111,391.667,822.222,13.889,/
1601,-0.195,0.080,-0.055,188.889,108.333,361.111,811.111,11.111,/
1602,-0.250,0.290,-0.060,177.778,94.444,375.000,788.889,22.222,/
1603,-0.260,0.420,-0.045,172.222,105.556,391.667,794.444,5.556,/
1604,-0.270,0.180,0.155,169.444,100.000,383.333,786.111,8.333,/
1605,-0.210,0.150,-0.040,180.556,113.889,397.222,822.222,36.111,/
1606,-0.160,1.160,-0.255,194.444,102.778,402.778,794.444,27.778,N
1607,-0.110,1.375,-0.160,183.333,100.000,391.667,861.111,66.667,f
1608,-0.110,0.965,0.310,113.889,102.778,147.222,811.111,50.000,f
1609,-0.205,0.400,-0.015,127.778,111.111,391.667,797.222,13.889,/
1610,-0.240,0.250,-0.060,186.111,86.111,352.778,808.333,11.111,/
1611,-0.260,0.205,-0.005,116.667,116.667,405.556,780.556,27.778,/
1612,-0.205,0.045,0.035,175.000,105.556,388.889,788.889,8.333,/
1613,-0.220,0.265,0.010,175.000,105.556,355.556,866.667,77.778,/
1614,-0.195,0.190,0.015,188.889,100.000,388.889,830.556,36.111,/
1615,-0.200,0.300,0.040,188.889,105.556,377.778,800.000,30.556,/
1616,-0.165,1.230,-0.240,197.222,97.222,402.778,744.444,55.556,N
1617,-0.085,1.420,-0.080,194.444,102.778,394.444,880.556,136.111,f
1618,-0.075,1.055,0.050,75.000,88.889,372.222,741.667,138.889,f
1619,-0.130,0.645,0.085,136.111,105.556,394.444,780.556,38.889,/
1620,-0.170,0.145,-0.010,191.667,108.333,394.444,858.333,77.778,/
1621,-0.205,0.450,0.040,194.444,113.889,402.778,836.111,22.222,/
1622,-0.210,0.365,0.055,191.667,94.444,308.333,813.889,22.222,/
1623,-0.220,0.300,0.045,172.222,100.000,388.889,811.111,2.778,/
1624,-0.180,0.155,0.025,188.889,105.556,391.667,802.778,8.333,/
1625,-0.190,1.080,-0.290,197.222,100.000,391.667,755.556,47.222,N
1626,-0.155,1.255,-0.155,183.333,100.000,397.222,786.111,30.556,f
1627,-0.125,0.920,0.435,116.667,97.222,147.222,838.889,52.778,f
1628,-0.170,0.335,-0.015,58.333,116.667,397.222,852.778,13.889,/
1629,-0.260,0.045,-0.050,150.000,100.000,386.111,827.778,25.000,/
1630,-0.250,0.145,0.055,163.889,116.667,405.556,830.556,2.778,/
1631,-0.220,0.500,0.045,197.222,116.667,327.778,800.000,30.556,/
1632,-0.220,0.310,0.120,197.222,102.778,391.667,802.778,2.778,/
1633,-0.175,0.385,0.070,188.889,91.667,375.000,772.222,30.556,/
1634,-0.195,1.675,-0.205,83.333,116.667,127.778,791.667,19.444,f
1635,-0.095,1.355,-0.170,197.222,97.222,402.778,886.111,94.444,f
1636,-0.105,0.240,0.000,47.222,83.333,372.222,797.222,88.889,/
1637,-0.225,0.170,-0.010,194.444,108.333,391.667,827.778,30.556,/
1638,-0.265,0.290,-0.060,183.333,102.778,391.667,808.333,19.444,/
1639,-0.300,0.440,-0.025,147.222,97.222,375.000,811.111,2.778,/
1640,-0.315,0.150,0.025,175.000,108.333,355.556,777.778,33.333,/
1641,-0.285,0.025,-0.060,194.444,97.222,386.111,772.222,5.556,/
1642,-0.250,1.315,-0.295,55.556,102.778,111.111,858.333,86.111,f
1643,-0.265,1.345,-0.250,69.444,111.111,402.778,827.778,30.556,f
1644,-0.205,0.700,0.065,108.333,86.111,130.556,811.111,16.667,f
1645,-0.290,0.355,0.030,188.889,116.667,402.778,827.778,16.667,/
1646,-0.255,0.390,-0.045,172.222,102.778,394.444,816.667,11.111,/
1647,-0.275,0.540,0.010,183.333,116.667,405.556,777.778,38.889,/
1648,-0.250,0.475,0.065,186.111,88.889,375.000,772.222,5.556,/
1649,-0.275,0.265,-0.005,197.222,97.222,375.000,841.667,69.444,/
1650,-0.270,0.275,0.010,180.556,113.889,394.444,833.333,8.333,/
1651,-0.225,1.075,-0.295,55.556,100.000,397.222,847.222,13.889,f
1652,-0.165,0.745,-0.110,83.333,86.111,375.000,788.889,58.333,f
1653,-0.240,0.570,0.030,177.778,113.889,391.667,813.889,25.000,/
1654,-0.200,0.200,0.000,194.444,111.111,369.444,800.000,13.889,/
1655,-0.230,0.445,0.025,191.667,102.778,388.889,775.000,25.000,/
1656,-0.260,0.095,-0.045,194.444,111.111,388.889,805.556,30.556,/
1657,-0.265,0.070,-0.020,186.111,102.778,391.667,841.667,36.111,/
1658,-0.240,1.040,-0.295,58.333,102.778,119.444,850.000,8.333,f
1659,-0.270,1.035,-0.310,58.333,105.556,400.000,841.667,8.333,f
1660,-0.250,0.550,-0.040,55.556,83.333,369.444,788.889,52.778,f
1661,-0.325,0.125,-0.055,169.444,111.111,386.111,813.889,25.000,/
1662,-0.305,0.190,-0.020,172.222,116.667,402.778,772.222,41.667,/
1663,-0.285,0.125,-0.020,194.444,105.556,336.111,786.111,13.889,/
1664,-0.275,0.215,-0.045,191.667,105.556,391.667,833.333,47.222,/
1665,-0.275,0.420,-0.010,191.667,94.444,377.778,819.444,13.889,/
1666,-0.255,1.045,-0.330,52.778,100.000,127.778,841.667,22.222,f
1667,-0.195,0.785,0.280,122.222,69.444,111.111,805.556,36.111,f
1668,-0.310,0.155,-0.030,61.111,113.889,388.889,825.000,19.444,/
1669,-0.285,0.410,-0.085,197.222,113.889,402.778,783.333,41.667,/
1670,-0.315,0.085,-0.025,183.333,100.000,388.889,766.667,16.667,/
1671,-0.315,0.160,-0.095,183.333,102.778,325.000,838.889,72.222,/
1672,-0.350,0.065,-0.045,163.889,116.667,405.556,827.778,11.111,/
1673,-0.315,0.405,-0.100,197.222,94.444,372.222,813.889,13.889,/
1674,-0.330,0.970,-0.355,136.111,108.333,116.667,808.333,5.556,f
1675,-0.140,1.175,-0.315,58.333,100.000,405.556,897.222,88.889,f
1676,-0.320,0.110,-0.020,63.889,113.889,394.444,747.222,150.000,/
1677,-0.295,0.105,-0.070,169.444,105.556,377.778,772.222,25.000,/
1678,-0.290,0.130,0.040,155.556,113.889,400.000,819.444,47.222,/
1679,-0.225,0.110,-0.020,177.778,113.889,322.222,825.000,5.556,/
1680,-0.280,0.165,0.000,172.222,105.556,391.667,825.000,0.000,/
1681,-0.280,0.180,-0.055,188.889,108.333,388.889,836.111,11.111,/
1682,-0.230,1.130,-0.305,77.778,91.667,397.222,752.778,83.333,N
1683,-0.110,1.305,-0.230,166.667,100.000,388.889,852.778,100.000,f
1684,-0.180,0.895,0.155,91.667,83.333,125.000,758.333,94.444,f
1685,-0.320,0.185,-0.105,61.111,113.889,388.889,791.667,33.333,/
1686,-0.305,-0.025,-0.075,197.222,102.778,361.111,838.889,47.222,/
1687,-0.295,0.305,-0.155,197.222,116.667,405.556,813.889,25.000,/
1688,-0.315,-0.025,-0.100,172.222,102.778,391.667,836.111,22.222,/
1689,-0.320,0.015,-0.010,172.222,102.778,391.667,833.333,2.778,/
1690,-0.280,0.260,-0.030,66.667,116.667,405.556,827.778,5.556,/
1691,-0.260,0.105,-0.020,188.889,108.333,397.222,772.222,55.556,/
1692,-0.265,1.080,-0.335,186.111,102.778,391.667,713.889,58.333,N
1693,-0.185,1.525,-0.175,188.889,97.222,400.000,877.778,163.889,f
1694,-0.125,0.765,-0.030,72.222,100.000,155.556,808.333,69.444,f
1695,-0.235,0.130,-0.070,52.778,108.333,397.222,819.444,11.111,/
1696,-0.265,0.055,-0.035,191.667,100.000,388.889,830.556,11.111,/
1697,-0.270,0.270,-0.035,183.333,116.667,405.556,830.556,0.000,/
1698,-0.265,0.020,-0.075,183.333,97.222,386.111,797.222,33.333,/
1699,-0.280,0.130,-0.075,194.444,111.111,338.889,763.889,33.333,/
1700,-0.310,0.010,-0.030,186.111,94.444,383.333,825.000,61.111,/
1701,-0.285,0.080,-0.030,177.778,94.444,372.222,822.222,2.778,/
1702,-0.260,1.090,-0.345,183.333,100.000,405.556,755.556,66.667,N
1703,-0.195,1.290,-0.200,194.444,97.222,394.444,894.444,138.889,f
1704,-0.160,0.905,-0.015,80.556,111.111,166.667,802.778,91.667,f
1705,-0.265,0.125,0.050,127.778,111.111,375.000,813.889,11.111,/
1706,-0.265,0.155,-0.065,155.556,100.000,358.333,777.778,36.111,/
1707,-0.280,0.080,-0.070,180.556,97.222,375.000,791.667,13.889,/
1708,-0.285,0.190,-0.060,175.000,108.333,391.667,811.111,19.444,/
1709,-0.285,0.075,0.050,191.667,108.333,394.444,816.667,5.556,/
1710,-0.290,0.120,-0.020,183.333,111.111,388.889,841.667,25.000,/
1711,-0.290,1.055,-0.310,58.333,111.111,397.222,811.111,30.556,f
1712,-0.235,1.425,-0.210,197.222,102.778,391.667,850.000,38.889,f
1713,0.855,0.675,-0.215,63.889,75.000,352.778,841.667,8.333,f
1714,-0.200,0.345,0.010,44.444,97.222,386.111,713.889,127.778,/
1715,-0.285,0.445,-0.080,186.111,105.556,377.778,822.222,108.333,/
1716,-0.305,0.260,-0.075,197.222,113.889,394.444,808.333,13.889,/
1717,-0.320,0.060,-0.075,197.222,113.889,402.778,819.444,11.111,/
1718,-0.315,0.010,-0.015,191.667,105.556,372.222,841.667,22.222,/
1719,-0.305,0.060,-0.030,186.111,102.778,391.667,844.444,2.778,/
1720,-0.305,0.210,-0.015,197.222,116.667,405.556,783.333,61.111,/
1721,-0.320,1.085,-0.330,61.111,100.000,397.222,777.778,5.556,f
1722,0.840,0.605,-0.250,66.667,75.000,377.778,872.222,94.444,f
1723,-0.245,0.075,-0.045,38.889,88.889,372.222,738.889,133.333,/
1724,-0.335,0.090,-0.105,194.444,100.000,375.000,808.333,69.444,/
1725,-0.340,0.105,-0.055,186.111,102.778,391.667,836.111,27.778,/
1726,-0.320,0.340,-0.050,186.111,105.556,327.778,852.778,16.667,/
1727,-0.290,0.110,0.005,183.333,100.000,388.889,811.111,41.667,/
1728,-0.270,-0.020,0.025,197.222,97.222,386.111,769.444,41.667,/
1729,-0.220,1.130,-0.290,52.778,97.222,108.333,816.667,47.222,f
1730,0.925,0.990,-0.260,50.000,83.333,375.000,847.222,30.556,f
1731,-0.205,0.070,-0.015,58.333,94.444,375.000,761.111,86.111,/
1732,-0.255,0.160,0.000,177.778,91.667,355.556,833.333,72.222,/
1733,-0.250,0.255,-0.020,169.444,113.889,402.778,841.667,8.333,/
1734,-0.260,0.195,0.020,194.444,111.111,394.444,825.000,16.667,/
1735,-0.260,0.270,0.090,186.111,100.000,383.333,775.000,50.000,/
1736,-0.260,0.235,0.065,194.444,97.222,377.778,794.444,19.444,/
1737,-0.185,1.745,-0.200,61.111,100.000,111.111,802.778,8.333,f
1738,-0.115,1.250,-0.210,191.667,94.444,391.667,805.556,2.778,f
1739,-0.105,0.820,-0.110,91.667,91.667,372.222,836.111,30.556,f
1740,-0.225,0.555,-0.050,177.778,111.111,391.667,836.111,0.000,/
1741,-0.300,0.070,-0.085,191.667,113.889,386.111,852.778,16.667,/
1742,-0.305,0.305,-0.050,191.667,111.111,391.667,777.778,75.000,/
1743,-0.370,0.240,-0.055,63.889,113.889,355.556,775.000,2.778,/
1744,-0.370,-0.035,-0.105,186.111,111.111,400.000,822.222,47.222,/
1745,-0.305,0.340,-0.030,194.444,111.111,391.667,788.889,33.333,/
1746,-0.260,1.275,-0.305,58.333,94.444,100.000,816.667,27.778,f
1747,0.880,0.925,-0.210,63.889,88.889,394.444,897.222,80.556,f
1748,-0.205,0.210,0.000,58.333,116.667,405.556,794.444,102.778,/
1749,-0.250,0.440,-0.070,197.222,113.889,386.111,797.222,2.778,/
1750,-0.305,0.210,-0.075,172.222,105.556,394.444,772.222,25.000,/
1751,-0.310,0.050,0.005,166.667,94.444,375.000,822.222,50.000,/
1752,-0.295,0.230,0.005,163.889,116.667,405.556,788.889,33.333,/
1753,-0.260,0.365,-0.040,194.444,94.444,372.222,797.222,8.333,/
1754,-0.270,1.315,-0.335,188.889,100.000,102.778,827.778,30.556,f
1755,-0.275,1.655,-0.330,63.889,100.000,119.444,858.333,30.556,f
1756,-0.210,0.805,-0.080,77.778,94.444,144.444,825.000,33.333,f
1757,-0.270,0.365,-0.075,191.667,108.333,391.667,783.333,41.667,/
1758,-0.335,0.220,-0.165,197.222,116.667,383.333,805.556,22.222,/
1759,-0.365,-0.075,-0.015,166.667,116.667,405.556,805.556,0.000,/
1760,-0.290,0.165,-0.065,186.111,108.333,336.111,788.889,16.667,/
1761,-0.300,0.150,-0.055,186.111,102.778,394.444,827.778,38.889,/
1762,-0.285,0.065,-0.065,177.778,113.889,402.778,844.444,16.667,/
1763,-0.230,1.165,-0.265,177.778,97.222,391.667,780.556,63.889,N
1764,-0.100,1.575,-0.095,163.889,100.000,405.556,852.778,72.222,f
1765,-0.105,0.220,-0.030,183.333,111.111,394.444,763.889,88.889,/
1766,-0.220,0.425,-0.030,127.778,97.222,380.556,800.000,36.111,/
1767,-0.235,0.150,0.015,194.444,94.444,375.000,783.333,16.667,/
1768,-0.200,0.280,0.000,58.333,113.889,402.778,827.778,44.444,/
1769,-0.190,0.425,0.025,177.778,111.111,394.444,838.889,11.111,/
1770,-0.235,0.155,0.015,119.444,116.667,361.111,855.556,16.667,/
1771,-0.295,0.175,-0.100,188.889,105.556,394.444,805.556,50.000,/
1772,-0.350,1.305,-0.370,186.111,116.667,402.778,763.889,41.667,f
1773,-0.285,1.045,-0.365,191.667,97.222,391.667,758.333,5.556,N
1774,-0.240,1.175,-0.290,175.000,102.778,394.444,852.778,94.444,f
1775,-0.205,0.970,-0.125,83.333,94.444,94.444,750.000,102.778,f
1776,-0.260,0.510,-0.050,102.778,113.889,400.000,836.111,86.111,/
1777,-0.235,0.130,-0.015,180.556,116.667,394.444,866.667,30.556,/
1778,-0.215,0.355,0.005,191.667,105.556,394.444,822.222,44.444,/
1779,-0.210,0.455,0.010,175.000,100.000,386.111,783.333,38.889,/
1780,-0.235,0.340,0.120,55.556,102.778,388.889,816.667,33.333,/
1781,-0.185,0.485,0.030,197.222,97.222,386.111,791.667,25.000,/
1782,-0.230,1.175,-0.265,180.556,97.222,102.778,763.889,27.778,f
1783,-0.190,1.110,-0.255,191.667,100.000,394.444,827.778,63.889,f
1784,0.905,1.130,-0.265,55.556,91.667,394.444,922.222,94.444,f
1785,-0.175,0.840,-0.045,63.889,83.333,372.222,788.889,133.333,f
1786,-0.250,0.230,-0.005,130.556,100.000,375.000,797.222,8.333,/
1787,-0.290,0.150,-0.120,180.556,111.111,386.111,800.000,2.778,/
1788,-0.310,0.490,-0.050,183.333,100.000,388.889,802.778,2.778,/
1789,-0.315,0.065,-0.005,97.222,111.111,361.111,777.778,25.000,/
1790,-0.285,0.245,-0.055,166.667,100.000,377.778,819.444,41.667,/
1791,-0.265,0.265,-0.025,144.444,91.667,363.889,844.444,25.000,/
1792,-0.270,1.175,-0.270,186.111,100.000,391.667,861.111,16.667,f
1793,0.845,0.550,-0.170,72.222,77.778,355.556,861.111,0.000,f
1794,-0.205,0.535,0.035,55.556,108.333,397.222,725.000,136.111,/
1795,-0.245,0.370,-0.035,166.667,86.111,372.222,813.889,88.889,/
1796,-0.290,0.435,-0.065,186.111,100.000,388.889,780.556,33.333,/
1797,-0.315,0.270,-0.005,50.000,100.000,388.889,800.000,19.444,/
1798,-0.270,0.415,-0.025,197.222,100.000,388.889,830.556,30.556,/
1799,-0.230,0.120,0.020,180.556,111.111,391.667,863.889,33.333,/
1800,-0.195,1.200,-0.235,61.111,97.222,108.333,813.889,50.000,f
1801,-0.150,1.150,-0.235,194.444,91.667,391.667,816.667,2.778,f
1802,-0.190,0.790,-0.070,66.667,80.556,355.556,788.889,27.778,f
1803,-0.315,0.035,-0.045,186.111,102.778,372.222,788.889,0.000,/
1804,-0.315,-0.005,-0.120,177.778,108.333,388.889,772.222,16.667,/
1805,-0.340,0.190,-0.120,194.444,111.111,388.889,819.444,47.222,/
1806,-0.350,-0.030,-0.075,188.889,108.333,391.667,861.111,41.667,/
1807,-0.315,0.070,-0.030,194.444,108.333,397.222,836.111,25.000,/
1808,-0.235,1.105,-0.280,50.000,83.333,386.111,805.556,30.556,f
1809,-0.210,0.985,-0.225,58.333,102.778,391.667,791.667,13.889,f
1810,0.845,0.400,-0.170,75.000,72.222,344.444,880.556,88.889,f
1811,-0.240,0.100,0.015,61.111,116.667,405.556,711.111,169.444,/
1812,-0.300,0.245,-0.110,183.333,102.778,377.778,805.556,94.444,/
1813,-0.335,-0.105,-0.140,197.222,111.111,391.667,841.667,36.111,/
1814,-0.355,-0.065,-0.070,152.778,102.778,338.889,858.333,16.667,/
1815,-0.370,-0.035,-0.020,194.444,113.889,397.222,808.333,50.000,/
1816,-0.305,0.095,-0.060,191.667,94.444,375.000,797.222,11.111,/
1817,-0.295,1.515,-0.325,55.556,100.000,105.556,797.222,0.000,f
1818,0.820,0.870,-0.260,52.778,88.889,383.333,822.222,25.000,f
1819,-0.220,0.080,-0.030,50.000,86.111,372.222,758.333,63.889,/
1820,-0.315,0.250,-0.075,191.667,91.667,375.000,836.111,77.778,/
1821,-0.340,0.185,-0.050,177.778,91.667,355.556,852.778,16.667,/
1822,-0.325,0.120,-0.070,191.667,113.889,394.444,816.667,36.111,/
1823,-0.315,0.225,0.030,186.111,116.667,405.556,808.333,8.333,/
1824,-0.295,0.055,-0.005,175.000,105.556,372.222,805.556,2.778,/
1825,-0.255,1.045,-0.190,61.111,100.000,391.667,755.556,50.000,f
1826,-0.155,1.655,-0.195,194.444,91.667,394.444,800.000,44.444,f
1827,-0.135,0.895,0.320,116.667,100.000,147.222,819.444,19.444,f
1828,-0.250,0.190,0.030,172.222,116.667,402.778,872.222,52.778,/
1829,-0.255,0.015,0.020,183.333,116.667,394.444,827.778,44.444,/
1830,-0.225,0.195,-0.050,177.778,108.333,388.889,794.444,33.333,/
1831,-0.250,0.190,-0.030,166.667,97.222,308.333,822.222,27.778,/
1832,-0.285,0.140,0.010,186.111,116.667,405.556,786.111,36.111,/
1833,-0.300,-0.015,-0.005,194.444,116.667,402.778,766.667,19.444,/
1834,-0.210,1.085,-0.320,188.889,94.444,391.667,752.778,13.889,N
1835,-0.120,1.310,-0.220,58.333,102.778,402.778,933.333,180.556,f
1836,-0.085,0.965,0.010,72.222,86.111,375.000,800.000,133.333,f
1837,-0.160,0.595,0.000,150.000,100.000,375.000,811.111,11.111,/
1838,-0.200,0.250,-0.040,194.444,97.222,377.778,830.556,19.444,/
1839,-0.235,0.625,0.065,175.000,105.556,391.667,791.667,38.889,/
1840,-0.195,0.555,0.040,52.778,102.778,319.444,769.444,22.222,/
1841,-0.180,0.565,0.010,183.333,100.000,388.889,791.667,22.222,/
1842,-0.200,0.270,-0.065,197.222,111.111,388.889,830.556,38.889,/
1843,-0.175,1.210,-0.275,197.222,91.667,394.444,772.222,58.333,N
1844,-0.110,1.305,-0.210,175.000,97.222,402.778,869.444,97.222,f
1845,-0.175,0.950,0.260,102.778,113.889,155.556,780.556,88.889,f
1846,-0.290,0.570,0.015,58.333,113.889,388.889,816.667,36.111,/
1847,-0.255,0.295,0.005,72.222,102.778,386.111,772.222,44.444,/
1848,-0.245,0.410,-0.075,166.667,100.000,388.889,791.667,19.444,/
1849,-0.270,0.340,-0.075,152.778,116.667,405.556,819.444,27.778,/
1850,-0.255,0.495,0.100,77.778,108.333,372.222,855.556,36.111,/
1851,-0.165,0.295,0.050,180.556,100.000,377.778,825.000,30.556,/
1852,-0.125,1.255,-0.230,180.556,100.000,402.778,766.667,58.333,N
1853,-0.085,1.210,-0.160,188.889,100.000,391.667,825.000,58.333,N
1854,-0.100,1.385,-0.130,177.778,91.667,394.444,838.889,13.889,f
1855,-0.070,0.875,0.005,58.333,83.333,366.667,733.333,105.556,f
1856,-0.155,0.410,0.020,194.444,111.111,391.667,797.222,63.889,/
1857,-0.195,0.285,-0.020,194.444,113.889,394.444,852.778,55.556,/
1858,-0.195,0.405,0.080,158.333,105.556,388.889,844.444,8.333,/
1859,-0.185,0.240,0.050,166.667,102.778,338.889,811.111,33.333,/
1860,-0.195,0.200,0.030,197.222,113.889,397.222,844.444,33.333,/
1861,-0.220,0.360,0.050,197.222,102.778,391.667,788.889,55.556,/
1862,-0.200,1.175,-0.240,197.222,100.000,394.444,730.556,58.333,N
1863,-0.075,1.385,-0.155,177.778,91.667,391.667,847.222,116.667,f
1864,-0.070,0.770,-0.010,83.333,97.222,97.222,805.556,41.667,f
1865,-0.185,0.400,0.025,152.778,105.556,391.667,852.778,47.222,/
1866,-0.215,0.160,-0.035,191.667,111.111,397.222,822.222,30.556,/
1867,-0.275,0.455,0.020,194.444,113.889,391.667,836.111,13.889,/
1868,-0.255,0.100,0.075,186.111,116.667,361.111,802.778,33.333,/
