id,Pamp,Ramp,Tamp,PR,QRS,QT,RRI,dRRI,label
1,-0.235,1.770,0.135,158.333,50.000,286.111,844.444,8.333,N
2,-0.240,1.820,0.130,161.111,50.000,294.444,838.889,5.556,N
3,-0.240,1.875,0.135,172.222,55.556,330.556,869.444,30.556,N
4,-0.235,1.700,0.120,161.111,52.778,305.556,922.222,52.778,N
5,-0.205,1.825,0.155,175.000,50.000,288.889,880.556,41.667,N
6,-0.220,1.785,0.170,158.333,55.556,305.556,833.333,47.222,N
7,-0.190,1.840,0.185,158.333,52.778,302.778,833.333,0.000,N
8,-0.160,1.795,0.140,161.111,55.556,316.667,841.667,8.333,N
9,-0.215,1.810,0.110,161.111,55.556,302.778,833.333,8.333,N
10,-0.245,1.580,0.055,169.444,58.333,311.111,852.778,19.444,N
11,-0.260,1.690,0.055,177.778,61.111,325.000,911.111,58.333,N
12,-0.290,1.660,0.030,180.556,55.556,308.333,908.333,2.778,N
13,-0.300,1.830,0.140,186.111,52.778,277.778,916.667,8.333,N
14,-0.145,1.890,0.165,186.111,52.778,280.556,877.778,38.889,N
15,-0.260,1.645,-0.005,197.222,55.556,308.333,902.778,25.000,N
16,-0.365,1.620,-0.045,183.333,50.000,311.111,866.667,36.111,N
17,-0.415,1.600,-0.045,166.667,52.778,311.111,900.000,33.333,N
18,-0.385,1.625,0.035,183.333,58.333,313.889,936.111,36.111,N
19,-0.280,1.860,0.135,177.778,55.556,305.556,888.889,47.222,N
20,-0.235,1.785,0.135,158.333,50.000,288.889,847.222,41.667,N
21,-0.195,1.690,0.160,163.889,52.778,280.556,841.667,5.556,N
22,-0.175,1.965,0.170,169.444,52.778,297.222,833.333,8.333,N
23,-0.180,1.880,0.175,163.889,58.333,302.778,877.778,44.444,N
24,-0.195,1.740,0.145,166.667,52.778,305.556,888.889,11.111,N
25,-0.180,1.725,0.175,177.778,55.556,325.000,894.444,5.556,N
26,-0.155,1.890,0.215,169.444,50.000,291.667,891.667,2.778,N
27,-0.165,1.950,0.215,152.778,47.222,286.111,836.111,55.556,N
28,-0.170,1.840,0.175,158.333,55.556,302.778,838.889,2.778,N
29,-0.140,1.830,0.215,163.889,55.556,302.778,833.333,5.556,N
30,-0.125,1.920,0.235,172.222,52.778,325.000,877.778,44.444,N
31,-0.155,1.815,0.160,169.444,52.778,322.222,883.333,5.556,N
32,-0.195,1.675,0.140,175.000,58.333,311.111,869.444,13.889,N
33,-0.145,1.785,0.190,175.000,58.333,305.556,869.444,0.000,N
34,-0.160,1.835,0.210,155.556,50.000,291.667,825.000,44.444,N
35,-0.155,1.885,0.165,155.556,50.000,288.889,786.111,38.889,N
36,-0.190,1.795,0.130,155.556,52.778,280.556,816.667,30.556,N
37,-0.170,1.830,0.160,163.889,50.000,297.222,827.778,11.111,N
38,-0.190,1.840,0.155,158.333,50.000,300.000,841.667,13.889,N
39,-0.195,1.850,0.185,163.889,52.778,297.222,841.667,0.000,N
40,-0.120,1.810,0.185,166.667,55.556,305.556,830.556,11.111,N
41,-0.150,1.885,0.155,158.333,52.778,272.222,827.778,2.778,N
42,-0.200,1.960,0.135,158.333,50.000,269.444,800.000,27.778,N
43,-0.240,1.795,0.120,147.222,50.000,283.333,786.111,13.889,N
44,-0.225,1.765,0.140,155.556,52.778,305.556,811.111,25.000,N
45,-0.200,1.935,0.190,166.667,55.556,322.222,855.556,44.444,N
46,-0.185,1.950,0.155,163.889,52.778,297.222,869.444,13.889,N
47,-0.230,1.830,0.120,155.556,52.778,297.222,836.111,33.333,N
48,-0.200,1.830,0.130,163.889,52.778,294.444,833.333,2.778,N
49,-0.185,1.960,0.175,152.778,50.000,283.333,816.667,16.667,N
50,-0.165,2.045,0.200,147.222,47.222,300.000,811.111,5.556,N
51,-0.155,1.850,0.215,163.889,55.556,313.889,850.000,38.889,N
52,-0.055,1.980,0.290,175.000,58.333,325.000,863.889,13.889,N
53,-0.055,2.000,0.265,180.556,58.333,313.889,925.000,61.111,N
54,-0.100,1.905,0.225,166.667,55.556,300.000,880.556,44.444,N
55,-0.145,1.890,0.205,177.778,52.778,297.222,836.111,44.444,N
56,-0.160,1.930,0.200,172.222,52.778,286.111,858.333,22.222,N
57,-0.190,1.800,0.165,161.111,50.000,288.889,830.556,27.778,N
58,-0.175,1.820,0.175,155.556,52.778,302.778,816.667,13.889,N
59,-0.150,1.960,0.175,163.889,52.778,300.000,858.333,41.667,N
60,-0.180,1.830,0.145,163.889,55.556,316.667,883.333,25.000,N
61,-0.200,1.820,0.120,161.111,55.556,305.556,894.444,11.111,N
62,-0.200,1.810,0.110,161.111,50.000,280.556,838.889,55.556,N
63,-0.245,1.845,0.120,155.556,52.778,305.556,822.222,16.667,N
64,-0.250,1.745,0.100,152.778,50.000,302.778,852.778,30.556,N
65,-0.230,1.730,0.120,155.556,50.000,302.778,833.333,19.444,N
66,-0.190,1.910,0.150,172.222,58.333,322.222,852.778,19.444,N
67,-0.185,1.860,0.120,172.222,55.556,322.222,880.556,27.778,N
68,-0.230,1.750,0.075,175.000,55.556,305.556,888.889,8.333,N
69,-0.240,1.770,0.100,158.333,55.556,288.889,830.556,58.333,N
70,-0.235,1.770,0.080,158.333,50.000,305.556,797.222,33.333,N
71,-0.250,1.680,0.075,166.667,52.778,291.667,844.444,47.222,N
72,-0.220,1.650,0.110,183.333,55.556,297.222,830.556,13.889,N
73,-0.200,1.870,0.115,166.667,52.778,297.222,836.111,5.556,N
74,-0.190,1.855,0.125,163.889,50.000,288.889,866.667,30.556,N
75,-0.225,1.765,0.110,163.889,55.556,305.556,877.778,11.111,N
76,-0.190,1.805,0.150,166.667,50.000,294.444,869.444,8.333,N
77,-0.190,1.905,0.160,158.333,47.222,280.556,813.889,55.556,N
78,-0.215,1.810,0.120,161.111,52.778,305.556,830.556,16.667,N
79,-0.240,1.685,0.115,155.556,52.778,302.778,847.222,16.667,N
80,-0.195,1.880,0.115,158.333,50.000,305.556,833.333,13.889,N
81,-0.230,1.815,0.110,163.889,61.111,319.444,855.556,22.222,N
82,-0.190,1.720,0.105,166.667,55.556,325.000,858.333,2.778,N
83,-0.180,1.910,0.150,172.222,55.556,311.111,852.778,5.556,N
84,-0.225,1.845,0.115,158.333,52.778,302.778,819.444,33.333,N
85,-0.250,1.830,0.085,150.000,50.000,291.667,805.556,13.889,N
86,-0.255,1.645,0.050,161.111,55.556,319.444,827.778,22.222,N
87,-0.215,1.795,0.195,163.889,55.556,313.889,838.889,11.111,N
88,-0.105,1.830,0.210,163.889,55.556,311.111,833.333,5.556,N
89,-0.165,1.750,0.125,175.000,55.556,297.222,866.667,33.333,N
90,-0.265,1.570,0.000,180.556,55.556,300.000,847.222,19.444,N
91,-0.300,1.645,0.075,155.556,50.000,283.333,813.889,33.333,N
92,-0.230,1.745,0.090,158.333,50.000,277.778,777.778,36.111,N
93,-0.255,1.730,0.045,150.000,50.000,297.222,777.778,0.000,N
94,-0.320,1.650,-0.010,169.444,55.556,300.000,850.000,72.222,N
95,-0.315,1.710,0.020,175.000,55.556,300.000,847.222,2.778,N
96,-0.280,1.780,0.090,169.444,52.778,300.000,844.444,2.778,N
97,-0.250,1.830,0.085,163.889,50.000,283.333,875.000,30.556,N
98,-0.245,1.770,0.110,163.889,50.000,286.111,850.000,25.000,N
99,-0.220,1.860,0.130,163.889,50.000,283.333,836.111,13.889,N
100,-0.250,1.720,0.075,158.333,50.000,288.889,825.000,11.111,N
101,-0.265,1.740,0.065,177.778,55.556,316.667,872.222,47.222,N
102,-0.240,1.785,0.155,166.667,55.556,316.667,900.000,27.778,N
103,-0.220,1.885,0.155,163.889,50.000,308.333,888.889,11.111,N
104,-0.225,1.810,0.155,177.778,58.333,302.778,894.444,5.556,N
105,-0.150,1.785,0.205,166.667,55.556,294.444,852.778,41.667,N
106,-0.165,1.880,0.145,163.889,52.778,294.444,858.333,5.556,N
107,-0.255,1.705,0.075,166.667,50.000,286.111,844.444,13.889,N
108,-0.255,1.645,0.090,172.222,55.556,302.778,838.889,5.556,N
109,-0.220,1.840,0.135,172.222,55.556,308.333,911.111,72.222,N
110,-0.230,1.775,0.110,161.111,50.000,297.222,891.667,19.444,N
111,-0.240,1.695,0.080,172.222,52.778,288.889,858.333,33.333,N
112,-0.225,1.905,0.110,155.556,50.000,288.889,836.111,22.222,N
113,-0.225,1.810,0.160,158.333,50.000,302.778,836.111,0.000,N
114,-0.215,1.745,0.125,161.111,50.000,291.667,850.000,13.889,N
115,-0.215,1.765,0.165,163.889,52.778,302.778,855.556,5.556,N
116,-0.195,1.875,0.145,177.778,61.111,325.000,894.444,38.889,N
117,-0.225,1.800,0.110,172.222,58.333,311.111,911.111,16.667,N
118,-0.240,1.695,0.105,166.667,52.778,291.667,863.889,47.222,N
119,-0.230,1.885,0.125,163.889,55.556,291.667,841.667,22.222,N
120,-0.210,1.835,0.130,163.889,52.778,288.889,833.333,8.333,N
121,-0.230,1.745,0.125,163.889,52.778,277.778,855.556,22.222,N
122,-0.180,1.865,0.175,183.333,50.000,297.222,850.000,5.556,N
123,-0.200,1.880,0.135,175.000,55.556,322.222,875.000,25.000,N
124,-0.225,1.765,0.165,163.889,52.778,300.000,908.333,33.333,N
125,-0.075,1.945,0.320,163.889,47.222,283.333,861.111,47.222,N
126,-0.010,1.925,0.250,158.333,47.222,300.000,816.667,44.444,N
127,-0.150,1.700,0.095,158.333,50.000,297.222,819.444,2.778,N
128,-0.240,1.745,0.080,177.778,52.778,305.556,847.222,27.778,N
129,-0.280,1.660,0.035,166.667,52.778,313.889,838.889,8.333,N
130,-0.275,1.710,0.095,166.667,55.556,308.333,855.556,16.667,N
131,-0.190,1.905,0.165,169.444,55.556,327.778,880.556,25.000,N
132,-0.180,1.860,0.140,161.111,52.778,305.556,855.556,25.000,N
133,-0.200,1.775,0.130,150.000,50.000,288.889,813.889,41.667,N
134,-0.175,1.820,0.150,161.111,52.778,294.444,805.556,8.333,N
135,-0.160,1.955,0.185,166.667,55.556,300.000,805.556,0.000,N
136,-0.175,1.845,0.130,180.556,52.778,300.000,847.222,41.667,N
137,-0.220,1.695,0.080,175.000,55.556,305.556,861.111,13.889,N
138,-0.230,1.845,0.065,163.889,55.556,322.222,838.889,22.222,N
139,-0.260,1.800,0.075,177.778,55.556,300.000,883.333,44.444,N
140,-0.265,1.780,0.055,180.556,47.222,280.556,850.000,33.333,N
141,-0.275,1.670,0.065,152.778,50.000,288.889,794.444,55.556,N
142,-0.200,1.940,0.130,150.000,50.000,297.222,808.333,13.889,N
143,-0.185,1.905,0.135,163.889,55.556,313.889,833.333,25.000,N
144,-0.215,1.805,0.080,161.111,55.556,316.667,861.111,27.778,N
145,-0.230,1.765,0.105,169.444,52.778,297.222,858.333,2.778,N
146,-0.205,1.920,0.110,169.444,55.556,313.889,850.000,8.333,N
147,-0.205,1.930,0.120,155.556,47.222,288.889,836.111,13.889,N
148,-0.210,1.820,0.105,147.222,47.222,277.778,794.444,41.667,N
149,-0.185,1.770,0.130,163.889,52.778,294.444,783.333,11.111,N
150,-0.170,1.920,0.150,158.333,55.556,319.444,794.444,11.111,N
151,-0.195,1.930,0.105,175.000,58.333,322.222,852.778,58.333,N
152,-0.235,1.730,0.050,158.333,55.556,319.444,830.556,22.222,N
153,-0.220,1.705,0.135,158.333,52.778,305.556,813.889,16.667,N
154,-0.105,1.865,0.175,158.333,50.000,305.556,819.444,5.556,N
155,-0.155,1.885,0.110,147.222,47.222,294.444,788.889,30.556,N
156,-0.255,1.695,-0.005,158.333,50.000,291.667,775.000,13.889,N
157,-0.310,1.645,-0.015,161.111,55.556,297.222,791.667,16.667,N
158,-0.260,1.760,0.070,166.667,52.778,313.889,800.000,8.333,N
159,-0.255,1.820,0.055,172.222,55.556,311.111,855.556,55.556,N
160,-0.265,1.810,0.045,166.667,52.778,308.333,850.000,5.556,N
161,-0.310,1.640,0.000,158.333,52.778,300.000,822.222,27.778,N
162,-0.275,1.780,0.045,163.889,55.556,305.556,836.111,13.889,N
163,-0.280,1.830,0.065,158.333,50.000,300.000,813.889,22.222,N
164,-0.275,1.880,0.045,158.333,52.778,286.111,802.778,11.111,N
165,-0.290,1.730,0.030,172.222,55.556,297.222,841.667,38.889,N
166,-0.270,1.745,0.060,175.000,55.556,302.778,858.333,16.667,N
167,-0.265,1.795,0.070,172.222,55.556,308.333,891.667,33.333,N
168,-0.225,1.790,0.070,161.111,52.778,288.889,855.556,36.111,N
169,-0.220,1.710,0.085,158.333,52.778,305.556,830.556,25.000,N
170,-0.215,1.885,0.085,155.556,50.000,280.556,841.667,11.111,N
171,-0.215,1.865,0.085,152.778,47.222,277.778,819.444,22.222,N
172,-0.230,1.745,0.080,158.333,50.000,302.778,808.333,11.111,N
173,-0.235,1.715,0.070,175.000,58.333,311.111,847.222,38.889,N
174,-0.190,1.830,0.145,163.889,55.556,313.889,863.889,16.667,N
175,-0.140,1.975,0.210,166.667,50.000,311.111,844.444,19.444,N
176,-0.125,1.770,0.130,150.000,52.778,297.222,816.667,27.778,N
177,-0.180,1.695,0.095,155.556,52.778,302.778,805.556,11.111,N
178,-0.200,1.880,0.110,144.444,47.222,294.444,794.444,11.111,N
179,-0.240,1.835,0.115,138.889,50.000,305.556,788.889,5.556,N
180,-0.200,1.790,0.100,158.333,58.333,322.222,822.222,33.333,N
181,-0.205,1.680,0.105,163.889,58.333,325.000,830.556,8.333,N
182,-0.160,1.765,0.170,169.444,58.333,313.889,830.556,0.000,N
183,-0.105,1.895,0.245,150.000,52.778,297.222,794.444,36.111,N
184,-0.120,1.895,0.150,144.444,47.222,283.333,761.111,33.333,N
185,-0.230,1.775,0.040,161.111,52.778,300.000,786.111,25.000,N
186,-0.315,1.640,-0.010,158.333,50.000,291.667,811.111,25.000,N
187,-0.310,1.820,0.075,161.111,55.556,297.222,827.778,16.667,N
188,-0.210,1.905,0.210,169.444,55.556,316.667,877.778,50.000,N
189,-0.175,1.815,0.145,191.667,55.556,305.556,894.444,16.667,N
190,-0.265,1.705,0.100,177.778,55.556,294.444,908.333,13.889,N
191,-0.295,1.810,0.055,169.444,50.000,280.556,894.444,13.889,N
192,-0.300,1.840,0.170,177.778,58.333,300.000,886.111,8.333,N
193,-0.190,1.875,0.155,161.111,55.556,286.111,880.556,5.556,N
194,-0.265,1.720,0.055,161.111,50.000,286.111,880.556,0.000,N
195,-0.365,1.790,0.045,169.444,58.333,311.111,883.333,2.778,N
196,-0.290,1.770,0.110,183.333,55.556,313.889,911.111,27.778,N
197,-0.275,1.865,0.090,163.889,52.778,294.444,886.111,25.000,N
198,-0.270,1.815,0.085,161.111,58.333,288.889,841.667,44.444,N
199,-0.205,1.985,0.180,155.556,50.000,286.111,813.889,27.778,N
200,-0.170,1.985,0.200,163.889,52.778,297.222,858.333,44.444,N
201,-0.170,1.875,0.170,169.444,58.333,311.111,869.444,11.111,N
202,-0.160,1.810,0.200,172.222,55.556,305.556,869.444,0.000,N
203,-0.180,1.955,0.180,163.889,52.778,288.889,886.111,16.667,N
204,-0.195,1.880,0.155,163.889,50.000,300.000,872.222,13.889,N
205,-0.190,1.770,0.160,155.556,50.000,277.778,852.778,19.444,N
206,-0.165,1.950,0.185,155.556,50.000,288.889,825.000,27.778,N
207,-0.200,1.810,0.150,180.556,55.556,313.889,869.444,44.444,N
208,-0.200,1.745,0.180,186.111,55.556,311.111,925.000,55.556,N
209,-0.155,1.910,0.210,191.667,58.333,302.778,908.333,16.667,N
210,-0.200,1.760,0.160,175.000,58.333,300.000,916.667,8.333,N
211,-0.200,1.760,0.185,169.444,52.778,294.444,872.222,44.444,N
212,-0.155,2.060,0.255,166.667,52.778,280.556,866.667,5.556,N
213,-0.145,2.060,0.245,152.778,50.000,280.556,833.333,33.333,N
214,-0.190,1.940,0.155,161.111,55.556,313.889,833.333,0.000,N
215,-0.200,1.955,0.185,177.778,55.556,305.556,927.778,94.444,N
216,-0.235,2.000,0.140,172.222,52.778,286.111,897.222,30.556,N
217,-0.275,1.795,0.080,166.667,55.556,313.889,872.222,25.000,N
218,-0.265,1.835,0.140,169.444,52.778,308.333,872.222,0.000,N
219,-0.240,1.980,0.195,175.000,52.778,294.444,852.778,19.444,N
220,-0.190,1.975,0.190,172.222,50.000,291.667,847.222,5.556,N
221,-0.200,1.910,0.155,166.667,52.778,311.111,850.000,2.778,N
222,-0.195,1.980,0.190,186.111,58.333,313.889,916.667,66.667,N
223,-0.255,1.885,0.150,175.000,55.556,308.333,919.444,2.778,N
224,-0.230,1.925,0.150,191.667,50.000,288.889,900.000,19.444,N
225,-0.240,1.945,0.160,177.778,50.000,286.111,869.444,30.556,N
226,-0.190,1.980,0.185,175.000,50.000,302.778,866.667,2.778,N
227,-0.230,1.855,0.135,172.222,50.000,286.111,863.889,2.778,N
228,-0.275,1.840,0.110,177.778,52.778,294.444,875.000,11.111,N
229,-0.285,1.815,0.120,191.667,58.333,327.778,922.222,47.222,N
230,-0.235,1.830,0.165,186.111,58.333,311.111,930.556,8.333,N
231,-0.215,1.895,0.210,183.333,55.556,294.444,902.778,27.778,N
232,-0.205,1.990,0.205,169.444,52.778,277.778,863.889,38.889,N
233,-0.225,1.995,0.190,166.667,52.778,294.444,850.000,13.889,N
234,-0.245,1.830,0.135,161.111,52.778,280.556,863.889,13.889,N
235,-0.240,1.920,0.175,158.333,52.778,294.444,855.556,8.333,N
236,-0.270,1.860,0.095,180.556,58.333,316.667,894.444,38.889,N
237,-0.275,1.785,0.085,186.111,58.333,297.222,919.444,25.000,N
238,-0.260,1.825,0.120,158.333,50.000,286.111,855.556,63.889,N
239,-0.275,1.890,0.110,172.222,52.778,291.667,830.556,25.000,N
240,-0.255,1.800,0.140,166.667,58.333,308.333,816.667,13.889,N
241,-0.205,1.710,0.160,169.444,55.556,305.556,850.000,33.333,N
242,-0.185,1.885,0.200,172.222,55.556,308.333,847.222,2.778,N
243,-0.190,1.785,0.180,169.444,58.333,311.111,852.778,5.556,N
244,-0.200,1.745,0.135,188.889,58.333,311.111,902.778,50.000,N
245,-0.165,1.880,0.185,180.556,55.556,297.222,855.556,47.222,N
246,-0.200,1.890,0.155,161.111,50.000,277.778,800.000,55.556,N
247,-0.200,1.810,0.140,166.667,50.000,275.000,819.444,19.444,N
248,-0.195,1.725,0.135,163.889,52.778,302.778,825.000,5.556,N
249,-0.200,1.950,0.145,163.889,52.778,297.222,838.889,13.889,N
250,-0.230,1.885,0.140,163.889,52.778,294.444,855.556,16.667,N
251,-0.220,1.785,0.115,180.556,52.778,308.333,866.667,11.111,N
252,-0.190,1.795,0.135,166.667,52.778,288.889,866.667,0.000,N
253,-0.205,1.885,0.145,161.111,47.222,280.556,805.556,61.111,N
254,-0.245,1.820,0.085,147.222,50.000,297.222,786.111,19.444,N
255,-0.235,1.705,0.100,152.778,55.556,302.778,797.222,11.111,N
256,-0.200,1.875,0.115,172.222,52.778,325.000,844.444,47.222,N
257,-0.210,1.860,0.105,169.444,52.778,311.111,847.222,2.778,N
258,-0.225,1.780,0.110,158.333,55.556,305.556,838.889,8.333,N
259,-0.140,1.870,0.195,186.111,58.333,313.889,861.111,22.222,N
260,-0.135,1.925,0.150,166.667,52.778,294.444,833.333,27.778,N
261,-0.245,1.710,0.065,166.667,52.778,297.222,797.222,36.111,N
262,-0.185,1.815,0.145,183.333,52.778,297.222,813.889,16.667,N
263,-0.125,1.900,0.265,180.556,52.778,302.778,800.000,13.889,N
264,-0.030,1.820,0.220,183.333,61.111,316.667,872.222,72.222,N
265,-0.130,1.795,0.100,175.000,52.778,294.444,852.778,19.444,N
266,-0.270,1.735,-0.005,163.889,55.556,302.778,825.000,27.778,N
267,-0.340,1.655,-0.020,183.333,55.556,297.222,869.444,44.444,N
268,-0.290,1.745,0.075,175.000,52.778,286.111,827.778,41.667,N
269,-0.245,1.945,0.130,169.444,50.000,275.000,791.667,36.111,N
270,-0.235,1.825,0.100,175.000,47.222,286.111,822.222,30.556,N
271,-0.220,1.815,0.135,183.333,52.778,308.333,844.444,22.222,N
272,-0.195,1.940,0.125,161.111,52.778,305.556,875.000,30.556,N
273,-0.215,1.755,0.085,158.333,52.778,294.444,836.111,38.889,N
274,-0.215,1.820,0.070,166.667,52.778,297.222,819.444,16.667,N
275,-0.260,1.845,0.090,155.556,50.000,280.556,813.889,5.556,N
276,-0.220,1.870,0.085,147.222,47.222,266.667,783.333,30.556,N
277,-0.235,1.730,0.085,155.556,50.000,291.667,758.333,25.000,N
278,-0.215,1.755,0.040,155.556,50.000,302.778,800.000,41.667,N
279,-0.305,1.690,0.030,161.111,55.556,319.444,838.889,38.889,N
280,-0.270,1.850,0.020,166.667,52.778,300.000,841.667,2.778,N
281,-0.305,1.665,0.020,155.556,50.000,291.667,816.667,25.000,N
282,-0.295,1.770,0.000,161.111,52.778,294.444,805.556,11.111,N
283,-0.300,1.715,0.015,152.778,50.000,288.889,797.222,8.333,N
284,-0.265,1.815,0.055,147.222,47.222,280.556,777.778,19.444,N
285,-0.280,1.835,0.025,152.778,50.000,302.778,780.556,2.778,N
286,-0.305,1.730,0.020,158.333,52.778,316.667,816.667,36.111,N
287,-0.270,1.770,0.060,172.222,55.556,322.222,844.444,27.778,N
288,-0.240,1.800,0.090,155.556,50.000,305.556,830.556,13.889,N
289,-0.220,1.900,0.090,150.000,50.000,288.889,797.222,33.333,N
290,-0.240,1.750,0.050,158.333,52.778,305.556,788.889,8.333,N
291,-0.235,1.690,0.055,155.556,50.000,280.556,802.778,13.889,N
292,-0.210,1.810,0.080,150.000,47.222,277.778,772.222,30.556,N
293,-0.250,1.800,0.070,169.444,55.556,313.889,797.222,25.000,N
294,-0.230,1.780,0.060,166.667,55.556,308.333,838.889,41.667,N
295,-0.210,1.875,0.090,169.444,55.556,327.778,850.000,11.111,N
296,-0.220,1.865,0.085,155.556,50.000,291.667,836.111,13.889,N
297,-0.235,1.855,0.055,150.000,47.222,277.778,791.667,44.444,N
298,-0.210,1.755,0.105,175.000,52.778,302.778,794.444,2.778,N
299,-0.195,1.930,0.160,155.556,50.000,294.444,811.111,16.667,N
300,-0.090,1.835,0.180,147.222,47.222,297.222,794.444,16.667,N
301,-0.160,1.695,0.060,163.889,58.333,325.000,827.778,33.333,N
302,-0.270,1.535,-0.010,163.889,55.556,316.667,836.111,8.333,N
303,-0.290,1.765,0.010,166.667,52.778,308.333,838.889,2.778,N
304,-0.260,1.825,0.045,150.000,50.000,294.444,797.222,41.667,N
305,-0.260,1.660,0.045,152.778,52.778,302.778,775.000,22.222,N
306,-0.230,1.700,0.090,158.333,52.778,294.444,791.667,16.667,N
307,-0.155,2.005,0.225,155.556,52.778,308.333,788.889,2.778,N
308,-0.050,1.955,0.215,152.778,50.000,311.111,797.222,8.333,N
309,-0.150,1.775,0.055,186.111,58.333,313.889,833.333,36.111,N
310,-0.305,1.590,-0.070,163.889,58.333,325.000,805.556,27.778,N
311,-0.355,1.730,0.010,163.889,55.556,302.778,805.556,0.000,N
312,-0.255,1.765,0.035,138.889,50.000,288.889,741.667,63.889,N
313,-0.330,1.715,-0.095,144.444,47.222,280.556,711.111,30.556,N
314,-0.395,1.500,-0.130,150.000,55.556,297.222,719.444,8.333,N
315,-0.380,1.780,0.000,147.222,52.778,286.111,758.333,38.889,N
316,-0.250,1.990,0.140,155.556,50.000,288.889,777.778,19.444,N
317,-0.170,1.970,0.195,158.333,55.556,294.444,800.000,22.222,N
318,-0.080,1.900,0.235,150.000,52.778,294.444,827.778,27.778,N
319,-0.060,1.950,0.295,155.556,52.778,305.556,825.000,2.778,N
320,-0.025,2.110,0.325,147.222,50.000,280.556,825.000,0.000,N
321,-0.025,2.105,0.305,144.444,52.778,286.111,794.444,30.556,N
322,-0.045,1.810,0.240,161.111,55.556,308.333,833.333,38.889,N
323,-0.050,1.805,0.250,163.889,55.556,313.889,905.556,72.222,N
324,-0.090,1.970,0.215,152.778,52.778,297.222,852.778,52.778,N
325,-0.135,1.865,0.175,161.111,58.333,316.667,850.000,2.778,N
326,-0.120,1.735,0.125,158.333,58.333,305.556,861.111,11.111,N
327,-0.145,1.830,0.160,152.778,58.333,305.556,841.667,19.444,N
328,-0.135,1.960,0.180,152.778,52.778,288.889,816.667,25.000,N
329,-0.115,1.895,0.165,152.778,52.778,294.444,800.000,16.667,N
330,-0.135,1.735,0.135,169.444,61.111,327.778,869.444,69.444,N
331,-0.130,1.815,0.145,169.444,55.556,308.333,897.222,27.778,N
332,-0.150,1.840,0.130,166.667,55.556,297.222,877.778,19.444,N
333,-0.160,1.825,0.130,163.889,52.778,277.778,883.333,5.556,N
334,-0.160,1.700,0.150,152.778,52.778,294.444,866.667,16.667,N
335,-0.115,1.760,0.150,150.000,50.000,288.889,855.556,11.111,N
336,-0.170,1.665,0.130,152.778,52.778,297.222,844.444,11.111,N
337,-0.210,1.640,0.045,177.778,63.889,319.444,880.556,36.111,N
338,-0.235,1.625,0.070,166.667,55.556,313.889,905.556,25.000,N
339,-0.215,1.760,0.060,158.333,55.556,308.333,888.889,16.667,N
340,-0.280,1.635,-0.005,161.111,55.556,302.778,883.333,5.556,N
341,-0.265,1.665,0.040,169.444,58.333,294.444,861.111,22.222,N
342,-0.215,1.855,0.115,161.111,55.556,291.667,875.000,13.889,N
343,-0.205,1.870,0.135,158.333,50.000,283.333,850.000,25.000,N
344,-0.195,1.800,0.135,166.667,58.333,319.444,886.111,36.111,N
345,-0.170,1.925,0.155,169.444,52.778,297.222,952.778,66.667,N
346,-0.180,1.820,0.135,172.222,52.778,294.444,902.778,50.000,N
347,-0.165,1.710,0.160,161.111,55.556,302.778,875.000,27.778,N
348,-0.105,1.845,0.275,166.667,52.778,294.444,852.778,22.222,N
349,-0.035,1.800,0.250,158.333,55.556,297.222,872.222,19.444,N
350,-0.080,1.670,0.125,180.556,55.556,300.000,877.778,5.556,N
351,-0.245,1.775,0.025,180.556,55.556,316.667,883.333,5.556,N
352,-0.335,1.640,-0.025,172.222,61.111,311.111,944.444,61.111,N
353,-0.340,1.635,-0.025,166.667,55.556,280.556,908.333,36.111,N
354,-0.300,1.810,0.010,166.667,47.222,280.556,830.556,77.778,N
355,-0.305,1.770,0.030,152.778,50.000,288.889,841.667,11.111,N
356,-0.300,1.685,0.005,161.111,52.778,300.000,852.778,11.111,N
357,-0.325,1.615,-0.025,163.889,52.778,311.111,858.333,5.556,N
358,-0.305,1.740,0.100,158.333,50.000,313.889,861.111,2.778,N
359,-0.150,1.890,0.215,175.000,55.556,316.667,900.000,38.889,N
360,-0.145,1.780,0.120,161.111,55.556,302.778,880.556,19.444,N
361,-0.285,1.610,-0.025,161.111,55.556,294.444,841.667,38.889,N
362,-0.350,1.480,-0.030,161.111,55.556,286.111,825.000,16.667,N
363,-0.320,1.835,0.045,161.111,52.778,286.111,833.333,8.333,N
364,-0.255,1.855,0.085,166.667,50.000,291.667,877.778,44.444,N
365,-0.245,1.730,0.070,163.889,52.778,297.222,877.778,0.000,N
366,-0.225,1.730,0.115,177.778,58.333,313.889,886.111,8.333,N
367,-0.180,1.935,0.185,166.667,50.000,291.667,886.111,0.000,N
368,-0.180,1.900,0.135,144.444,47.222,283.333,838.889,47.222,N
369,-0.220,1.840,0.075,169.444,52.778,294.444,825.000,13.889,N
370,-0.235,1.705,0.115,177.778,52.778,294.444,833.333,8.333,N
371,-0.185,1.925,0.165,186.111,58.333,311.111,886.111,52.778,N
372,-0.170,1.835,0.145,194.444,55.556,319.444,905.556,19.444,N
373,-0.150,1.745,0.135,175.000,55.556,311.111,897.222,8.333,N
374,-0.145,1.960,0.180,183.333,58.333,302.778,925.000,27.778,N
375,-0.150,1.900,0.145,175.000,52.778,288.889,877.778,47.222,N
376,-0.175,1.830,0.120,161.111,47.222,294.444,838.889,38.889,N
377,-0.160,1.810,0.160,166.667,52.778,280.556,847.222,8.333,N
378,-0.150,1.950,0.160,169.444,55.556,316.667,869.444,22.222,N
379,-0.180,1.855,0.115,161.111,58.333,319.444,894.444,25.000,N
380,-0.195,1.745,0.060,180.556,52.778,286.111,883.333,11.111,N
381,-0.215,1.780,0.070,172.222,52.778,308.333,880.556,2.778,N
382,-0.235,1.850,0.090,155.556,52.778,305.556,850.000,30.556,N
383,-0.240,1.765,0.075,169.444,52.778,288.889,830.556,19.444,N
384,-0.245,1.740,0.060,172.222,58.333,297.222,844.444,13.889,N
385,-0.210,1.800,0.115,177.778,55.556,305.556,866.667,22.222,N
386,-0.185,1.925,0.170,175.000,55.556,302.778,900.000,33.333,N
387,-0.135,1.895,0.155,186.111,52.778,297.222,883.333,16.667,N
388,-0.145,1.780,0.140,169.444,55.556,308.333,872.222,11.111,N
389,-0.145,1.845,0.150,163.889,50.000,280.556,863.889,8.333,N
390,-0.150,1.955,0.155,161.111,47.222,277.778,827.778,36.111,N
391,-0.160,1.850,0.150,163.889,52.778,294.444,822.222,5.556,N
392,-0.130,1.690,0.130,172.222,55.556,319.444,844.444,22.222,N
393,-0.145,1.890,0.115,186.111,58.333,333.333,888.889,44.444,N
394,-0.215,1.770,0.055,166.667,55.556,311.111,883.333,5.556,N
395,-0.255,1.755,0.010,155.556,52.778,302.778,841.667,41.667,N
396,-0.255,1.665,0.040,161.111,52.778,308.333,833.333,8.333,N
397,-0.230,1.820,0.080,152.778,50.000,300.000,811.111,22.222,N
398,-0.225,1.845,0.065,155.556,50.000,302.778,802.778,8.333,N
399,-0.235,1.680,0.050,166.667,55.556,313.889,841.667,38.889,N
400,-0.235,1.695,0.035,177.778,58.333,319.444,863.889,22.222,N
401,-0.235,1.830,0.040,177.778,58.333,302.778,872.222,8.333,N
402,-0.250,1.815,0.065,169.444,52.778,288.889,841.667,30.556,N
403,-0.265,1.760,0.030,155.556,50.000,291.667,791.667,50.000,N
404,-0.275,1.625,0.030,161.111,55.556,288.889,825.000,33.333,N
405,-0.240,1.805,0.050,163.889,47.222,283.333,802.778,22.222,N
406,-0.255,1.775,0.015,163.889,50.000,291.667,788.889,13.889,N
407,-0.295,1.795,0.010,158.333,50.000,305.556,841.667,52.778,N
408,-0.265,1.565,0.060,163.889,52.778,305.556,852.778,11.111,N
409,-0.220,1.715,0.085,158.333,52.778,291.667,847.222,5.556,N
410,-0.240,1.795,0.015,155.556,47.222,275.000,813.889,33.333,N
411,-0.310,1.660,-0.030,155.556,50.000,288.889,800.000,13.889,N
412,-0.345,1.555,-0.050,161.111,52.778,286.111,841.667,41.667,N
413,-0.340,1.705,-0.040,163.889,47.222,283.333,850.000,8.333,N
414,-0.350,1.660,0.010,175.000,52.778,305.556,863.889,13.889,N
415,-0.230,1.780,0.085,183.333,55.556,316.667,891.667,27.778,N
416,-0.265,1.790,0.035,180.556,58.333,319.444,916.667,25.000,N
417,-0.325,1.690,-0.045,163.889,52.778,288.889,877.778,38.889,N
418,-0.310,1.705,0.045,172.222,50.000,300.000,827.778,50.000,N
419,-0.275,1.755,0.000,169.444,52.778,305.556,863.889,36.111,N
420,-0.315,1.600,-0.010,186.111,58.333,308.333,866.667,2.778,N
421,-0.300,1.780,0.040,175.000,52.778,294.444,880.556,13.889,N
422,-0.235,1.760,0.100,169.444,52.778,294.444,886.111,5.556,N
423,-0.190,1.760,0.080,166.667,55.556,302.778,875.000,11.111,N
424,-0.225,1.815,0.060,152.778,47.222,277.778,855.556,19.444,N
425,-0.220,1.805,0.100,144.444,47.222,280.556,808.333,47.222,N
426,-0.270,1.715,-0.015,172.222,55.556,308.333,813.889,5.556,N
427,-0.330,1.615,-0.055,172.222,52.778,308.333,863.889,50.000,N
428,-0.345,1.815,-0.015,169.444,52.778,291.667,850.000,13.889,N
429,-0.295,1.815,0.030,166.667,52.778,327.778,844.444,5.556,N
430,-0.265,1.785,0.055,163.889,52.778,313.889,869.444,25.000,N
431,-0.225,1.785,0.060,166.667,52.778,300.000,863.889,5.556,N
432,-0.215,1.915,0.100,161.111,52.778,288.889,811.111,52.778,N
433,-0.225,1.915,0.095,155.556,47.222,286.111,802.778,8.333,N
434,-0.235,1.815,0.085,169.444,52.778,311.111,827.778,25.000,N
435,-0.175,1.755,0.110,161.111,55.556,308.333,833.333,5.556,N
436,-0.185,1.845,0.090,155.556,55.556,305.556,808.333,25.000,N
437,-0.215,1.865,0.095,163.889,55.556,313.889,783.333,25.000,N
438,-0.230,1.815,0.055,152.778,52.778,300.000,772.222,11.111,N
439,-0.225,1.700,0.025,158.333,52.778,288.889,786.111,13.889,N
440,-0.240,1.810,0.070,155.556,52.778,291.667,780.556,5.556,N
441,-0.255,1.815,0.095,161.111,50.000,286.111,822.222,41.667,N
442,-0.255,1.835,0.095,172.222,58.333,316.667,911.111,88.889,N
443,-0.230,1.700,0.100,191.667,61.111,313.889,952.778,41.667,N
444,-0.195,1.735,0.155,175.000,52.778,294.444,922.222,30.556,N
445,-0.235,1.880,0.170,155.556,50.000,294.444,922.222,0.000,N
446,-0.215,1.795,0.130,172.222,55.556,305.556,922.222,0.000,N
447,-0.220,1.540,0.095,158.333,52.778,294.444,905.556,16.667,N
448,-0.235,1.810,0.165,155.556,52.778,305.556,891.667,13.889,N
449,-0.245,1.910,0.115,180.556,63.889,322.222,977.778,86.111,N
450,-0.260,1.605,0.085,169.444,58.333,311.111,941.667,36.111,N
451,-0.235,1.625,0.110,175.000,52.778,300.000,902.778,38.889,N
452,-0.235,1.810,0.110,150.000,52.778,294.444,877.778,25.000,N
453,-0.255,1.755,0.075,166.667,52.778,308.333,880.556,2.778,N
454,-0.265,1.555,0.045,155.556,58.333,302.778,875.000,5.556,N
455,-0.205,1.775,0.100,158.333,55.556,302.778,869.444,5.556,N
456,-0.235,1.830,0.105,177.778,61.111,319.444,933.333,63.889,N
457,-0.210,1.765,0.105,172.222,58.333,319.444,927.778,5.556,N
458,-0.235,1.700,0.065,166.667,52.778,291.667,880.556,47.222,N
459,-0.200,1.900,0.135,161.111,50.000,283.333,858.333,22.222,N
460,-0.200,1.870,0.120,152.778,50.000,288.889,861.111,2.778,N
461,-0.215,1.775,0.140,155.556,52.778,305.556,869.444,8.333,N
462,-0.070,1.885,0.265,161.111,52.778,308.333,863.889,5.556,N
463,-0.085,1.830,0.155,180.556,61.111,319.444,908.333,44.444,N
464,-0.185,1.740,0.075,163.889,55.556,311.111,902.778,5.556,N
465,-0.275,1.595,-0.030,161.111,52.778,302.778,861.111,41.667,N
466,-0.335,1.640,-0.065,169.444,52.778,294.444,838.889,22.222,N
467,-0.375,1.675,-0.080,163.889,52.778,288.889,836.111,2.778,N
468,-0.385,1.550,-0.080,155.556,52.778,291.667,850.000,13.889,N
469,-0.355,1.540,-0.030,163.889,55.556,308.333,833.333,16.667,N
470,-0.270,1.805,0.035,175.000,55.556,319.444,858.333,25.000,N
471,-0.275,1.795,0.040,169.444,52.778,305.556,894.444,36.111,N
472,-0.275,1.675,0.050,155.556,50.000,288.889,850.000,44.444,N
473,-0.245,1.665,0.050,147.222,52.778,294.444,819.444,30.556,N
474,-0.210,1.870,0.080,147.222,50.000,283.333,805.556,13.889,N
475,-0.210,1.880,0.105,158.333,52.778,305.556,844.444,38.889,N
476,-0.205,1.815,0.120,175.000,50.000,316.667,869.444,25.000,N
477,-0.180,1.675,0.120,163.889,52.778,297.222,869.444,0.000,N
478,-0.200,1.865,0.105,175.000,55.556,325.000,894.444,25.000,N
479,-0.230,1.845,0.100,158.333,50.000,302.778,897.222,2.778,N
480,-0.230,1.790,0.075,158.333,52.778,300.000,838.889,58.333,N
481,-0.210,1.820,0.120,175.000,52.778,286.111,847.222,8.333,N
482,-0.215,1.925,0.110,163.889,52.778,297.222,855.556,8.333,N
483,-0.235,1.830,0.085,183.333,52.778,297.222,902.778,47.222,N
484,-0.250,1.745,0.070,166.667,52.778,302.778,894.444,8.333,N
485,-0.205,1.860,0.115,175.000,55.556,322.222,880.556,13.889,N
486,-0.240,1.920,0.090,161.111,50.000,291.667,913.889,33.333,N
487,-0.260,1.725,0.060,152.778,47.222,286.111,850.000,63.889,N
488,-0.250,1.760,0.105,172.222,52.778,294.444,827.778,22.222,N
489,-0.250,1.840,0.070,177.778,58.333,311.111,858.333,30.556,N
490,-0.290,1.765,0.060,175.000,61.111,322.222,902.778,44.444,N
491,-0.270,1.695,0.085,166.667,58.333,308.333,897.222,5.556,N
492,-0.220,1.920,0.150,180.556,55.556,319.444,869.444,27.778,N
493,-0.180,1.885,0.125,163.889,50.000,286.111,883.333,13.889,N
494,-0.210,1.730,0.085,158.333,52.778,277.778,827.778,55.556,N
495,-0.230,1.705,0.105,155.556,50.000,277.778,811.111,16.667,N
496,-0.215,1.880,0.095,150.000,47.222,291.667,813.889,2.778,N
497,-0.270,1.850,0.090,166.667,52.778,327.778,872.222,58.333,N
498,-0.240,1.805,0.115,169.444,52.778,308.333,916.667,44.444,N
499,-0.210,1.805,0.150,158.333,52.778,297.222,886.111,30.556,N
500,-0.130,1.915,0.205,172.222,52.778,305.556,883.333,2.778,N
501,-0.130,1.945,0.245,163.889,50.000,294.444,858.333,25.000,N
502,-0.120,1.990,0.235,169.444,52.778,294.444,838.889,19.444,N
503,-0.070,1.865,0.230,172.222,55.556,305.556,869.444,30.556,N
504,-0.080,1.940,0.240,175.000,58.333,311.111,886.111,16.667,N
505,-0.145,1.955,0.195,183.333,55.556,297.222,925.000,38.889,N
506,-0.170,1.745,0.160,175.000,55.556,291.667,888.889,36.111,N
507,-0.135,1.865,0.200,161.111,52.778,305.556,838.889,50.000,N
508,-0.145,1.850,0.170,175.000,50.000,280.556,866.667,27.778,N
509,-0.185,1.790,0.130,158.333,44.444,263.889,833.333,33.333,N
510,-0.225,1.755,0.120,166.667,52.778,308.333,827.778,5.556,N
511,-0.200,1.735,0.135,180.556,52.778,325.000,877.778,50.000,N
512,-0.180,1.770,0.145,175.000,55.556,322.222,908.333,30.556,N
513,-0.165,1.840,0.170,188.889,55.556,313.889,877.778,30.556,N
514,-0.160,1.765,0.105,158.333,52.778,300.000,841.667,36.111,N
515,-0.175,1.700,0.150,166.667,55.556,300.000,838.889,2.778,N
516,-0.150,1.715,0.120,166.667,52.778,288.889,819.444,19.444,N
517,-0.190,1.670,0.125,169.444,55.556,308.333,819.444,0.000,N
518,-0.195,1.715,0.145,177.778,55.556,302.778,875.000,55.556,N
519,-0.195,1.855,0.155,180.556,55.556,313.889,902.778,27.778,N
520,-0.140,1.820,0.190,180.556,50.000,283.333,913.889,11.111,N
521,-0.110,1.825,0.200,172.222,50.000,283.333,861.111,52.778,N
522,-0.140,1.755,0.180,188.889,50.000,305.556,863.889,2.778,N
523,-0.180,1.820,0.130,169.444,50.000,291.667,883.333,19.444,N
524,-0.220,1.705,0.095,183.333,52.778,302.778,872.222,11.111,N
525,-0.210,1.755,0.140,183.333,55.556,313.889,908.333,36.111,N
526,-0.210,1.780,0.105,183.333,55.556,311.111,919.444,11.111,N
527,-0.235,1.695,0.135,188.889,55.556,291.667,936.111,16.667,N
528,-0.225,1.815,0.115,169.444,50.000,280.556,877.778,58.333,N
529,-0.230,1.640,0.085,169.444,52.778,308.333,838.889,38.889,N
530,-0.235,1.605,0.100,180.556,50.000,297.222,872.222,33.333,N
531,-0.205,1.850,0.150,161.111,52.778,283.333,850.000,22.222,N
532,-0.205,1.865,0.120,169.444,52.778,311.111,855.556,5.556,N
533,-0.220,1.690,0.110,166.667,55.556,313.889,880.556,25.000,N
534,-0.185,1.675,0.140,177.778,52.778,300.000,866.667,13.889,N
535,-0.175,1.830,0.145,161.111,52.778,294.444,813.889,52.778,N
536,-0.215,1.815,0.135,152.778,52.778,294.444,805.556,8.333,N
537,-0.210,1.610,0.100,172.222,58.333,316.667,827.778,22.222,N
538,-0.200,1.810,0.105,169.444,58.333,308.333,844.444,16.667,N
539,-0.250,1.705,0.110,163.889,55.556,316.667,855.556,11.111,N
540,-0.255,1.820,0.075,180.556,55.556,308.333,880.556,25.000,N
541,-0.275,1.595,0.040,183.333,58.333,297.222,877.778,2.778,N
542,-0.255,1.575,0.075,166.667,52.778,283.333,844.444,33.333,N
543,-0.240,1.765,0.065,166.667,50.000,277.778,802.778,41.667,N
544,-0.265,1.730,0.035,166.667,55.556,302.778,813.889,11.111,N
545,-0.310,1.515,-0.015,172.222,55.556,297.222,875.000,61.111,N
546,-0.275,1.745,0.065,186.111,52.778,294.444,866.667,8.333,N
547,-0.230,1.820,0.110,169.444,55.556,300.000,858.333,8.333,N
548,-0.245,1.640,0.035,158.333,52.778,302.778,858.333,0.000,N
549,-0.260,1.605,0.050,177.778,52.778,302.778,872.222,13.889,N
550,-0.245,1.805,0.065,166.667,50.000,291.667,841.667,30.556,N
551,-0.250,1.780,0.050,163.889,50.000,294.444,825.000,16.667,N
552,-0.260,1.670,0.080,180.556,55.556,325.000,877.778,52.778,N
553,-0.165,1.840,0.125,177.778,55.556,313.889,908.333,30.556,N
554,-0.185,1.765,0.080,172.222,55.556,319.444,877.778,30.556,N
555,-0.245,1.625,0.015,177.778,58.333,300.000,888.889,11.111,N
556,-0.280,1.615,-0.025,163.889,52.778,286.111,850.000,38.889,N
557,-0.245,1.775,0.025,166.667,50.000,280.556,836.111,13.889,N
558,-0.280,1.790,0.035,169.444,50.000,291.667,819.444,16.667,N
559,-0.275,1.670,0.000,175.000,55.556,311.111,838.889,19.444,N
560,-0.270,1.715,0.080,180.556,58.333,308.333,916.667,77.778,N
561,-0.225,1.900,0.120,169.444,50.000,286.111,880.556,36.111,N
562,-0.220,1.905,0.075,163.889,47.222,302.778,852.778,27.778,N
563,-0.245,1.885,0.090,169.444,55.556,305.556,866.667,13.889,N
564,-0.215,1.935,0.160,169.444,55.556,300.000,858.333,8.333,N
565,-0.190,2.025,0.170,172.222,52.778,300.000,841.667,16.667,N
566,-0.225,1.870,0.065,166.667,55.556,313.889,841.667,0.000,N
567,-0.260,1.770,0.075,180.556,55.556,322.222,908.333,66.667,N
568,-0.250,1.960,0.100,188.889,55.556,311.111,880.556,27.778,N
569,-0.270,1.940,0.060,172.222,52.778,291.667,852.778,27.778,N
570,-0.270,1.765,0.060,172.222,50.000,272.222,830.556,22.222,N
571,-0.235,1.895,0.125,175.000,52.778,291.667,816.667,13.889,N
572,-0.245,2.025,0.095,163.889,47.222,280.556,827.778,11.111,N
573,-0.280,1.885,0.060,161.111,52.778,291.667,822.222,5.556,N
574,-0.240,1.805,0.085,180.556,58.333,327.778,861.111,38.889,N
575,-0.180,1.945,0.150,163.889,55.556,300.000,880.556,19.444,N
576,-0.210,2.040,0.150,158.333,47.222,291.667,855.556,25.000,N
577,-0.240,1.860,0.095,155.556,55.556,305.556,819.444,36.111,N
578,-0.235,1.815,0.105,155.556,55.556,302.778,802.778,16.667,N
579,-0.185,1.925,0.155,161.111,52.778,311.111,805.556,2.778,N
580,-0.145,1.970,0.220,158.333,50.000,308.333,808.333,2.778,N
581,-0.140,1.965,0.170,158.333,52.778,305.556,819.444,11.111,N
582,-0.225,1.850,0.080,180.556,55.556,316.667,861.111,41.667,N
583,-0.245,1.855,0.135,166.667,52.778,311.111,866.667,5.556,N
584,-0.235,1.955,0.150,155.556,50.000,291.667,819.444,47.222,N
585,-0.235,1.910,0.140,172.222,55.556,291.667,836.111,16.667,N
586,-0.220,1.870,0.130,180.556,58.333,294.444,844.444,8.333,N
587,-0.175,1.885,0.200,175.000,55.556,294.444,869.444,25.000,N
588,-0.225,1.875,0.155,175.000,52.778,300.000,888.889,19.444,N
589,-0.250,1.780,0.115,183.333,58.333,313.889,891.667,2.778,N
590,-0.210,1.735,0.165,175.000,55.556,302.778,927.778,36.111,N
591,-0.170,1.950,0.195,169.444,50.000,275.000,875.000,52.778,N
592,-0.205,1.865,0.140,161.111,50.000,297.222,825.000,50.000,N
593,-0.180,1.790,0.150,175.000,52.778,311.111,855.556,30.556,N
594,-0.140,1.910,0.205,180.556,58.333,319.444,875.000,19.444,N
595,-0.165,1.980,0.155,188.889,58.333,313.889,875.000,0.000,N
596,-0.200,1.860,0.110,166.667,58.333,316.667,877.778,2.778,N
597,-0.195,1.690,0.095,177.778,58.333,308.333,911.111,33.333,N
598,-0.190,1.845,0.130,183.333,52.778,286.111,841.667,69.444,N
599,-0.185,1.830,0.135,166.667,50.000,277.778,816.667,25.000,N
600,-0.205,1.745,0.095,169.444,50.000,280.556,836.111,19.444,N
601,-0.200,1.865,0.110,166.667,52.778,311.111,850.000,13.889,N
602,-0.205,1.855,0.115,169.444,50.000,311.111,897.222,47.222,N
603,-0.215,1.795,0.080,163.889,52.778,302.778,877.778,19.444,N
604,-0.210,1.625,0.095,175.000,58.333,319.444,866.667,11.111,N
605,-0.190,1.830,0.110,155.556,50.000,291.667,861.111,5.556,N
606,-0.215,1.880,0.105,155.556,50.000,288.889,822.222,38.889,N
607,-0.235,1.750,0.075,169.444,55.556,308.333,847.222,25.000,N
608,-0.195,1.805,0.140,175.000,55.556,319.444,855.556,8.333,N
609,-0.175,1.920,0.140,183.333,58.333,322.222,902.778,47.222,N
610,-0.205,1.770,0.075,175.000,55.556,308.333,891.667,11.111,N
611,-0.220,1.705,0.090,169.444,55.556,308.333,861.111,30.556,N
612,-0.180,1.820,0.105,172.222,52.778,288.889,872.222,11.111,N
613,-0.255,1.795,0.025,158.333,50.000,275.000,830.556,41.667,N
614,-0.295,1.695,0.015,158.333,50.000,297.222,811.111,19.444,N
615,-0.260,1.700,0.095,161.111,55.556,313.889,852.778,41.667,N
616,-0.225,1.825,0.110,172.222,55.556,319.444,891.667,38.889,N
617,-0.220,1.800,0.085,161.111,52.778,319.444,886.111,5.556,N
618,-0.250,1.625,0.030,163.889,52.778,294.444,872.222,13.889,N
619,-0.260,1.770,0.070,172.222,52.778,305.556,875.000,2.778,N
620,-0.255,1.800,0.080,163.889,52.778,305.556,852.778,22.222,N
621,-0.255,1.705,0.050,169.444,52.778,297.222,858.333,5.556,N
622,-0.265,1.670,0.075,175.000,55.556,297.222,877.778,19.444,N
623,-0.150,1.910,0.215,183.333,52.778,311.111,902.778,25.000,N
624,-0.155,1.870,0.145,180.556,58.333,302.778,947.222,44.444,N
625,-0.240,1.730,0.055,163.889,52.778,283.333,883.333,63.889,N
626,-0.295,1.795,0.055,155.556,50.000,308.333,855.556,27.778,N
627,-0.290,1.805,0.040,158.333,50.000,288.889,872.222,16.667,N
628,-0.350,1.615,-0.045,169.444,52.778,291.667,863.889,8.333,N
629,-0.370,1.635,-0.005,183.333,55.556,311.111,897.222,33.333,N
630,-0.370,1.695,0.005,183.333,55.556,325.000,919.444,22.222,N
631,-0.350,1.670,-0.015,183.333,55.556,302.778,944.444,25.000,N
632,-0.360,1.615,-0.030,186.111,52.778,280.556,900.000,44.444,N
633,-0.305,1.795,0.055,180.556,52.778,302.778,847.222,52.778,N
634,-0.305,1.825,0.045,163.889,50.000,277.778,902.778,55.556,N
635,-0.340,1.720,0.030,158.333,50.000,288.889,872.222,30.556,N
636,-0.315,1.650,0.065,186.111,58.333,313.889,897.222,25.000,N
637,-0.265,1.895,0.130,186.111,55.556,325.000,919.444,22.222,N
638,-0.260,1.875,0.110,175.000,58.333,319.444,925.000,5.556,N
639,-0.265,1.645,0.060,177.778,55.556,283.333,883.333,41.667,N
640,-0.260,1.715,0.115,169.444,52.778,294.444,841.667,41.667,N
641,-0.210,1.900,0.130,169.444,52.778,294.444,866.667,25.000,N
642,-0.230,1.860,0.080,169.444,52.778,291.667,866.667,0.000,N
643,-0.265,1.685,0.050,166.667,52.778,302.778,861.111,5.556,N
644,-0.255,1.755,0.085,177.778,52.778,313.889,897.222,36.111,N
645,-0.230,1.795,0.080,169.444,55.556,311.111,891.667,5.556,N
646,-0.260,1.715,0.040,155.556,50.000,302.778,852.778,38.889,N
647,-0.255,1.790,0.080,163.889,50.000,291.667,825.000,27.778,N
648,-0.240,1.855,0.070,172.222,52.778,305.556,841.667,16.667,N
649,-0.265,1.665,0.030,163.889,58.333,316.667,855.556,13.889,N
650,-0.250,1.705,0.090,180.556,58.333,316.667,886.111,30.556,N
651,-0.230,1.850,0.080,194.444,55.556,305.556,894.444,8.333,N
652,-0.240,1.810,0.080,183.333,58.333,311.111,877.778,16.667,N
653,-0.190,1.880,0.140,177.778,50.000,283.333,875.000,2.778,N
654,-0.200,1.875,0.085,175.000,50.000,275.000,827.778,47.222,N
655,-0.250,1.675,0.070,186.111,52.778,308.333,833.333,5.556,N
656,-0.220,1.855,0.075,169.444,52.778,294.444,894.444,61.111,N
657,-0.270,1.740,-0.005,183.333,52.778,297.222,883.333,11.111,N
658,-0.320,1.620,0.000,175.000,58.333,325.000,891.667,8.333,N
659,-0.250,1.830,0.080,183.333,52.778,311.111,875.000,16.667,N
660,-0.240,1.740,0.065,172.222,52.778,311.111,866.667,8.333,N
661,-0.230,1.740,0.070,166.667,50.000,291.667,836.111,30.556,N
662,-0.205,1.720,0.150,158.333,50.000,294.444,800.000,36.111,N
663,-0.125,1.885,0.175,169.444,52.778,322.222,850.000,50.000,N
664,-0.170,1.790,0.110,177.778,58.333,325.000,891.667,41.667,N
665,-0.220,1.730,0.075,177.778,58.333,302.778,866.667,25.000,N
666,-0.195,1.845,0.115,175.000,52.778,291.667,863.889,2.778,N
667,-0.240,1.855,0.110,166.667,50.000,294.444,861.111,2.778,N
668,-0.240,1.840,0.110,175.000,47.222,286.111,855.556,5.556,N
669,-0.225,1.800,0.135,172.222,52.778,288.889,852.778,2.778,N
670,-0.190,1.845,0.145,194.444,55.556,319.444,866.667,13.889,N
671,-0.185,1.840,0.180,180.556,55.556,313.889,905.556,38.889,N
672,-0.140,1.885,0.190,177.778,55.556,316.667,877.778,27.778,N
673,-0.215,1.795,0.075,191.667,55.556,302.778,869.444,8.333,N
674,-0.265,1.765,0.090,186.111,52.778,294.444,841.667,27.778,N
675,-0.275,1.905,0.085,186.111,52.778,294.444,847.222,5.556,N
676,-0.270,1.885,0.090,166.667,52.778,286.111,811.111,36.111,N
677,-0.260,1.800,0.105,175.000,55.556,308.333,830.556,19.444,N
678,-0.210,1.810,0.140,177.778,58.333,305.556,900.000,69.444,N
679,-0.175,2.015,0.175,175.000,55.556,294.444,866.667,33.333,N
680,-0.210,1.820,0.120,177.778,52.778,302.778,836.111,30.556,N
681,-0.235,1.825,0.130,150.000,44.444,275.000,822.222,13.889,N
682,-0.220,1.975,0.150,169.444,52.778,294.444,802.778,19.444,N
683,-0.220,1.915,0.120,158.333,52.778,288.889,822.222,19.444,N
684,-0.200,1.800,0.090,175.000,52.778,288.889,816.667,5.556,N
685,-0.180,1.910,0.185,175.000,58.333,319.444,819.444,2.778,N
686,-0.120,2.035,0.235,169.444,52.778,305.556,863.889,44.444,N
687,-0.145,1.880,0.155,155.556,50.000,283.333,819.444,44.444,N
688,-0.205,1.770,0.100,163.889,52.778,300.000,783.333,36.111,N
689,-0.175,1.970,0.175,152.778,50.000,288.889,777.778,5.556,N
690,-0.165,1.990,0.190,155.556,50.000,291.667,783.333,5.556,N
691,-0.160,1.915,0.160,169.444,52.778,305.556,800.000,16.667,N
692,-0.175,1.840,0.160,172.222,58.333,308.333,819.444,19.444,N
693,-0.130,2.030,0.210,186.111,58.333,316.667,844.444,25.000,N
694,-0.150,2.070,0.210,169.444,55.556,308.333,863.889,19.444,N
695,-0.160,1.870,0.175,152.778,52.778,300.000,827.778,36.111,N
696,-0.165,1.730,0.145,166.667,55.556,300.000,805.556,22.222,N
697,-0.160,1.890,0.145,172.222,52.778,308.333,805.556,0.000,N
698,-0.190,1.885,0.125,175.000,58.333,308.333,836.111,30.556,N
699,-0.185,1.825,0.140,188.889,55.556,308.333,847.222,11.111,N
700,-0.155,1.945,0.195,180.556,61.111,319.444,858.333,11.111,N
701,-0.115,1.890,0.215,186.111,58.333,313.889,908.333,50.000,N
702,-0.085,1.930,0.250,172.222,52.778,294.444,866.667,41.667,N
703,-0.095,1.895,0.195,183.333,50.000,277.778,827.778,38.889,N
704,-0.125,1.970,0.180,177.778,50.000,286.111,825.000,2.778,N
705,-0.170,1.800,0.130,166.667,55.556,305.556,833.333,8.333,N
706,-0.145,1.765,0.155,169.444,55.556,308.333,883.333,50.000,N
707,-0.125,1.930,0.185,166.667,55.556,300.000,875.000,8.333,N
708,-0.165,1.885,0.115,188.889,58.333,325.000,891.667,16.667,N
709,-0.215,1.810,0.100,161.111,52.778,302.778,902.778,11.111,N
710,-0.175,1.955,0.145,152.778,47.222,294.444,825.000,77.778,N
711,-0.170,1.885,0.170,163.889,55.556,308.333,819.444,5.556,N
712,-0.170,1.815,0.120,169.444,52.778,308.333,833.333,13.889,N
713,-0.185,1.765,0.090,177.778,61.111,311.111,872.222,38.889,N
714,-0.145,1.885,0.145,180.556,55.556,305.556,872.222,0.000,N
715,-0.180,1.840,0.120,166.667,55.556,316.667,852.778,19.444,N
716,-0.200,1.755,0.125,180.556,58.333,305.556,894.444,41.667,N
717,-0.155,1.845,0.155,166.667,52.778,288.889,844.444,50.000,N
718,-0.120,2.025,0.175,163.889,47.222,283.333,794.444,50.000,N
719,-0.150,1.900,0.150,175.000,47.222,297.222,827.778,33.333,N
720,-0.180,1.760,0.120,172.222,55.556,319.444,866.667,38.889,N
721,-0.165,1.845,0.155,163.889,52.778,319.444,883.333,16.667,N
722,-0.175,1.920,0.135,163.889,55.556,300.000,872.222,11.111,N
723,-0.200,1.870,0.115,180.556,55.556,316.667,886.111,13.889,N
724,-0.155,1.835,0.150,163.889,50.000,297.222,847.222,38.889,N
725,-0.145,1.950,0.160,155.556,50.000,288.889,822.222,25.000,N
726,-0.170,1.940,0.125,169.444,50.000,291.667,833.333,11.111,N
727,-0.185,1.775,0.115,183.333,55.556,311.111,850.000,16.667,N
728,-0.185,1.855,0.150,183.333,61.111,316.667,911.111,61.111,N
729,-0.185,1.875,0.125,191.667,55.556,291.667,875.000,36.111,N
730,-0.210,1.800,0.105,177.778,55.556,305.556,852.778,22.222,N
731,-0.210,1.780,0.085,163.889,50.000,286.111,866.667,13.889,N
732,-0.175,1.845,0.145,161.111,50.000,283.333,816.667,50.000,N
733,-0.165,1.960,0.130,169.444,50.000,294.444,808.333,8.333,N
734,-0.205,1.795,0.090,158.333,50.000,302.778,838.889,30.556,N
735,-0.230,1.655,0.055,180.556,55.556,333.333,872.222,33.333,N
736,-0.220,1.850,0.100,177.778,52.778,302.778,863.889,8.333,N
737,-0.210,1.840,0.100,155.556,50.000,286.111,827.778,36.111,N
738,-0.255,1.730,0.030,166.667,52.778,311.111,813.889,13.889,N
739,-0.280,1.655,-0.005,161.111,52.778,291.667,830.556,16.667,N
740,-0.260,1.695,0.075,152.778,50.000,277.778,788.889,41.667,N
741,-0.240,1.800,0.075,166.667,52.778,311.111,797.222,8.333,N
742,-0.250,1.820,0.060,175.000,55.556,322.222,858.333,61.111,N
743,-0.280,1.640,0.020,177.778,55.556,327.778,891.667,33.333,N
744,-0.260,1.610,0.055,177.778,55.556,305.556,875.000,16.667,N
745,-0.215,1.885,0.125,163.889,50.000,288.889,819.444,55.556,N
746,-0.195,1.930,0.130,163.889,52.778,300.000,836.111,16.667,N
747,-0.245,1.795,0.060,166.667,55.556,300.000,836.111,0.000,N
748,-0.270,1.640,0.030,169.444,58.333,300.000,819.444,16.667,N
749,-0.220,1.820,0.130,175.000,58.333,305.556,841.667,22.222,N
750,-0.190,1.875,0.145,180.556,58.333,316.667,858.333,16.667,N
751,-0.210,1.760,0.045,177.778,55.556,286.111,861.111,2.778,N
752,-0.280,1.640,-0.005,166.667,52.778,283.333,816.667,44.444,N
753,-0.285,1.825,0.045,166.667,52.778,300.000,802.778,13.889,N
754,-0.285,1.800,0.045,169.444,52.778,280.556,836.111,33.333,N
755,-0.305,1.730,0.050,166.667,50.000,294.444,830.556,5.556,N
756,-0.205,1.830,0.165,177.778,55.556,302.778,863.889,33.333,N
757,-0.175,1.905,0.155,186.111,52.778,308.333,908.333,44.444,N
758,-0.185,1.830,0.110,186.111,58.333,330.556,900.000,8.333,N
759,-0.245,1.810,0.120,188.889,50.000,291.667,916.667,16.667,N
760,-0.230,1.745,0.105,163.889,50.000,286.111,825.000,91.667,N
761,-0.185,1.770,0.200,177.778,55.556,305.556,877.778,52.778,N
762,-0.135,1.905,0.205,180.556,55.556,300.000,875.000,2.778,N
763,-0.180,1.870,0.165,194.444,58.333,302.778,880.556,5.556,N
764,-0.170,1.775,0.135,175.000,52.778,291.667,894.444,13.889,N
765,-0.140,1.920,0.200,163.889,55.556,300.000,872.222,22.222,N
766,-0.125,1.980,0.195,163.889,47.222,283.333,866.667,5.556,N
767,-0.155,1.805,0.145,169.444,50.000,275.000,825.000,41.667,N
768,-0.170,1.775,0.145,166.667,55.556,313.889,827.778,2.778,N
769,-0.140,1.990,0.190,158.333,55.556,313.889,866.667,38.889,N
770,-0.160,1.970,0.185,158.333,52.778,300.000,866.667,0.000,N
771,-0.160,1.835,0.160,188.889,55.556,311.111,872.222,5.556,N
772,-0.145,1.720,0.220,188.889,61.111,311.111,869.444,2.778,N
773,-0.055,2.020,0.310,166.667,52.778,288.889,855.556,13.889,N
774,-0.040,1.905,0.240,163.889,50.000,280.556,808.333,47.222,N
775,-0.135,1.715,0.110,163.889,52.778,302.778,808.333,0.000,N
776,-0.225,1.590,0.095,177.778,58.333,302.778,869.444,61.111,N
777,-0.205,1.795,0.135,183.333,55.556,297.222,872.222,2.778,N
778,-0.190,1.870,0.160,180.556,52.778,297.222,863.889,8.333,N
779,-0.185,1.695,0.140,163.889,50.000,297.222,866.667,2.778,N
780,-0.160,1.680,0.165,163.889,52.778,300.000,861.111,5.556,N
781,-0.130,1.870,0.195,155.556,50.000,283.333,833.333,27.778,N
782,-0.160,1.915,0.155,161.111,50.000,288.889,816.667,16.667,N
783,-0.185,1.705,0.110,180.556,55.556,327.778,858.333,41.667,N
784,-0.180,1.770,0.160,183.333,52.778,313.889,897.222,38.889,N
785,-0.180,1.870,0.155,169.444,52.778,311.111,886.111,11.111,N
786,-0.195,1.750,0.095,177.778,52.778,305.556,891.667,5.556,N
787,-0.205,1.665,0.075,172.222,58.333,288.889,850.000,41.667,N
788,-0.160,1.775,0.130,163.889,55.556,288.889,838.889,11.111,N
789,-0.170,1.850,0.160,155.556,50.000,288.889,808.333,30.556,N
790,-0.160,1.750,0.145,169.444,52.778,308.333,816.667,8.333,N
791,-0.170,1.740,0.110,183.333,58.333,316.667,891.667,75.000,N
792,-0.210,1.800,0.080,177.778,50.000,288.889,877.778,13.889,N
793,-0.250,1.770,0.055,163.889,50.000,294.444,841.667,36.111,N
794,-0.275,1.670,0.070,155.556,50.000,291.667,852.778,11.111,N
795,-0.205,1.660,0.155,161.111,52.778,297.222,841.667,11.111,N
796,-0.165,1.900,0.155,172.222,47.222,288.889,841.667,0.000,N
797,-0.195,1.780,0.120,163.889,50.000,302.778,844.444,2.778,N
798,-0.215,1.650,0.090,172.222,58.333,327.778,891.667,47.222,N
799,-0.195,1.715,0.155,175.000,55.556,319.444,905.556,13.889,N
800,-0.190,1.855,0.170,180.556,55.556,300.000,869.444,36.111,N
801,-0.195,1.795,0.115,172.222,52.778,288.889,844.444,25.000,N
802,-0.195,1.785,0.125,180.556,55.556,294.444,827.778,16.667,N
803,-0.165,1.905,0.150,166.667,50.000,288.889,836.111,8.333,N
804,-0.215,1.830,0.080,175.000,52.778,288.889,822.222,13.889,N
805,-0.265,1.695,0.055,177.778,55.556,325.000,861.111,38.889,N
806,-0.245,1.695,0.080,194.444,52.778,288.889,919.444,58.333,N
807,-0.230,1.875,0.100,166.667,52.778,286.111,875.000,44.444,N
808,-0.245,1.855,0.075,175.000,50.000,305.556,844.444,30.556,N
809,-0.280,1.705,0.060,163.889,50.000,291.667,841.667,2.778,N
810,-0.215,1.845,0.110,172.222,52.778,313.889,869.444,27.778,N
811,-0.220,1.820,0.075,191.667,55.556,305.556,888.889,19.444,N
812,-0.270,1.695,0.045,183.333,55.556,319.444,891.667,2.778,N
813,-0.220,1.810,0.125,186.111,58.333,327.778,938.889,47.222,N
814,-0.215,1.800,0.105,177.778,52.778,286.111,908.333,30.556,N
815,-0.250,1.720,0.060,161.111,50.000,286.111,847.222,61.111,N
816,-0.255,1.630,0.060,150.000,47.222,280.556,838.889,8.333,N
817,-0.215,1.845,0.115,158.333,55.556,305.556,844.444,5.556,N
818,-0.230,1.920,0.100,166.667,52.778,308.333,877.778,33.333,N
819,-0.255,1.810,0.085,169.444,55.556,316.667,891.667,13.889,N
820,-0.220,1.810,0.165,197.222,55.556,325.000,911.111,19.444,N
821,-0.150,1.895,0.185,169.444,52.778,305.556,897.222,13.889,N
822,-0.200,1.875,0.125,158.333,52.778,297.222,844.444,52.778,N
823,-0.225,1.760,0.045,166.667,55.556,297.222,833.333,11.111,N
824,-0.230,1.895,0.095,191.667,52.778,300.000,847.222,13.889,N
825,-0.235,1.840,0.095,186.111,50.000,291.667,872.222,25.000,N
826,-0.245,1.795,0.060,188.889,52.778,308.333,872.222,0.000,N
827,-0.225,1.785,0.120,180.556,58.333,322.222,875.000,2.778,N
828,-0.170,1.900,0.175,161.111,50.000,286.111,894.444,19.444,N
829,-0.180,1.940,0.130,169.444,50.000,277.778,825.000,69.444,N
830,-0.225,1.765,0.075,152.778,50.000,294.444,816.667,8.333,N
831,-0.230,1.735,0.085,161.111,52.778,308.333,827.778,11.111,N
832,-0.220,1.850,0.110,188.889,55.556,327.778,875.000,47.222,N
833,-0.225,1.750,0.080,172.222,55.556,325.000,886.111,11.111,N
834,-0.245,1.710,0.070,188.889,55.556,322.222,886.111,0.000,N
835,-0.220,1.825,0.125,188.889,55.556,308.333,900.000,13.889,N
836,-0.200,1.865,0.110,166.667,52.778,294.444,858.333,41.667,N
837,-0.210,1.830,0.090,161.111,50.000,297.222,827.778,30.556,N
838,-0.220,1.680,0.105,188.889,50.000,283.333,866.667,38.889,N
839,-0.155,1.845,0.145,188.889,52.778,305.556,863.889,2.778,N
840,-0.170,1.895,0.135,180.556,52.778,300.000,905.556,41.667,N
841,-0.170,1.795,0.175,161.111,52.778,300.000,880.556,25.000,N
842,-0.105,1.730,0.190,169.444,55.556,313.889,858.333,22.222,N
843,-0.155,1.840,0.115,166.667,52.778,280.556,863.889,5.556,N
844,-0.240,1.710,0.015,152.778,50.000,288.889,822.222,41.667,N
845,-0.330,1.560,-0.035,158.333,55.556,305.556,819.444,2.778,N
846,-0.300,1.555,0.020,188.889,58.333,325.000,863.889,44.444,N
847,-0.270,1.785,0.065,188.889,52.778,327.778,900.000,36.111,N
848,-0.260,1.785,0.050,186.111,55.556,311.111,880.556,19.444,N
849,-0.265,1.690,0.035,188.889,55.556,305.556,858.333,22.222,N
850,-0.250,1.650,0.050,172.222,58.333,294.444,861.111,2.778,N
851,-0.230,1.895,0.110,166.667,52.778,294.444,813.889,47.222,N
852,-0.185,1.875,0.140,166.667,50.000,283.333,811.111,2.778,N
853,-0.195,1.745,0.095,186.111,55.556,302.778,847.222,36.111,N
854,-0.195,1.720,0.090,177.778,55.556,327.778,883.333,36.111,N
855,-0.190,1.900,0.115,166.667,50.000,297.222,891.667,8.333,N
856,-0.215,1.835,0.095,158.333,47.222,286.111,844.444,47.222,N
857,-0.240,1.785,0.070,169.444,50.000,308.333,841.667,2.778,N
858,-0.220,1.640,0.080,152.778,50.000,288.889,847.222,5.556,N
859,-0.170,1.900,0.145,172.222,50.000,291.667,836.111,11.111,N
860,-0.190,1.950,0.135,177.778,55.556,316.667,861.111,25.000,N
861,-0.165,1.765,0.160,197.222,58.333,333.333,900.000,38.889,N
862,-0.140,1.735,0.140,188.889,58.333,316.667,925.000,25.000,N
863,-0.175,1.845,0.070,180.556,52.778,297.222,877.778,47.222,N
864,-0.285,1.795,-0.005,180.556,52.778,300.000,830.556,47.222,N
865,-0.335,1.580,-0.030,169.444,55.556,297.222,872.222,41.667,N
866,-0.285,1.720,0.035,169.444,52.778,291.667,836.111,36.111,N
867,-0.275,1.750,0.035,166.667,50.000,308.333,833.333,2.778,N
868,-0.300,1.675,0.005,163.889,50.000,316.667,875.000,41.667,N
869,-0.285,1.675,-0.005,186.111,55.556,327.778,888.889,13.889,N
870,-0.255,1.810,0.050,161.111,52.778,300.000,866.667,22.222,N
871,-0.245,1.865,0.060,155.556,50.000,291.667,819.444,47.222,N
872,-0.300,1.715,-0.010,163.889,52.778,305.556,822.222,2.778,N
873,-0.270,1.730,0.035,175.000,52.778,305.556,833.333,11.111,N
874,-0.220,1.890,0.080,161.111,52.778,313.889,822.222,11.111,N
875,-0.230,1.840,0.070,177.778,55.556,322.222,861.111,38.889,N
876,-0.275,1.765,0.030,186.111,61.111,316.667,877.778,16.667,N
877,-0.285,1.710,0.030,169.444,52.778,294.444,880.556,2.778,N
878,-0.250,1.850,0.075,180.556,47.222,280.556,813.889,66.667,N
879,-0.265,1.810,0.035,161.111,50.000,297.222,797.222,16.667,N
880,-0.305,1.740,0.010,180.556,50.000,297.222,850.000,52.778,N
881,-0.295,1.725,0.030,194.444,50.000,297.222,852.778,2.778,N
882,-0.275,1.810,0.060,186.111,52.778,311.111,855.556,2.778,N
883,-0.275,1.845,0.050,161.111,50.000,305.556,872.222,16.667,N
884,-0.305,1.740,0.040,183.333,55.556,316.667,872.222,0.000,N
885,-0.270,1.630,0.025,175.000,50.000,291.667,844.444,27.778,N
886,-0.260,1.840,0.055,152.778,47.222,291.667,813.889,30.556,N
887,-0.290,1.850,0.015,169.444,52.778,311.111,844.444,30.556,N
888,-0.325,1.690,0.000,172.222,58.333,311.111,875.000,30.556,N
889,-0.300,1.690,0.075,175.000,55.556,316.667,872.222,2.778,N
890,-0.265,1.845,0.090,197.222,52.778,313.889,905.556,33.333,N
891,-0.255,1.825,0.055,194.444,55.556,291.667,891.667,13.889,N
892,-0.275,1.760,0.055,166.667,50.000,291.667,875.000,16.667,N
893,-0.235,1.870,0.090,166.667,50.000,280.556,830.556,44.444,N
894,-0.255,1.810,0.095,180.556,52.778,313.889,830.556,0.000,N
895,-0.265,1.730,0.055,183.333,58.333,313.889,919.444,88.889,N
896,-0.250,1.785,0.080,183.333,55.556,300.000,919.444,0.000,N
897,-0.255,1.855,0.075,186.111,55.556,311.111,850.000,69.444,N
898,-0.275,1.810,0.100,166.667,52.778,311.111,850.000,0.000,N
899,-0.200,1.735,0.130,172.222,55.556,305.556,836.111,13.889,N
900,-0.160,1.750,0.145,155.556,52.778,286.111,791.667,44.444,N
901,-0.175,1.900,0.135,161.111,47.222,283.333,783.333,8.333,N
902,-0.215,1.840,0.135,177.778,55.556,319.444,850.000,66.667,N
903,-0.235,1.720,0.090,175.000,58.333,319.444,883.333,33.333,N
904,-0.270,1.650,0.060,183.333,58.333,311.111,888.889,5.556,N
905,-0.260,1.875,0.125,180.556,52.778,280.556,880.556,8.333,N
906,-0.265,1.800,0.135,172.222,50.000,286.111,858.333,22.222,N
907,-0.230,1.895,0.155,163.889,47.222,277.778,877.778,19.444,N
908,-0.250,1.720,0.095,163.889,52.778,286.111,858.333,19.444,N
909,-0.255,1.620,0.075,191.667,58.333,322.222,919.444,61.111,N
910,-0.240,1.765,0.105,169.444,55.556,313.889,941.667,22.222,N
911,-0.265,1.835,0.085,169.444,52.778,313.889,911.111,30.556,N
912,-0.295,1.585,0.050,169.444,55.556,305.556,908.333,2.778,N
913,-0.245,1.680,0.100,183.333,55.556,297.222,875.000,33.333,N
914,-0.190,1.890,0.150,166.667,52.778,283.333,883.333,8.333,N
915,-0.150,1.965,0.230,161.111,52.778,300.000,880.556,2.778,N
916,-0.155,1.685,0.120,180.556,58.333,327.778,905.556,25.000,N
917,-0.205,1.630,0.080,183.333,58.333,316.667,950.000,44.444,N
918,-0.220,1.810,0.080,158.333,50.000,300.000,894.444,55.556,N
919,-0.260,1.800,0.090,175.000,55.556,302.778,883.333,11.111,N
920,-0.265,1.725,0.065,163.889,55.556,297.222,869.444,13.889,N
921,-0.245,1.685,0.060,180.556,55.556,294.444,883.333,13.889,N
922,-0.205,1.795,0.110,172.222,52.778,291.667,872.222,11.111,N
923,-0.230,1.910,0.105,197.222,58.333,316.667,911.111,38.889,N
924,-0.230,1.735,0.090,172.222,55.556,308.333,941.667,30.556,N
925,-0.215,1.625,0.140,158.333,50.000,291.667,900.000,41.667,N
926,-0.150,1.860,0.165,175.000,50.000,305.556,852.778,47.222,N
927,-0.180,1.905,0.160,169.444,52.778,300.000,858.333,5.556,N
928,-0.180,1.770,0.130,169.444,52.778,308.333,886.111,27.778,N
929,-0.175,1.705,0.135,186.111,55.556,308.333,883.333,2.778,N
930,-0.140,1.910,0.210,180.556,55.556,311.111,900.000,16.667,N
931,-0.135,1.955,0.230,180.556,52.778,300.000,944.444,44.444,N
932,-0.160,1.825,0.135,158.333,52.778,286.111,880.556,63.889,N
933,-0.205,1.640,0.125,147.222,52.778,300.000,850.000,30.556,N
934,-0.140,1.875,0.205,158.333,50.000,297.222,850.000,0.000,N
935,-0.155,1.890,0.200,166.667,55.556,313.889,886.111,36.111,N
936,-0.155,1.815,0.160,172.222,58.333,325.000,905.556,19.444,N
937,-0.195,1.765,0.125,194.444,58.333,319.444,911.111,5.556,N
938,-0.170,1.835,0.210,186.111,58.333,308.333,941.667,30.556,N
939,-0.135,1.985,0.230,169.444,50.000,291.667,883.333,58.333,N
940,-0.125,1.950,0.190,161.111,47.222,286.111,836.111,47.222,N
941,-0.170,1.840,0.150,158.333,47.222,280.556,852.778,16.667,N
942,-0.180,1.655,0.160,158.333,52.778,308.333,852.778,0.000,N
943,-0.160,1.950,0.200,163.889,52.778,308.333,891.667,38.889,N
944,-0.180,1.895,0.150,166.667,52.778,311.111,894.444,2.778,N
945,-0.150,1.805,0.220,177.778,55.556,325.000,900.000,5.556,N
946,-0.070,1.860,0.245,158.333,52.778,308.333,886.111,13.889,N
947,-0.170,1.835,0.135,150.000,50.000,297.222,825.000,61.111,N
948,-0.240,1.790,0.080,169.444,52.778,294.444,841.667,16.667,N
949,-0.305,1.640,0.000,188.889,55.556,319.444,872.222,30.556,N
950,-0.315,1.680,0.050,191.667,55.556,302.778,916.667,44.444,N
951,-0.305,1.885,0.080,175.000,50.000,302.778,900.000,16.667,N
952,-0.260,1.770,0.075,175.000,55.556,319.444,883.333,16.667,N
953,-0.290,1.650,0.045,161.111,47.222,280.556,886.111,2.778,N
954,-0.280,1.670,0.060,155.556,50.000,283.333,830.556,55.556,N
955,-0.240,1.875,0.085,166.667,50.000,294.444,811.111,19.444,N
956,-0.245,1.830,0.110,163.889,52.778,316.667,841.667,30.556,N
957,-0.265,1.770,0.050,177.778,58.333,325.000,908.333,66.667,N
958,-0.250,1.620,0.030,169.444,55.556,313.889,883.333,25.000,N
959,-0.225,1.795,0.085,163.889,52.778,313.889,858.333,25.000,N
960,-0.230,1.935,0.130,175.000,55.556,302.778,880.556,22.222,N
961,-0.215,1.940,0.120,166.667,52.778,294.444,841.667,38.889,N
962,-0.225,1.765,0.080,163.889,52.778,291.667,822.222,19.444,N
963,-0.205,1.645,0.100,180.556,52.778,297.222,855.556,33.333,N
964,-0.220,1.915,0.120,166.667,55.556,316.667,883.333,27.778,N
965,-0.220,1.970,0.110,161.111,52.778,316.667,913.889,30.556,N
966,-0.240,1.775,0.095,163.889,52.778,297.222,888.889,25.000,N
967,-0.190,1.665,0.140,169.444,55.556,308.333,855.556,33.333,N
968,-0.140,1.845,0.165,172.222,50.000,291.667,863.889,8.333,N
969,-0.215,1.840,0.060,152.778,50.000,308.333,833.333,30.556,N
970,-0.280,1.650,0.055,197.222,58.333,316.667,877.778,44.444,N
971,-0.215,1.845,0.160,191.667,55.556,311.111,911.111,33.333,N
972,-0.145,1.955,0.145,180.556,55.556,302.778,922.222,11.111,N
973,-0.265,1.750,-0.030,169.444,50.000,291.667,877.778,44.444,N
974,-0.370,1.570,-0.065,177.778,52.778,305.556,850.000,27.778,N
975,-0.340,1.815,0.030,166.667,47.222,288.889,863.889,13.889,N
976,-0.275,1.815,0.090,161.111,44.444,280.556,838.889,25.000,N
977,-0.260,1.820,0.075,158.333,52.778,316.667,847.222,8.333,N
978,-0.220,1.850,0.140,175.000,55.556,327.778,897.222,50.000,N
979,-0.190,1.915,0.120,180.556,58.333,316.667,925.000,27.778,N
980,-0.225,1.775,0.055,172.222,52.778,302.778,875.000,50.000,N
981,-0.255,1.810,0.045,166.667,50.000,297.222,841.667,33.333,N
982,-0.315,1.860,0.045,183.333,52.778,297.222,883.333,41.667,N
983,-0.320,1.710,0.035,183.333,52.778,280.556,850.000,33.333,N
984,-0.260,1.945,0.110,183.333,50.000,300.000,863.889,13.889,N
985,-0.245,1.765,0.100,158.333,52.778,319.444,894.444,30.556,N
986,-0.210,1.765,0.120,191.667,58.333,322.222,919.444,25.000,N
987,-0.155,1.955,0.205,169.444,52.778,294.444,894.444,25.000,N
988,-0.150,1.960,0.215,163.889,50.000,300.000,844.444,50.000,N
989,-0.140,1.895,0.185,188.889,52.778,305.556,872.222,27.778,N
990,-0.150,1.765,0.180,172.222,55.556,305.556,888.889,16.667,N
991,-0.140,1.885,0.235,186.111,55.556,308.333,894.444,5.556,N
992,-0.120,1.960,0.235,188.889,52.778,294.444,933.333,38.889,N
993,-0.155,1.850,0.205,161.111,55.556,319.444,922.222,11.111,N
994,-0.165,1.775,0.170,169.444,55.556,297.222,908.333,13.889,N
995,-0.160,1.820,0.260,147.222,50.000,277.778,827.778,80.556,N
996,-0.050,1.945,0.325,161.111,50.000,311.111,841.667,13.889,N
997,-0.035,1.900,0.265,161.111,52.778,319.444,872.222,30.556,N
998,-0.145,1.770,0.165,180.556,52.778,311.111,875.000,2.778,N
999,-0.190,1.625,0.140,177.778,61.111,308.333,888.889,13.889,N
1000,-0.165,1.905,0.205,183.333,55.556,300.000,888.889,0.000,N
1001,-0.125,1.915,0.230,180.556,50.000,280.556,883.333,5.556,N
1002,-0.175,1.815,0.150,163.889,50.000,277.778,833.333,50.000,N
1003,-0.195,1.675,0.115,186.111,55.556,313.889,850.000,16.667,N
1004,-0.175,1.820,0.175,166.667,55.556,297.222,900.000,50.000,N
1005,-0.195,1.895,0.150,169.444,47.222,302.778,905.556,5.556,N
1006,-0.215,1.705,0.180,177.778,58.333,319.444,908.333,2.778,N
1007,-0.145,1.750,0.215,188.889,58.333,311.111,911.111,2.778,N
1008,-0.145,1.920,0.160,169.444,52.778,291.667,897.222,13.889,N
1009,-0.190,1.835,0.205,169.444,52.778,294.444,880.556,16.667,N
1010,-0.120,1.710,0.165,169.444,55.556,308.333,850.000,30.556,N
1011,-0.195,1.645,0.040,180.556,52.778,297.222,927.778,77.778,N
1012,-0.310,1.690,-0.020,186.111,50.000,294.444,905.556,22.222,N
1013,-0.420,1.595,-0.080,180.556,58.333,333.333,913.889,8.333,N
1014,-0.380,1.610,0.015,183.333,55.556,319.444,961.111,47.222,N
1015,-0.275,1.785,0.095,183.333,58.333,300.000,919.444,41.667,N
1016,-0.255,1.795,0.075,177.778,52.778,286.111,897.222,22.222,N
1017,-0.235,1.670,0.115,169.444,52.778,313.889,872.222,25.000,N
1018,-0.170,1.855,0.190,180.556,55.556,305.556,944.444,72.222,N
1019,-0.175,1.965,0.190,180.556,52.778,300.000,933.333,11.111,N
1020,-0.200,1.850,0.150,180.556,58.333,316.667,905.556,27.778,N
1021,-0.160,1.800,0.175,166.667,55.556,311.111,900.000,5.556,N
1022,-0.180,1.975,0.195,163.889,55.556,297.222,880.556,19.444,N
1023,-0.185,1.875,0.135,177.778,52.778,288.889,844.444,36.111,N
1024,-0.215,1.745,0.120,177.778,58.333,316.667,886.111,41.667,N
1025,-0.195,1.905,0.175,191.667,55.556,302.778,950.000,63.889,N
1026,-0.175,1.875,0.185,180.556,55.556,300.000,936.111,13.889,N
1027,-0.120,1.745,0.230,175.000,58.333,305.556,911.111,25.000,N
1028,-0.130,1.745,0.200,163.889,52.778,313.889,886.111,25.000,N
1029,-0.200,1.830,0.110,191.667,52.778,305.556,911.111,25.000,N
1030,-0.295,1.705,0.040,197.222,58.333,302.778,888.889,22.222,N
1031,-0.280,1.685,0.130,183.333,58.333,325.000,877.778,11.111,N
1032,-0.225,1.910,0.140,186.111,52.778,305.556,950.000,72.222,N
1033,-0.255,1.825,0.090,166.667,52.778,297.222,908.333,41.667,N
1034,-0.255,1.665,0.075,166.667,52.778,297.222,883.333,25.000,N
1035,-0.225,1.855,0.125,175.000,52.778,288.889,858.333,25.000,N
1036,-0.235,1.855,0.130,169.444,55.556,313.889,875.000,16.667,N
1037,-0.265,1.815,0.050,183.333,52.778,311.111,886.111,11.111,N
1038,-0.265,1.675,0.035,177.778,58.333,322.222,894.444,8.333,N
1039,-0.255,1.880,0.090,183.333,58.333,316.667,952.778,58.333,N
1040,-0.285,1.820,0.090,172.222,58.333,300.000,919.444,33.333,N
1041,-0.305,1.760,0.040,175.000,50.000,300.000,858.333,61.111,N
1042,-0.280,1.670,0.040,169.444,47.222,288.889,861.111,2.778,N
1043,-0.255,1.800,0.065,161.111,50.000,300.000,858.333,2.778,N
1044,-0.285,1.900,0.085,166.667,52.778,311.111,875.000,16.667,N
1045,-0.270,1.750,0.090,172.222,55.556,319.444,905.556,30.556,N
1046,-0.245,1.635,0.090,188.889,58.333,325.000,944.444,38.889,N
1047,-0.200,1.815,0.150,175.000,52.778,308.333,919.444,25.000,N
1048,-0.200,1.895,0.170,161.111,52.778,288.889,850.000,69.444,N
1049,-0.145,1.840,0.205,158.333,52.778,288.889,833.333,16.667,N
1050,-0.130,1.760,0.150,183.333,52.778,305.556,847.222,13.889,N
1051,-0.185,1.760,0.050,161.111,52.778,286.111,841.667,5.556,N
1052,-0.300,1.785,0.030,150.000,50.000,308.333,819.444,22.222,N
1053,-0.290,1.775,0.020,163.889,55.556,322.222,830.556,11.111,N
1054,-0.315,1.665,-0.025,166.667,52.778,294.444,850.000,19.444,N
1055,-0.310,1.540,-0.020,155.556,50.000,272.222,811.111,38.889,N
1056,-0.285,1.860,0.060,155.556,47.222,277.778,794.444,16.667,N
1057,-0.245,1.840,0.115,152.778,50.000,291.667,816.667,22.222,N
1058,-0.210,1.885,0.140,172.222,55.556,325.000,869.444,52.778,N
1059,-0.170,1.735,0.120,180.556,55.556,316.667,908.333,38.889,N
1060,-0.175,1.855,0.190,172.222,52.778,308.333,891.667,16.667,N
1061,-0.165,1.975,0.210,180.556,58.333,313.889,933.333,41.667,N
1062,-0.135,1.870,0.195,169.444,52.778,291.667,897.222,36.111,N
1063,-0.135,1.680,0.175,166.667,52.778,297.222,861.111,36.111,N
1064,-0.115,1.745,0.215,172.222,52.778,291.667,872.222,11.111,N
1065,-0.115,1.950,0.200,183.333,58.333,316.667,894.444,22.222,N
1066,-0.145,1.895,0.140,169.444,55.556,316.667,938.889,44.444,N
1067,-0.205,1.655,0.060,175.000,50.000,308.333,900.000,38.889,N
1068,-0.215,1.490,0.075,169.444,55.556,311.111,883.333,16.667,N
1069,-0.180,1.810,0.145,161.111,52.778,305.556,855.556,27.778,N
1070,-0.165,1.795,0.080,155.556,52.778,311.111,794.444,61.111,N
1071,-0.255,1.615,0.020,172.222,55.556,308.333,816.667,22.222,N
1072,-0.285,1.555,-0.035,183.333,58.333,311.111,850.000,33.333,N
1073,-0.295,1.600,0.015,175.000,55.556,316.667,888.889,38.889,N
1074,-0.280,1.810,0.050,175.000,55.556,302.778,888.889,0.000,N
1075,-0.265,1.795,0.055,169.444,52.778,305.556,875.000,13.889,N
1076,-0.265,1.620,0.030,158.333,52.778,297.222,888.889,13.889,N
1077,-0.270,1.535,0.025,155.556,50.000,286.111,847.222,41.667,N
1078,-0.265,1.785,0.070,152.778,52.778,305.556,844.444,2.778,N
1079,-0.265,1.755,0.075,166.667,55.556,311.111,880.556,36.111,N
1080,-0.250,1.760,0.065,177.778,63.889,322.222,927.778,47.222,N
1081,-0.220,1.620,0.030,166.667,55.556,313.889,886.111,41.667,N
1082,-0.235,1.755,0.075,161.111,55.556,297.222,833.333,52.778,N
1083,-0.185,1.840,0.180,166.667,58.333,302.778,866.667,33.333,N
1084,-0.130,1.790,0.155,158.333,50.000,283.333,830.556,36.111,N
1085,-0.235,1.590,-0.030,163.889,55.556,291.667,841.667,11.111,N
1086,-0.345,1.565,-0.035,172.222,50.000,308.333,883.333,41.667,N
1087,-0.310,1.715,0.075,166.667,55.556,325.000,900.000,16.667,N
1088,-0.205,1.655,0.085,163.889,55.556,319.444,922.222,22.222,N
1089,-0.250,1.575,0.035,155.556,50.000,291.667,875.000,47.222,N
1090,-0.265,1.770,0.040,161.111,55.556,305.556,858.333,16.667,N
1091,-0.335,1.855,-0.005,161.111,52.778,302.778,872.222,13.889,N
1092,-0.335,1.700,0.010,161.111,55.556,302.778,861.111,11.111,N
1093,-0.250,1.870,0.130,169.444,52.778,294.444,925.000,63.889,N
1094,-0.145,1.970,0.215,172.222,52.778,308.333,922.222,2.778,N
1095,-0.125,1.910,0.100,169.444,55.556,311.111,933.333,11.111,N
1096,-0.290,1.715,0.000,175.000,52.778,288.889,916.667,16.667,N
1097,-0.325,1.795,-0.045,175.000,50.000,302.778,886.111,30.556,N
1098,-0.455,1.720,-0.160,166.667,55.556,305.556,919.444,33.333,N
1099,-0.505,1.605,-0.185,177.778,58.333,302.778,913.889,5.556,N
1100,-0.440,1.725,-0.035,175.000,52.778,302.778,933.333,19.444,N
1101,-0.305,2.055,0.095,183.333,58.333,319.444,938.889,5.556,N
1102,-0.195,1.870,0.145,152.778,50.000,305.556,938.889,0.000,N
1103,-0.130,1.835,0.230,150.000,50.000,288.889,869.444,69.444,N
1104,-0.070,2.130,0.265,166.667,55.556,311.111,891.667,22.222,N
1105,-0.075,2.000,0.245,158.333,52.778,302.778,894.444,2.778,N
1106,-0.115,1.920,0.190,172.222,58.333,313.889,911.111,16.667,N
1107,-0.120,2.000,0.235,180.556,55.556,300.000,927.778,16.667,N
1108,-0.105,2.090,0.250,166.667,52.778,311.111,919.444,8.333,N
1109,-0.140,2.035,0.200,155.556,52.778,294.444,913.889,5.556,N
1110,-0.120,1.825,0.210,161.111,50.000,283.333,861.111,52.778,N
1111,-0.105,2.065,0.240,161.111,55.556,311.111,863.889,2.778,N
1112,-0.130,2.005,0.225,161.111,55.556,316.667,872.222,8.333,N
1113,-0.180,1.835,0.140,175.000,55.556,319.444,877.778,5.556,N
1114,-0.200,1.775,0.115,188.889,58.333,311.111,913.889,36.111,N
1115,-0.230,1.880,0.115,169.444,55.556,308.333,883.333,30.556,N
1116,-0.230,1.930,0.125,163.889,50.000,283.333,877.778,5.556,N
1117,-0.265,1.825,0.060,163.889,50.000,277.778,833.333,44.444,N
1118,-0.295,1.695,0.030,155.556,52.778,305.556,825.000,8.333,N
1119,-0.240,1.920,0.140,166.667,50.000,300.000,875.000,50.000,N
1120,-0.220,1.940,0.155,166.667,52.778,297.222,900.000,25.000,N
1121,-0.235,1.830,0.105,180.556,55.556,316.667,900.000,0.000,N
1122,-0.225,1.830,0.140,180.556,58.333,322.222,930.556,30.556,N
1123,-0.190,1.940,0.200,177.778,55.556,302.778,930.556,0.000,N
1124,-0.170,1.920,0.235,177.778,52.778,291.667,894.444,36.111,N
1125,-0.070,1.940,0.300,175.000,55.556,305.556,883.333,11.111,N
1126,-0.085,1.755,0.140,169.444,55.556,308.333,944.444,61.111,N
1127,-0.260,1.795,0.000,183.333,52.778,300.000,930.556,13.889,N
1128,-0.425,1.535,-0.095,186.111,58.333,327.778,922.222,8.333,N
1129,-0.370,1.555,-0.055,169.444,55.556,308.333,900.000,22.222,N
1130,-0.295,1.875,0.095,166.667,52.778,297.222,877.778,22.222,N
1131,-0.225,1.860,0.185,163.889,50.000,283.333,847.222,30.556,N
1132,-0.180,1.905,0.170,169.444,52.778,308.333,838.889,8.333,N
1133,-0.150,1.760,0.175,172.222,55.556,308.333,922.222,83.333,N
1134,-0.150,1.990,0.240,169.444,52.778,297.222,894.444,27.778,N
1135,-0.075,2.030,0.215,169.444,55.556,316.667,872.222,22.222,N
1136,-0.200,1.750,0.015,155.556,52.778,308.333,863.889,8.333,N
1137,-0.375,1.670,-0.085,163.889,52.778,305.556,852.778,11.111,N
1138,-0.455,1.740,-0.125,158.333,52.778,300.000,838.889,13.889,N
1139,-0.445,1.690,-0.085,163.889,52.778,313.889,836.111,2.778,N
1140,-0.365,1.700,-0.025,186.111,55.556,330.556,888.889,52.778,N
1141,-0.355,1.825,-0.025,180.556,55.556,313.889,913.889,25.000,N
1142,-0.350,1.725,0.050,175.000,55.556,302.778,891.667,22.222,N
1143,-0.225,1.650,0.050,183.333,55.556,283.333,869.444,22.222,N
1144,-0.290,1.755,-0.055,180.556,47.222,288.889,841.667,27.778,N
1145,-0.465,1.610,-0.160,152.778,50.000,291.667,847.222,5.556,N
1146,-0.460,1.615,-0.130,163.889,52.778,294.444,847.222,0.000,N
1147,-0.345,1.690,0.005,177.778,55.556,336.111,875.000,27.778,N
1148,-0.295,2.000,0.075,180.556,55.556,316.667,922.222,47.222,N
1149,-0.255,1.830,0.095,161.111,50.000,294.444,891.667,30.556,N
1150,-0.185,1.815,0.140,172.222,52.778,308.333,863.889,27.778,N
1151,-0.115,2.010,0.220,169.444,50.000,308.333,833.333,30.556,N
1152,-0.095,1.990,0.210,172.222,52.778,302.778,872.222,38.889,N
1153,-0.150,1.915,0.145,175.000,55.556,300.000,852.778,19.444,N
1154,-0.180,1.715,0.115,188.889,55.556,325.000,875.000,22.222,N
1155,-0.160,1.965,0.165,180.556,55.556,319.444,944.444,69.444,N
1156,-0.160,1.940,0.155,169.444,52.778,294.444,886.111,58.333,N
1157,-0.220,1.775,0.075,161.111,52.778,302.778,861.111,25.000,N
1158,-0.220,1.705,0.060,152.778,52.778,291.667,841.667,19.444,N
1159,-0.235,1.855,0.065,177.778,52.778,319.444,855.556,13.889,N
1160,-0.240,1.830,0.075,183.333,52.778,313.889,872.222,16.667,N
1161,-0.225,1.775,0.080,163.889,58.333,319.444,880.556,8.333,N
1162,-0.165,1.860,0.140,191.667,61.111,336.111,933.333,52.778,N
1163,-0.135,1.900,0.140,188.889,55.556,308.333,908.333,25.000,N
1164,-0.165,1.730,0.120,163.889,50.000,280.556,875.000,33.333,N
1165,-0.150,1.875,0.130,177.778,50.000,291.667,863.889,11.111,N
1166,-0.195,1.870,0.095,169.444,50.000,302.778,861.111,2.778,N
1167,-0.240,1.750,0.065,169.444,52.778,311.111,913.889,52.778,N
1168,-0.225,1.825,0.085,169.444,50.000,313.889,908.333,5.556,N
1169,-0.230,1.880,0.080,177.778,55.556,322.222,919.444,11.111,N
1170,-0.235,1.785,0.090,166.667,55.556,313.889,919.444,0.000,N
1171,-0.200,1.745,0.140,172.222,50.000,291.667,872.222,47.222,N
1172,-0.160,1.920,0.150,166.667,50.000,275.000,861.111,11.111,N
1173,-0.175,1.795,0.115,175.000,52.778,322.222,891.667,30.556,N
1174,-0.195,1.715,0.125,172.222,52.778,319.444,916.667,25.000,N
1175,-0.210,1.845,0.085,172.222,52.778,311.111,911.111,5.556,N
1176,-0.285,1.690,0.030,197.222,55.556,327.778,933.333,22.222,N
1177,-0.295,1.680,0.060,180.556,50.000,297.222,911.111,22.222,N
1178,-0.250,1.840,0.110,161.111,55.556,300.000,847.222,63.889,N
1179,-0.240,1.755,0.120,166.667,50.000,288.889,861.111,13.889,N
1180,-0.165,1.780,0.170,175.000,55.556,319.444,886.111,25.000,N
1181,-0.155,1.865,0.165,166.667,52.778,308.333,908.333,22.222,N
1182,-0.160,1.930,0.230,161.111,50.000,308.333,883.333,25.000,N
1183,-0.125,1.835,0.160,188.889,55.556,327.778,886.111,2.778,N
1184,-0.230,1.610,0.015,172.222,50.000,286.111,869.444,16.667,N
1185,-0.340,1.750,-0.025,161.111,47.222,283.333,802.778,66.667,N
1186,-0.370,1.740,-0.020,161.111,52.778,305.556,816.667,13.889,N
1187,-0.350,1.625,-0.010,177.778,58.333,322.222,850.000,33.333,N
1188,-0.305,1.585,0.035,183.333,58.333,313.889,891.667,41.667,N
1189,-0.285,1.775,0.080,175.000,55.556,308.333,875.000,16.667,N
1190,-0.280,1.740,0.065,169.444,50.000,308.333,863.889,11.111,N
1191,-0.285,1.715,0.060,191.667,52.778,288.889,883.333,19.444,N
1192,-0.230,1.615,0.125,158.333,52.778,283.333,836.111,47.222,N
1193,-0.200,1.935,0.135,152.778,47.222,288.889,808.333,27.778,N
1194,-0.185,1.925,0.135,163.889,50.000,313.889,847.222,38.889,N
1195,-0.195,1.800,0.220,186.111,58.333,333.333,916.667,69.444,N
1196,-0.045,1.790,0.310,191.667,58.333,319.444,911.111,5.556,N
1197,-0.020,1.935,0.255,172.222,52.778,305.556,897.222,13.889,N
1198,-0.170,1.765,0.105,177.778,55.556,311.111,891.667,5.556,N
1199,-0.220,1.580,0.105,163.889,55.556,302.778,861.111,30.556,N
1200,-0.200,1.810,0.115,177.778,52.778,300.000,833.333,27.778,N
1201,-0.225,1.725,0.090,172.222,52.778,294.444,861.111,27.778,N
1202,-0.220,1.695,0.090,191.667,58.333,322.222,891.667,30.556,N
1203,-0.180,1.860,0.140,166.667,50.000,294.444,905.556,13.889,N
1204,-0.190,1.855,0.140,172.222,47.222,288.889,852.778,52.778,N
1205,-0.210,1.705,0.105,172.222,52.778,305.556,852.778,0.000,N
1206,-0.225,1.690,0.110,163.889,52.778,297.222,855.556,2.778,N
1207,-0.230,1.840,0.120,152.778,50.000,294.444,819.444,36.111,N
1208,-0.230,1.715,0.095,169.444,58.333,316.667,847.222,27.778,N
1209,-0.230,1.650,0.075,180.556,58.333,322.222,897.222,50.000,N
1210,-0.165,1.875,0.185,197.222,58.333,316.667,902.778,5.556,N
1211,-0.165,1.805,0.150,166.667,52.778,288.889,875.000,27.778,N
1212,-0.210,1.670,0.105,177.778,52.778,297.222,841.667,33.333,N
1213,-0.215,1.685,0.095,177.778,55.556,283.333,880.556,38.889,N
1214,-0.205,1.865,0.130,177.778,52.778,283.333,847.222,33.333,N
1215,-0.210,1.855,0.155,161.111,50.000,305.556,847.222,0.000,N
1216,-0.230,1.795,0.105,180.556,55.556,319.444,905.556,58.333,N
1217,-0.220,1.695,0.075,183.333,58.333,316.667,925.000,19.444,N
1218,-0.210,1.800,0.135,169.444,52.778,308.333,883.333,41.667,N
1219,-0.190,1.810,0.125,166.667,47.222,288.889,847.222,36.111,N
1220,-0.225,1.715,0.075,172.222,52.778,305.556,872.222,25.000,N
1221,-0.230,1.645,0.120,172.222,55.556,300.000,875.000,2.778,N
1222,-0.165,1.860,0.155,177.778,55.556,302.778,877.778,2.778,N
1223,-0.185,1.765,0.130,169.444,50.000,311.111,908.333,30.556,N
1224,-0.210,1.660,0.085,166.667,55.556,330.556,913.889,5.556,N
1225,-0.180,1.855,0.160,177.778,50.000,297.222,897.222,16.667,N
1226,-0.175,1.930,0.140,152.778,50.000,294.444,836.111,61.111,N
1227,-0.140,1.835,0.215,163.889,52.778,313.889,850.000,13.889,N
1228,0.000,1.905,0.355,172.222,52.778,311.111,855.556,5.556,N
1229,0.135,2.150,0.410,169.444,50.000,325.000,847.222,8.333,N
1230,0.025,2.060,0.270,177.778,55.556,322.222,894.444,47.222,N
1231,-0.125,1.780,0.095,177.778,52.778,305.556,880.556,13.889,N
1232,-0.205,1.740,0.105,177.778,52.778,288.889,883.333,2.778,N
1233,-0.095,1.815,0.210,175.000,50.000,288.889,830.556,52.778,N
1234,-0.130,1.820,0.145,169.444,50.000,308.333,811.111,19.444,N
1235,-0.210,1.850,0.060,169.444,50.000,294.444,886.111,75.000,N
1236,-0.280,1.585,0.015,172.222,55.556,305.556,886.111,0.000,N
1237,-0.300,1.540,-0.025,183.333,55.556,327.778,894.444,8.333,N
1238,-0.385,1.630,-0.115,175.000,55.556,322.222,908.333,13.889,N
1239,-0.470,1.580,-0.135,183.333,55.556,300.000,905.556,2.778,N
1240,-0.430,1.560,-0.135,183.333,52.778,294.444,866.667,38.889,N
1241,-0.445,1.560,-0.110,155.556,50.000,308.333,838.889,27.778,N
1242,-0.420,1.650,-0.090,172.222,52.778,305.556,886.111,47.222,N
1243,-0.410,1.680,-0.085,177.778,58.333,305.556,902.778,16.667,N
1244,-0.410,1.565,-0.085,169.444,52.778,305.556,880.556,22.222,N
1245,-0.325,1.760,0.000,158.333,47.222,300.000,869.444,11.111,N
1246,-0.300,1.785,0.025,158.333,50.000,305.556,863.889,5.556,N
1247,-0.275,1.780,0.035,166.667,47.222,294.444,841.667,22.222,N
1248,-0.260,1.665,0.050,152.778,50.000,291.667,822.222,19.444,N
1249,-0.235,1.780,0.150,166.667,50.000,325.000,863.889,41.667,N
1250,-0.125,1.785,0.170,175.000,52.778,325.000,905.556,41.667,N
1251,-0.125,1.720,0.150,175.000,52.778,319.444,883.333,22.222,N
1252,-0.195,1.810,0.105,177.778,55.556,305.556,905.556,22.222,N
1253,-0.240,1.725,0.100,169.444,52.778,294.444,872.222,33.333,N
1254,-0.145,1.755,0.210,166.667,52.778,288.889,866.667,5.556,N
1255,-0.030,1.970,0.255,152.778,47.222,283.333,827.778,38.889,N
1256,-0.140,1.855,0.085,163.889,52.778,336.111,850.000,22.222,N
1257,-0.290,1.580,-0.010,183.333,55.556,313.889,927.778,77.778,N
1258,-0.265,1.665,0.095,172.222,52.778,294.444,883.333,44.444,N
1259,-0.185,1.925,0.155,163.889,50.000,319.444,855.556,27.778,N
1260,-0.195,1.915,0.145,152.778,47.222,297.222,836.111,19.444,N
1261,-0.220,1.740,0.085,155.556,52.778,308.333,816.667,19.444,N
1262,-0.215,1.710,0.045,166.667,52.778,302.778,822.222,5.556,N
1263,-0.820,0.605,-0.375,194.444,55.556,-1090180.556,788.889,33.333,N
1264,-0.375,1.050,-0.375,1091022.222,58.333,-1090988.889,808.333,19.444,N
1265,-0.375,0.600,-0.375,1091819.444,100.000,-1091763.889,797.222,11.111,N
1266,-0.720,2.145,0.410,61.111,77.778,322.222,750.000,47.222,N
1267,0.370,3.125,0.235,138.889,61.111,69.444,716.667,33.333,N
1268,-0.800,0.470,-0.885,191.667,102.778,377.778,691.667,25.000,N
1269,-0.745,0.495,-0.560,61.111,102.778,391.667,688.889,2.778,N
1270,-0.475,0.385,-0.360,63.889,100.000,308.333,686.111,2.778,N
1271,-0.300,0.840,-0.225,58.333,80.556,272.222,663.889,22.222,N
1272,-0.070,0.895,-0.185,102.778,83.333,88.889,675.000,11.111,N
1273,-0.105,1.045,0.050,147.222,52.778,325.000,713.889,38.889,N
1274,0.260,2.130,0.560,138.889,58.333,311.111,705.556,8.333,N
1275,0.570,2.470,0.805,138.889,55.556,291.667,686.111,19.444,N
1276,0.780,2.305,0.845,138.889,50.000,297.222,658.333,27.778,N
1277,0.635,1.845,0.335,172.222,52.778,280.556,647.222,11.111,N
1278,0.365,1.930,0.675,138.889,55.556,294.444,655.556,8.333,N
1279,0.635,2.415,0.800,144.444,55.556,311.111,680.556,25.000,N
1280,0.650,2.485,0.795,144.444,52.778,316.667,675.000,5.556,N
1281,0.615,2.550,0.740,141.667,50.000,316.667,702.778,27.778,N
1282,0.540,2.390,0.655,152.778,52.778,327.778,755.556,52.778,N
1283,0.435,2.050,0.495,138.889,50.000,305.556,786.111,30.556,N
1284,0.320,1.735,0.415,136.111,47.222,288.889,766.667,19.444,N
1285,0.255,1.860,0.385,147.222,50.000,302.778,738.889,27.778,N
1286,0.150,1.805,0.270,138.889,47.222,305.556,761.111,22.222,N
1287,0.045,1.640,0.165,147.222,47.222,308.333,794.444,33.333,N
1288,-0.065,1.335,0.025,141.667,52.778,319.444,825.000,30.556,N
1289,-0.140,1.220,-0.020,158.333,52.778,311.111,850.000,25.000,N
1290,-0.155,1.325,0.000,161.111,55.556,330.556,872.222,22.222,N
1291,-0.175,1.330,0.035,152.778,50.000,305.556,894.444,22.222,N
1292,-0.205,1.280,-0.060,141.667,50.000,300.000,855.556,38.889,N
1293,-0.265,1.130,-0.105,152.778,55.556,297.222,841.667,13.889,N
1294,-0.245,1.350,-0.010,144.444,55.556,294.444,855.556,13.889,N
1295,-0.195,1.465,0.045,158.333,50.000,294.444,911.111,55.556,N
1296,-0.185,1.330,0.010,150.000,50.000,308.333,916.667,5.556,N
1297,-0.180,1.230,0.015,152.778,58.333,327.778,944.444,27.778,N
1298,-0.130,1.435,0.120,150.000,50.000,294.444,936.111,8.333,N
1299,-0.075,1.605,0.160,150.000,47.222,291.667,880.556,55.556,N
1300,-0.080,1.580,0.060,161.111,50.000,288.889,894.444,13.889,N
1301,-0.025,1.535,0.405,155.556,52.778,302.778,913.889,19.444,N
1302,0.405,1.935,0.710,158.333,52.778,302.778,952.778,38.889,N
1303,0.415,2.030,0.570,150.000,50.000,308.333,927.778,25.000,N
1304,0.095,1.815,0.205,166.667,55.556,313.889,947.222,19.444,N
1305,-0.150,1.410,0.145,141.667,50.000,302.778,922.222,25.000,N
1306,-0.045,1.460,0.180,136.111,52.778,291.667,861.111,61.111,N
1307,-0.055,1.660,0.155,155.556,52.778,291.667,855.556,5.556,N
1308,-0.190,1.530,0.035,152.778,50.000,291.667,844.444,11.111,N
1309,-0.310,1.275,-0.115,158.333,52.778,302.778,888.889,44.444,N
1310,-0.450,1.120,-0.295,161.111,52.778,302.778,888.889,0.000,N
1311,-0.610,1.075,-0.405,158.333,55.556,311.111,869.444,19.444,N
1312,-0.650,1.180,-0.350,158.333,50.000,280.556,911.111,41.667,N
1313,-0.600,1.100,-0.395,147.222,44.444,272.222,855.556,55.556,N
1314,-0.720,0.910,-0.500,155.556,55.556,313.889,861.111,5.556,N
1315,-0.760,0.805,-0.415,161.111,55.556,316.667,900.000,38.889,N
1316,-0.620,1.165,-0.300,169.444,55.556,313.889,908.333,8.333,N
1317,-0.560,1.205,-0.305,172.222,55.556,308.333,922.222,13.889,N
1318,-0.610,0.880,-0.375,166.667,52.778,305.556,911.111,11.111,N
1319,-0.600,0.885,-0.295,163.889,50.000,283.333,894.444,16.667,N
1320,-0.380,1.300,-0.015,147.222,47.222,266.667,813.889,80.556,N
1321,-0.280,1.500,0.025,152.778,47.222,288.889,808.333,5.556,N
1322,-0.295,1.250,0.000,166.667,50.000,313.889,861.111,52.778,N
1323,-0.255,1.145,-0.005,166.667,58.333,325.000,952.778,91.667,N
1324,-0.205,1.505,0.110,166.667,52.778,308.333,900.000,52.778,N
1325,-0.170,1.515,0.120,169.444,50.000,294.444,886.111,13.889,N
1326,-0.260,1.410,-0.030,169.444,52.778,294.444,900.000,13.889,N
1327,-0.290,1.220,-0.035,163.889,55.556,286.111,872.222,27.778,N
1328,-0.185,1.485,0.155,161.111,50.000,286.111,836.111,36.111,N
1329,-0.120,1.460,0.140,152.778,47.222,291.667,869.444,33.333,N
1330,-0.215,1.420,-0.015,177.778,52.778,319.444,927.778,58.333,N
1331,-0.285,1.200,-0.060,158.333,52.778,322.222,913.889,13.889,N
1332,-0.200,1.390,0.125,144.444,52.778,280.556,808.333,105.556,N
1333,-0.445,1.525,-0.575,175.000,55.556,291.667,775.000,33.333,N
1334,-0.765,1.635,0.775,116.667,50.000,375.000,763.889,11.111,N
1335,0.635,2.530,0.810,197.222,52.778,255.556,722.222,41.667,N
1336,0.385,2.375,-0.025,169.444,52.778,294.444,711.111,11.111,N
1337,-0.480,1.620,-0.350,150.000,55.556,300.000,744.444,33.333,N
1338,-0.475,1.360,-0.215,150.000,55.556,300.000,750.000,5.556,N
1339,-0.315,2.015,0.035,155.556,58.333,291.667,758.333,8.333,N
1340,-0.155,2.180,0.115,158.333,55.556,291.667,730.556,27.778,N
1341,0.020,2.010,0.185,147.222,58.333,288.889,708.333,22.222,N
1342,0.020,1.875,0.220,152.778,61.111,297.222,738.889,30.556,N
1343,0.100,2.245,0.280,150.000,55.556,311.111,733.333,5.556,N
1344,0.110,2.425,0.415,152.778,58.333,311.111,736.111,2.778,N
1345,0.175,2.140,0.340,166.667,58.333,319.444,788.889,52.778,N
1346,0.085,2.160,0.255,163.889,61.111,325.000,805.556,16.667,N
1347,-0.005,2.085,0.160,166.667,55.556,319.444,838.889,33.333,N
1348,-0.035,1.935,0.280,155.556,55.556,305.556,833.333,5.556,N
1349,0.040,1.730,0.190,161.111,55.556,300.000,825.000,8.333,N
1350,-0.020,1.860,0.180,166.667,55.556,291.667,855.556,30.556,N
1351,-0.210,1.745,0.075,186.111,55.556,308.333,772.222,83.333,A
1352,-0.115,1.825,0.220,163.889,55.556,313.889,1008.333,236.111,N
1353,-0.120,1.780,0.020,158.333,52.778,305.556,938.889,69.444,N
1354,-0.220,1.740,-0.045,166.667,58.333,316.667,913.889,25.000,N
1355,-0.315,1.630,-0.060,158.333,52.778,300.000,894.444,19.444,N
1356,-0.290,1.695,0.075,158.333,50.000,288.889,844.444,50.000,N
1357,-0.195,1.590,-0.060,172.222,61.111,313.889,883.333,38.889,N
1358,-0.325,1.620,-0.185,172.222,58.333,302.778,902.778,19.444,N
1359,-0.385,1.570,0.000,166.667,55.556,313.889,888.889,13.889,N
1360,-0.290,1.755,0.015,161.111,55.556,302.778,944.444,55.556,N
1361,-0.200,1.740,0.035,177.778,55.556,302.778,916.667,27.778,N
1362,-0.155,1.815,0.040,147.222,50.000,280.556,883.333,33.333,N
1363,-0.155,1.815,0.110,158.333,50.000,288.889,861.111,22.222,N
1364,-0.225,1.735,0.010,163.889,58.333,319.444,888.889,27.778,N
1365,-0.195,1.800,0.050,163.889,58.333,319.444,919.444,30.556,N
1366,-0.285,1.710,0.000,177.778,58.333,308.333,913.889,5.556,N
1367,-0.285,1.750,-0.040,161.111,55.556,288.889,947.222,33.333,N
1368,-0.325,1.650,0.010,155.556,55.556,305.556,913.889,33.333,N
1369,-0.210,1.860,0.115,158.333,50.000,286.111,883.333,30.556,N
1370,-0.295,1.750,-0.080,161.111,52.778,288.889,852.778,30.556,N
1371,-0.345,1.615,-0.015,161.111,58.333,325.000,866.667,13.889,N
1372,-0.200,1.840,0.045,172.222,55.556,325.000,894.444,27.778,N
1373,-0.305,1.730,-0.045,177.778,58.333,311.111,886.111,8.333,N
1374,-0.410,1.660,-0.130,163.889,58.333,302.778,888.889,2.778,N
1375,-0.345,1.790,0.005,186.111,55.556,280.556,872.222,16.667,N
1376,-0.260,1.820,0.025,169.444,50.000,275.000,869.444,2.778,N
1377,-0.350,1.680,0.060,155.556,52.778,277.778,861.111,8.333,N
1378,-0.265,1.765,0.005,175.000,58.333,308.333,891.667,30.556,N
1379,-0.315,1.635,-0.055,172.222,58.333,297.222,963.889,72.222,N
1380,-0.475,1.615,-0.105,161.111,55.556,316.667,925.000,38.889,N
1381,-0.485,1.690,0.050,183.333,58.333,302.778,950.000,25.000,N
1382,-0.150,1.910,0.090,163.889,55.556,286.111,900.000,50.000,N
1383,-0.190,1.875,0.085,161.111,55.556,291.667,894.444,5.556,N
1384,-0.335,1.735,-0.085,172.222,55.556,272.222,880.556,13.889,N
1385,-0.370,1.765,0.140,180.556,61.111,319.444,925.000,44.444,N
1386,-0.080,1.950,0.125,180.556,58.333,313.889,986.111,61.111,N
1387,-0.210,1.780,0.050,169.444,58.333,302.778,913.889,72.222,N
1388,-0.390,1.730,0.010,175.000,58.333,291.667,927.778,13.889,N
1389,-0.120,1.935,0.415,177.778,50.000,283.333,886.111,41.667,N
1390,0.090,2.110,0.285,155.556,50.000,277.778,891.667,5.556,N
1391,-0.245,1.745,-0.025,161.111,52.778,305.556,869.444,22.222,N
1392,-0.420,1.580,0.050,172.222,61.111,325.000,916.667,47.222,N
1393,-0.190,1.810,0.210,186.111,58.333,322.222,947.222,30.556,N
1394,-0.080,1.900,0.235,172.222,61.111,305.556,905.556,41.667,N
1395,-0.130,1.965,0.170,177.778,55.556,286.111,838.889,66.667,N
1396,-0.780,1.355,-0.375,175.000,88.889,-1202377.778,780.556,58.333,N
1397,-0.375,1.365,-0.530,1203163.889,91.667,297.222,755.556,25.000,N
1398,-0.395,2.070,0.035,152.778,86.111,294.444,738.889,16.667,N
1399,-0.150,1.960,0.405,155.556,58.333,305.556,738.889,0.000,N
1400,-0.305,1.610,-0.100,172.222,58.333,325.000,797.222,58.333,N
1401,-0.190,2.215,0.210,163.889,91.667,319.444,800.000,2.778,N
1402,0.190,2.300,0.930,125.000,52.778,313.889,788.889,11.111,N
1403,0.590,1.795,0.045,197.222,55.556,294.444,772.222,16.667,N
1404,-0.105,2.180,0.690,144.444,55.556,308.333,758.333,13.889,N
1405,0.115,2.445,0.215,197.222,58.333,302.778,772.222,13.889,N
1406,-0.195,2.165,0.295,152.778,55.556,302.778,769.444,2.778,N
1407,-0.085,1.540,-0.150,186.111,52.778,308.333,763.889,5.556,N
1408,0.005,1.720,0.330,130.556,61.111,336.111,794.444,30.556,N
1409,0.515,2.195,0.580,158.333,52.778,308.333,797.222,2.778,N
1410,0.185,1.845,0.030,138.889,47.222,283.333,741.667,55.556,N
1411,-0.320,1.335,-0.250,136.111,50.000,294.444,700.000,41.667,N
1412,-0.325,1.045,-0.150,136.111,47.222,288.889,702.778,2.778,N
1413,0.140,1.510,0.140,147.222,52.778,294.444,711.111,8.333,N
1414,-0.190,1.595,-0.080,163.889,50.000,294.444,730.556,19.444,N
1415,-0.300,1.365,-0.210,158.333,58.333,308.333,730.556,0.000,N
1416,-0.130,1.305,0.015,155.556,58.333,313.889,741.667,11.111,N
1417,-0.285,1.360,-0.140,158.333,58.333,319.444,788.889,47.222,N
1418,-0.205,1.640,0.080,158.333,55.556,302.778,769.444,19.444,N
1419,-0.160,1.440,-0.005,141.667,52.778,288.889,741.667,27.778,N
1420,0.075,1.480,0.055,150.000,55.556,291.667,752.778,11.111,N
1421,-0.305,1.430,-0.150,161.111,58.333,300.000,775.000,22.222,N
1422,-0.340,1.490,-0.065,161.111,55.556,308.333,816.667,41.667,N
1423,-0.240,1.300,-0.110,163.889,55.556,300.000,819.444,2.778,N
1424,-0.185,1.265,-0.255,161.111,58.333,316.667,833.333,13.889,N
1425,-0.410,1.275,-0.125,169.444,58.333,308.333,891.667,58.333,N
1426,-0.260,1.560,0.115,166.667,52.778,283.333,858.333,33.333,N
1427,0.005,1.650,0.220,147.222,47.222,280.556,844.444,13.889,N
1428,-0.035,1.560,0.040,144.444,50.000,283.333,850.000,5.556,N
1429,-0.235,1.420,0.030,163.889,55.556,319.444,897.222,47.222,N
1430,-0.120,1.655,0.195,166.667,52.778,308.333,952.778,55.556,N
1431,-0.080,1.520,0.045,175.000,52.778,308.333,927.778,25.000,N
1432,-0.230,1.340,-0.035,166.667,61.111,313.889,944.444,16.667,N
1433,-0.245,1.505,0.075,158.333,50.000,291.667,905.556,38.889,N
1434,-0.090,1.510,0.115,147.222,47.222,283.333,855.556,50.000,N
1435,-0.150,1.485,0.020,163.889,50.000,291.667,872.222,16.667,N
1436,-0.285,1.265,-0.110,169.444,55.556,325.000,919.444,47.222,N
1437,-0.290,1.435,0.020,188.889,52.778,325.000,950.000,30.556,N
1438,-0.285,1.475,-0.105,158.333,52.778,316.667,922.222,27.778,N
1439,-0.400,1.375,-0.100,161.111,58.333,313.889,955.556,33.333,N
1440,-0.365,1.440,-0.030,161.111,50.000,286.111,908.333,47.222,N
1441,-0.315,1.545,-0.010,166.667,47.222,280.556,858.333,50.000,N
1442,-0.285,1.520,-0.025,155.556,50.000,305.556,891.667,33.333,N
1443,-0.305,1.325,-0.095,175.000,55.556,322.222,936.111,44.444,N
1444,-0.420,1.355,-0.095,166.667,52.778,327.778,925.000,11.111,N
1445,-0.380,1.395,-0.085,163.889,52.778,308.333,913.889,11.111,N
1446,-0.345,1.445,-0.040,166.667,50.000,283.333,916.667,2.778,N
1447,-0.260,1.575,0.005,161.111,52.778,286.111,866.667,50.000,N
1448,-0.285,1.520,0.045,169.444,50.000,297.222,852.778,13.889,N
1449,-0.215,1.560,0.100,150.000,47.222,294.444,880.556,27.778,N
1450,-0.250,1.490,0.070,183.333,52.778,319.444,927.778,47.222,N
1451,-0.260,1.610,0.130,161.111,50.000,305.556,916.667,11.111,N
1452,-0.170,1.475,0.075,155.556,55.556,294.444,877.778,38.889,N
1453,-0.200,1.530,0.050,175.000,52.778,286.111,883.333,5.556,N
1454,-0.210,1.640,0.115,158.333,50.000,286.111,855.556,27.778,N
1455,-0.220,1.650,0.070,161.111,50.000,305.556,833.333,22.222,N
1456,-0.240,1.515,0.035,163.889,55.556,291.667,880.556,47.222,N
1457,-0.260,1.405,0.050,169.444,55.556,305.556,883.333,2.778,N
1458,-0.275,1.680,0.125,166.667,50.000,288.889,897.222,13.889,N
1459,-0.175,1.750,0.145,150.000,47.222,291.667,861.111,36.111,N
1460,-0.215,1.715,0.140,155.556,52.778,302.778,827.778,33.333,N
1461,-0.200,1.560,0.070,152.778,55.556,280.556,855.556,27.778,N
1462,-0.230,1.600,0.100,152.778,52.778,277.778,819.444,36.111,N
1463,-0.235,1.725,0.120,158.333,52.778,311.111,805.556,13.889,N
1464,-0.210,1.775,0.170,172.222,52.778,322.222,863.889,58.333,N
1465,-0.210,1.640,0.120,188.889,58.333,305.556,902.778,38.889,N
1466,-0.170,1.610,0.155,177.778,55.556,305.556,866.667,36.111,N
1467,-0.165,1.715,0.150,155.556,50.000,288.889,813.889,52.778,N
1468,-0.255,1.710,0.090,175.000,55.556,288.889,850.000,36.111,N
1469,-0.295,1.615,0.070,163.889,52.778,288.889,852.778,2.778,N
1470,-0.265,1.470,0.040,163.889,55.556,297.222,852.778,0.000,N
1471,-0.175,1.745,0.215,166.667,55.556,297.222,886.111,33.333,N
1472,-0.175,1.755,0.250,175.000,52.778,305.556,908.333,22.222,N
1473,-0.090,1.840,0.250,158.333,52.778,288.889,916.667,8.333,N
1474,-0.145,1.605,0.150,161.111,52.778,283.333,855.556,61.111,N
1475,-0.135,1.730,0.220,175.000,58.333,305.556,880.556,25.000,N
1476,-0.190,1.690,0.235,172.222,52.778,302.778,883.333,2.778,N
1477,-0.105,1.795,0.220,169.444,55.556,308.333,908.333,25.000,N
1478,-0.180,1.570,0.105,175.000,55.556,294.444,955.556,47.222,N
1479,-0.255,1.470,0.080,175.000,55.556,305.556,919.444,36.111,N
1480,-0.280,1.730,0.060,158.333,52.778,291.667,927.778,8.333,N
1481,-0.220,1.685,0.150,152.778,50.000,277.778,880.556,47.222,N
1482,-0.210,1.530,0.055,161.111,58.333,308.333,891.667,11.111,N
1483,-0.250,1.580,0.110,169.444,55.556,308.333,911.111,19.444,N
1484,-0.245,1.730,0.155,175.000,52.778,305.556,933.333,22.222,N
1485,-0.180,1.750,0.230,172.222,52.778,302.778,952.778,19.444,N
1486,-0.055,1.705,0.175,172.222,55.556,308.333,944.444,8.333,N
1487,-0.235,1.605,0.095,169.444,52.778,291.667,905.556,38.889,N
1488,-0.235,1.725,0.110,152.778,47.222,294.444,875.000,30.556,N
1489,-0.240,1.590,0.120,163.889,52.778,308.333,900.000,25.000,N
1490,-0.235,1.495,0.060,169.444,58.333,313.889,930.556,30.556,N
1491,-0.295,1.420,-0.040,186.111,55.556,294.444,905.556,25.000,N
1492,-0.285,1.435,0.065,172.222,50.000,291.667,900.000,5.556,N
1493,-0.275,1.565,0.060,172.222,50.000,308.333,902.778,2.778,N
1494,-0.250,1.520,0.075,147.222,50.000,288.889,888.889,13.889,N
1495,-0.235,1.495,0.140,152.778,50.000,291.667,858.333,30.556,N
1496,-0.195,1.705,0.125,163.889,58.333,319.444,908.333,50.000,N
1497,-0.235,1.590,0.085,175.000,55.556,308.333,930.556,22.222,N
1498,-0.300,1.545,0.065,166.667,58.333,302.778,936.111,5.556,N
1499,-0.260,1.430,0.070,161.111,50.000,294.444,919.444,16.667,N
1500,-0.230,1.640,0.170,158.333,50.000,297.222,880.556,38.889,N
1501,-0.150,1.735,0.205,150.000,50.000,291.667,855.556,25.000,N
1502,-0.120,1.735,0.190,147.222,47.222,294.444,830.556,25.000,N
1503,-0.150,1.590,0.130,166.667,55.556,313.889,883.333,52.778,N
1504,-0.165,1.640,0.155,177.778,55.556,313.889,897.222,13.889,N
1505,-0.205,1.675,0.165,163.889,55.556,319.444,883.333,13.889,N
1506,-0.090,1.825,0.250,166.667,55.556,294.444,888.889,5.556,N
1507,-0.115,1.725,0.140,163.889,50.000,294.444,850.000,38.889,N
1508,-0.215,1.490,0.035,166.667,52.778,277.778,833.333,16.667,N
1509,-0.220,1.595,0.125,150.000,47.222,275.000,797.222,36.111,N
1510,-0.185,1.750,0.195,161.111,52.778,305.556,808.333,11.111,N
1511,-0.125,1.785,0.210,169.444,55.556,308.333,883.333,75.000,N
1512,-0.115,1.670,0.170,175.000,50.000,286.111,886.111,2.778,N
1513,-0.160,1.485,0.100,152.778,52.778,297.222,838.889,47.222,N
1514,-0.165,1.675,0.170,152.778,52.778,308.333,836.111,2.778,N
1515,-0.135,1.645,0.190,158.333,50.000,302.778,855.556,19.444,N
1516,-0.180,1.525,0.130,155.556,50.000,291.667,844.444,11.111,N
1517,-0.215,1.470,0.090,166.667,55.556,302.778,861.111,16.667,N
1518,-0.230,1.475,0.105,180.556,58.333,319.444,947.222,86.111,N
1519,-0.255,1.595,0.115,172.222,52.778,302.778,941.667,5.556,N
1520,-0.210,1.585,0.130,163.889,50.000,297.222,891.667,50.000,N
1521,-0.205,1.400,0.050,150.000,47.222,280.556,869.444,22.222,N
1522,-0.215,1.555,0.120,158.333,52.778,302.778,861.111,8.333,N
1523,-0.225,1.640,0.155,155.556,50.000,288.889,861.111,0.000,N
1524,-0.145,1.600,0.140,155.556,50.000,305.556,855.556,5.556,N
1525,-0.205,1.420,0.060,175.000,61.111,325.000,913.889,58.333,N
1526,-0.265,1.530,0.075,169.444,58.333,316.667,894.444,19.444,N
1527,-0.215,1.695,0.225,166.667,52.778,297.222,833.333,61.111,N
1528,-0.065,1.705,0.205,158.333,50.000,280.556,838.889,5.556,N
1529,-0.170,1.525,0.035,158.333,50.000,291.667,830.556,8.333,N
1530,-0.300,1.355,-0.025,172.222,50.000,286.111,838.889,8.333,N
1531,-0.330,1.470,0.030,161.111,50.000,288.889,827.778,11.111,N
1532,-0.255,1.505,0.065,166.667,52.778,325.000,850.000,22.222,N
1533,-0.220,1.450,0.070,161.111,55.556,302.778,908.333,58.333,N
1534,-0.200,1.585,0.160,161.111,50.000,277.778,869.444,38.889,N
1535,-0.180,1.640,0.145,152.778,50.000,291.667,819.444,50.000,N
1536,-0.265,1.510,0.025,150.000,50.000,308.333,847.222,27.778,N
1537,-0.315,1.445,0.010,172.222,52.778,305.556,905.556,58.333,N
1538,-0.320,1.395,-0.005,158.333,58.333,305.556,838.889,66.667,N
1539,-0.285,1.220,0.045,152.778,55.556,311.111,808.333,30.556,N
1540,-0.160,1.400,-0.065,180.556,61.111,316.667,830.556,22.222,N
1541,-0.395,1.430,-0.040,155.556,55.556,305.556,791.667,38.889,N
1542,-0.290,1.625,0.075,147.222,50.000,291.667,744.444,47.222,N
1543,-0.195,1.335,0.500,150.000,52.778,294.444,727.778,16.667,N
1544,-0.025,1.395,0.070,144.444,58.333,300.000,713.889,13.889,N
1545,-0.210,1.610,0.380,152.778,58.333,313.889,744.444,30.556,N
1546,0.100,1.500,0.105,150.000,55.556,305.556,750.000,5.556,N
1547,-0.205,1.425,-0.055,161.111,52.778,288.889,750.000,0.000,N
1548,-0.640,1.355,-0.220,163.889,58.333,322.222,775.000,25.000,N
1549,-0.410,1.260,-0.105,150.000,50.000,297.222,802.778,27.778,N
1550,-0.330,1.350,-0.050,155.556,50.000,272.222,755.556,47.222,N
1551,-0.305,1.695,0.025,147.222,50.000,291.667,747.222,8.333,N
1552,-0.205,1.580,0.125,138.889,44.444,280.556,788.889,41.667,N
1553,-0.155,1.425,0.030,150.000,52.778,308.333,825.000,36.111,N
1554,-0.220,1.555,0.065,150.000,55.556,316.667,863.889,38.889,N
1555,-0.225,1.695,0.105,150.000,52.778,283.333,883.333,19.444,N
1556,-0.155,1.670,0.235,166.667,52.778,325.000,919.444,36.111,N
1557,-0.040,1.550,0.210,161.111,55.556,300.000,911.111,8.333,N
1558,-0.045,1.705,0.230,150.000,50.000,294.444,852.778,58.333,N
1559,-0.190,1.615,0.080,169.444,50.000,291.667,886.111,33.333,N
1560,-0.170,1.515,0.125,155.556,52.778,311.111,900.000,13.889,N
1561,-0.100,1.605,0.230,152.778,52.778,311.111,916.667,16.667,N
1562,-0.090,1.630,0.190,144.444,52.778,305.556,922.222,5.556,N
1563,-0.140,1.650,0.185,169.444,52.778,311.111,930.556,8.333,N
1564,-0.070,1.665,0.230,147.222,52.778,300.000,908.333,22.222,N
1565,-0.065,1.770,0.220,122.222,52.778,291.667,861.111,47.222,N
1566,-0.125,1.675,0.160,161.111,50.000,280.556,855.556,5.556,N
1567,-0.175,1.585,0.205,161.111,55.556,316.667,866.667,11.111,N
1568,-0.075,1.620,0.240,155.556,55.556,305.556,927.778,61.111,N
1569,-0.045,1.880,0.240,155.556,52.778,297.222,891.667,36.111,N
1570,-0.155,1.725,0.200,177.778,55.556,308.333,908.333,16.667,N
1571,-0.215,1.505,0.075,144.444,50.000,272.222,902.778,5.556,N
1572,-0.170,1.720,0.150,155.556,50.000,302.778,863.889,38.889,N
1573,-0.120,1.840,0.225,158.333,52.778,302.778,900.000,36.111,N
1574,-0.255,1.695,0.135,183.333,55.556,313.889,941.667,41.667,N
1575,-0.245,1.430,0.100,172.222,50.000,291.667,969.444,27.778,N
1576,-0.265,1.535,0.085,155.556,50.000,294.444,936.111,33.333,N
1577,-0.280,1.610,0.050,166.667,52.778,311.111,927.778,8.333,N
1578,-0.285,1.545,0.015,150.000,50.000,291.667,902.778,25.000,N
1579,-0.340,1.470,-0.070,152.778,52.778,294.444,863.889,38.889,N
1580,-0.355,1.500,-0.080,183.333,52.778,302.778,727.778,136.111,A
1581,-0.330,1.580,0.115,161.111,50.000,313.889,1116.667,388.889,N
1582,-0.140,1.740,0.210,158.333,55.556,305.556,983.333,133.333,N
1583,-0.130,1.690,0.145,152.778,50.000,291.667,922.222,61.111,N
1584,-0.210,1.740,0.140,158.333,50.000,302.778,905.556,16.667,N
1585,-0.275,1.640,0.185,169.444,50.000,300.000,894.444,11.111,N
1586,-0.170,1.615,0.135,163.889,52.778,288.889,888.889,5.556,N
1587,-0.275,1.700,0.090,155.556,50.000,291.667,900.000,11.111,N
1588,-0.315,1.600,0.055,161.111,52.778,319.444,902.778,2.778,N
1589,-0.285,1.630,0.170,150.000,47.222,294.444,925.000,22.222,N
1590,-0.205,1.455,0.040,155.556,50.000,286.111,852.778,72.222,N
1591,-0.275,1.605,0.085,155.556,52.778,305.556,836.111,16.667,N
1592,-0.340,1.465,0.070,158.333,47.222,297.222,852.778,16.667,N
1593,-0.265,1.670,0.220,152.778,50.000,305.556,841.667,11.111,N
1594,-0.175,1.525,0.055,180.556,58.333,316.667,897.222,55.556,N
1595,-0.335,1.320,0.040,180.556,58.333,316.667,897.222,0.000,N
1596,-0.340,1.480,0.170,161.111,50.000,302.778,927.778,30.556,N
1597,-0.125,1.735,0.310,155.556,47.222,277.778,886.111,41.667,N
1598,-0.165,1.475,0.035,175.000,55.556,305.556,858.333,27.778,N
1599,-0.335,1.425,0.050,158.333,50.000,286.111,872.222,13.889,N
1600,-0.290,1.605,0.220,166.667,47.222,297.222,861.111,11.111,N
1601,-0.085,1.615,0.275,169.444,55.556,313.889,913.889,52.778,N
1602,-0.180,1.360,0.065,183.333,58.333,311.111,936.111,22.222,N
1603,-0.270,1.500,0.105,166.667,55.556,291.667,913.889,22.222,N
1604,-0.250,1.600,0.125,163.889,47.222,283.333,863.889,50.000,N
1605,-0.260,1.540,0.100,169.444,47.222,291.667,852.778,11.111,N
1606,-0.205,1.440,0.095,155.556,55.556,294.444,869.444,16.667,N
1607,-0.275,1.430,0.145,161.111,52.778,300.000,855.556,13.889,N
1608,-0.190,1.645,0.185,161.111,52.778,316.667,872.222,16.667,N
1609,-0.275,1.565,0.035,186.111,55.556,325.000,905.556,33.333,N
1610,-0.320,1.400,0.055,169.444,55.556,302.778,933.333,27.778,N
1611,-0.110,1.685,0.385,158.333,50.000,286.111,855.556,77.778,N
1612,0.065,1.820,0.365,152.778,50.000,305.556,844.444,11.111,N
1613,-0.065,1.575,0.105,177.778,58.333,288.889,905.556,61.111,N
1614,-0.260,1.380,0.105,163.889,50.000,297.222,886.111,19.444,N
1615,-0.160,1.685,0.315,155.556,52.778,308.333,891.667,5.556,N
1616,0.000,1.805,0.290,163.889,52.778,313.889,894.444,2.778,N
1617,-0.250,1.440,-0.035,169.444,55.556,313.889,916.667,22.222,N
1618,-0.310,1.460,0.125,158.333,52.778,291.667,872.222,44.444,N
1619,-0.085,1.785,0.375,169.444,50.000,294.444,847.222,25.000,N
1620,-0.065,1.735,0.175,183.333,52.778,311.111,930.556,83.333,N
1621,-0.260,1.360,0.055,169.444,52.778,297.222,950.000,19.444,N
1622,-0.210,1.390,0.210,158.333,52.778,313.889,911.111,38.889,N
1623,0.000,1.770,0.370,163.889,52.778,308.333,925.000,13.889,N
1624,-0.095,1.600,0.155,177.778,52.778,302.778,922.222,2.778,N
1625,-0.245,1.435,-0.070,158.333,52.778,288.889,883.333,38.889,N
1626,-0.445,1.260,0.000,161.111,55.556,297.222,872.222,11.111,N
1627,-0.125,1.720,0.310,166.667,55.556,300.000,919.444,47.222,N
1628,-0.110,1.630,0.180,169.444,52.778,291.667,938.889,19.444,N
1629,-0.225,1.405,0.005,158.333,55.556,322.222,916.667,22.222,N
1630,-0.290,1.400,0.190,158.333,55.556,311.111,913.889,2.778,N
1631,-0.055,1.710,0.270,161.111,50.000,311.111,894.444,19.444,N
1632,-0.130,1.555,0.170,161.111,50.000,300.000,863.889,30.556,N
1633,-0.215,1.420,0.010,175.000,55.556,302.778,877.778,13.889,N
1634,-0.300,1.375,0.125,166.667,52.778,308.333,925.000,47.222,N
1635,-0.120,1.680,0.200,163.889,50.000,291.667,919.444,5.556,N
1636,-0.250,1.510,0.040,163.889,50.000,300.000,894.444,25.000,N
1637,-0.300,1.425,0.025,161.111,52.778,302.778,880.556,13.889,N
1638,-0.240,1.390,0.185,158.333,55.556,311.111,863.889,16.667,N
1639,-0.085,1.725,0.245,144.444,50.000,300.000,833.333,30.556,N
1640,-0.185,1.600,0.085,161.111,50.000,300.000,816.667,16.667,N
1641,-0.285,1.455,-0.020,180.556,58.333,333.333,888.889,72.222,N
1642,-0.305,1.520,0.150,188.889,52.778,322.222,891.667,2.778,N
1643,-0.120,1.745,0.225,163.889,52.778,294.444,877.778,13.889,N
1644,-0.170,1.630,0.165,161.111,50.000,286.111,894.444,16.667,N
1645,-0.280,1.400,0.015,150.000,50.000,300.000,866.667,27.778,N
1646,-0.235,1.580,0.195,150.000,47.222,294.444,872.222,5.556,N
1647,-0.210,1.655,0.090,158.333,50.000,300.000,877.778,5.556,N
1648,-0.325,1.455,0.020,177.778,52.778,333.333,933.333,55.556,N
1649,-0.350,1.265,0.005,175.000,55.556,322.222,947.222,13.889,N
1650,-0.200,1.490,0.160,163.889,55.556,300.000,886.111,61.111,N
1651,-0.195,1.525,0.125,172.222,50.000,280.556,872.222,13.889,N
1652,-0.270,1.450,0.065,158.333,47.222,283.333,841.667,30.556,N
1653,-0.295,1.285,-0.010,158.333,47.222,283.333,847.222,5.556,N
1654,-0.285,1.400,0.095,161.111,50.000,294.444,805.556,41.667,N
1655,-0.200,1.615,0.150,177.778,52.778,322.222,813.889,8.333,N
1656,-0.230,1.575,0.135,158.333,47.222,300.000,852.778,38.889,N
1657,-0.235,1.430,0.040,161.111,52.778,297.222,850.000,2.778,N
1658,-0.265,1.410,0.140,158.333,52.778,302.778,830.556,19.444,N
1659,-0.130,1.635,0.240,147.222,50.000,294.444,836.111,5.556,N
1660,-0.170,1.505,0.170,180.556,52.778,313.889,902.778,66.667,N
1661,-0.225,1.345,0.055,166.667,55.556,302.778,913.889,11.111,N
1662,-0.265,1.445,0.085,172.222,55.556,325.000,927.778,13.889,N
1663,-0.210,1.595,0.165,172.222,52.778,308.333,1013.889,86.111,N
1664,-0.175,1.425,0.110,158.333,50.000,280.556,975.000,38.889,N
1665,-0.255,1.320,0.030,158.333,52.778,305.556,894.444,80.556,N
1666,-0.350,1.380,0.040,155.556,52.778,308.333,883.333,11.111,N
1667,-0.250,1.550,0.160,169.444,52.778,313.889,927.778,44.444,N
1668,-0.185,1.415,0.105,169.444,55.556,300.000,927.778,0.000,N
1669,-0.240,1.515,0.055,186.111,52.778,313.889,922.222,5.556,N
1670,-0.250,1.560,0.190,158.333,47.222,305.556,952.778,30.556,N
1671,-0.105,1.590,0.155,152.778,52.778,277.778,897.222,55.556,N
1672,-0.195,1.450,0.080,152.778,52.778,294.444,847.222,50.000,N
1673,-0.295,1.515,0.035,158.333,50.000,313.889,863.889,16.667,N
1674,-0.280,1.480,0.115,158.333,55.556,316.667,897.222,33.333,N
1675,-0.195,1.395,0.040,169.444,55.556,300.000,905.556,8.333,N
1676,-0.265,1.465,0.020,169.444,52.778,322.222,905.556,0.000,N
1677,-0.335,1.415,0.020,166.667,52.778,294.444,947.222,41.667,N
1678,-0.200,1.580,0.130,147.222,52.778,286.111,877.778,69.444,N
1679,-0.165,1.435,0.105,158.333,50.000,302.778,841.667,36.111,N
1680,-0.245,1.480,0.025,158.333,50.000,302.778,850.000,8.333,N
1681,-0.360,1.475,0.020,169.444,52.778,325.000,900.000,50.000,N
1682,-0.240,1.525,0.060,166.667,55.556,313.889,897.222,2.778,N
1683,-0.235,1.425,0.045,158.333,55.556,325.000,852.778,44.444,N
1684,-0.270,1.530,-0.005,169.444,52.778,311.111,877.778,25.000,N
1685,-0.355,1.435,-0.045,155.556,50.000,288.889,822.222,55.556,N
1686,-0.315,1.465,0.030,155.556,52.778,294.444,797.222,25.000,N
1687,-0.245,1.450,0.060,155.556,52.778,291.667,816.667,19.444,N
1688,-0.220,1.640,0.065,163.889,50.000,297.222,827.778,11.111,N
1689,-0.275,1.545,0.045,155.556,52.778,311.111,905.556,77.778,N
1690,-0.245,1.490,0.120,161.111,52.778,302.778,905.556,0.000,N
1691,-0.185,1.460,0.085,166.667,55.556,313.889,905.556,0.000,N
1692,-0.200,1.540,0.070,150.000,50.000,291.667,869.444,36.111,N
1693,-0.320,1.450,-0.010,136.111,44.444,288.889,819.444,50.000,N
1694,-0.305,1.550,0.050,158.333,52.778,305.556,858.333,38.889,N
1695,-0.265,1.445,0.020,175.000,58.333,305.556,894.444,36.111,N
1696,-0.295,1.525,0.045,175.000,52.778,302.778,919.444,25.000,N
1697,-0.310,1.665,0.115,163.889,52.778,302.778,919.444,0.000,N
1698,-0.165,1.675,0.200,163.889,52.778,305.556,913.889,5.556,N
1699,-0.170,1.600,0.110,152.778,50.000,288.889,894.444,19.444,N
1700,-0.215,1.645,0.120,144.444,50.000,291.667,811.111,83.333,N
1701,-0.230,1.665,0.155,172.222,50.000,311.111,838.889,27.778,N
1702,-0.200,1.595,0.105,172.222,55.556,322.222,869.444,30.556,N
1703,-0.250,1.455,0.020,175.000,61.111,308.333,936.111,66.667,N
1704,-0.295,1.670,0.110,166.667,58.333,302.778,902.778,33.333,N
1705,-0.230,1.725,0.170,163.889,50.000,311.111,902.778,0.000,N
1706,-0.245,1.625,0.070,155.556,50.000,283.333,925.000,22.222,N
1707,-0.330,1.420,0.000,152.778,50.000,291.667,877.778,47.222,N
1708,-0.275,1.665,0.160,161.111,52.778,322.222,872.222,5.556,N
1709,-0.200,1.735,0.160,175.000,55.556,322.222,916.667,44.444,N
1710,-0.235,1.645,0.095,172.222,55.556,308.333,969.444,52.778,N
1711,-0.250,1.460,0.125,169.444,52.778,291.667,925.000,44.444,N
1712,-0.170,1.635,0.200,158.333,50.000,302.778,888.889,36.111,N
1713,-0.200,1.715,0.140,147.222,47.222,288.889,919.444,30.556,N
1714,-0.280,1.565,0.050,158.333,47.222,297.222,883.333,36.111,N
1715,-0.260,1.565,0.165,175.000,58.333,322.222,897.222,13.889,N
1716,-0.135,1.780,0.255,172.222,55.556,325.000,944.444,47.222,N
1717,-0.155,1.745,0.205,169.444,52.778,305.556,969.444,25.000,N
1718,-0.220,1.510,0.100,155.556,52.778,288.889,933.333,36.111,N
1719,-0.220,1.525,0.145,158.333,52.778,308.333,880.556,52.778,N
1720,-0.210,1.660,0.140,158.333,47.222,300.000,905.556,25.000,N
1721,-0.235,1.645,0.115,147.222,50.000,316.667,869.444,36.111,N
1722,-0.225,1.395,0.085,161.111,58.333,322.222,897.222,27.778,N
1723,-0.170,1.540,0.200,166.667,55.556,316.667,919.444,22.222,N
1724,-0.120,1.655,0.180,163.889,50.000,297.222,900.000,19.444,N
1725,-0.195,1.685,0.155,158.333,50.000,286.111,850.000,50.000,N
1726,-0.215,1.540,0.080,161.111,52.778,302.778,847.222,2.778,N
1727,-0.265,1.470,0.090,150.000,50.000,280.556,888.889,41.667,N
1728,-0.205,1.655,0.175,150.000,50.000,308.333,883.333,5.556,N
1729,-0.205,1.685,0.145,177.778,55.556,319.444,930.556,47.222,N
1730,-0.220,1.565,0.120,163.889,55.556,319.444,900.000,30.556,N
1731,-0.225,1.480,0.095,161.111,58.333,308.333,897.222,2.778,N
1732,-0.165,1.600,0.160,155.556,52.778,291.667,827.778,69.444,N
1733,-0.230,1.620,0.105,147.222,50.000,288.889,777.778,50.000,N
1734,-0.245,1.480,0.075,161.111,52.778,291.667,822.222,44.444,N
1735,-0.195,1.485,0.190,152.778,55.556,291.667,800.000,22.222,N
1736,-0.075,1.825,0.275,169.444,55.556,302.778,819.444,19.444,N
1737,-0.085,1.845,0.230,166.667,50.000,297.222,872.222,52.778,N
1738,-0.185,1.590,0.125,161.111,55.556,316.667,900.000,27.778,N
1739,-0.160,1.570,0.190,152.778,50.000,291.667,888.889,11.111,N
1740,-0.135,1.705,0.220,150.000,47.222,277.778,861.111,27.778,N
1741,-0.125,1.635,0.205,161.111,52.778,316.667,880.556,19.444,N
1742,-0.150,1.420,0.150,161.111,58.333,319.444,913.889,33.333,N
1743,-0.160,1.675,0.210,163.889,55.556,302.778,922.222,8.333,N
1744,-0.110,1.690,0.235,158.333,52.778,302.778,944.444,22.222,N
1745,-0.165,1.540,0.125,161.111,55.556,302.778,936.111,8.333,N
1746,-0.170,1.570,0.195,161.111,50.000,297.222,897.222,38.889,N
1747,-0.145,1.620,0.200,152.778,50.000,291.667,861.111,36.111,N
1748,-0.165,1.695,0.185,161.111,50.000,316.667,891.667,30.556,N
1749,-0.165,1.465,0.100,155.556,52.778,322.222,891.667,0.000,N
1750,-0.180,1.485,0.130,175.000,55.556,308.333,902.778,11.111,N
1751,-0.190,1.715,0.190,163.889,50.000,300.000,922.222,19.444,N
1752,-0.155,1.735,0.190,161.111,50.000,300.000,900.000,22.222,N
1753,-0.170,1.605,0.130,144.444,47.222,294.444,869.444,30.556,N
1754,-0.195,1.490,0.150,161.111,47.222,291.667,847.222,22.222,N
1755,-0.170,1.690,0.220,175.000,52.778,325.000,875.000,27.778,N
1756,-0.135,1.770,0.220,161.111,50.000,319.444,922.222,47.222,N
1757,-0.205,1.470,0.100,158.333,58.333,322.222,913.889,8.333,N
1758,-0.205,1.570,0.140,175.000,52.778,302.778,936.111,22.222,N
1759,-0.180,1.675,0.155,169.444,47.222,294.444,891.667,44.444,N
1760,-0.210,1.560,0.145,155.556,47.222,283.333,888.889,2.778,N
1761,-0.215,1.390,0.095,147.222,50.000,286.111,866.667,22.222,N
1762,-0.205,1.530,0.145,161.111,52.778,327.778,872.222,5.556,N
1763,-0.220,1.575,0.170,158.333,52.778,319.444,927.778,55.556,N
1764,-0.170,1.715,0.210,150.000,52.778,313.889,905.556,22.222,N
1765,-0.145,1.625,0.170,180.556,58.333,308.333,894.444,11.111,N
1766,-0.160,1.705,0.195,158.333,52.778,288.889,880.556,13.889,N
1767,-0.170,1.685,0.190,155.556,50.000,283.333,886.111,5.556,N
1768,-0.195,1.655,0.150,158.333,47.222,286.111,847.222,38.889,N
1769,-0.225,1.485,0.090,163.889,61.111,325.000,872.222,25.000,N
1770,-0.210,1.545,0.150,155.556,52.778,319.444,927.778,55.556,N
1771,-0.210,1.585,0.145,155.556,47.222,305.556,916.667,11.111,N
1772,-0.220,1.500,0.120,175.000,52.778,305.556,900.000,16.667,N
1773,-0.220,1.420,0.075,163.889,55.556,300.000,858.333,41.667,N
1774,-0.210,1.555,0.160,161.111,52.778,286.111,861.111,2.778,N
1775,-0.165,1.740,0.235,158.333,47.222,286.111,847.222,13.889,N
1776,-0.180,1.620,0.135,166.667,52.778,311.111,861.111,13.889,N
1777,-0.225,1.435,0.105,183.333,55.556,313.889,930.556,69.444,N
1778,-0.150,1.605,0.200,163.889,50.000,294.444,883.333,47.222,N
1779,-0.175,1.575,0.130,163.889,50.000,300.000,863.889,19.444,N
1780,-0.290,1.460,0.000,158.333,50.000,305.556,844.444,19.444,N
1781,-0.305,1.415,0.040,155.556,55.556,316.667,841.667,2.778,N
1782,-0.230,1.635,0.175,158.333,52.778,305.556,838.889,2.778,N
1783,-0.160,1.630,0.190,161.111,52.778,316.667,858.333,19.444,N
1784,-0.155,1.655,0.140,172.222,61.111,333.333,938.889,80.556,N
1785,-0.165,1.540,0.165,172.222,58.333,308.333,902.778,36.111,N
1786,-0.155,1.630,0.220,161.111,50.000,288.889,847.222,55.556,N
1787,-0.115,1.600,0.215,152.778,44.444,277.778,844.444,2.778,N
1788,-0.160,1.645,0.130,169.444,52.778,300.000,866.667,22.222,N
1789,-0.225,1.450,0.090,155.556,50.000,302.778,877.778,11.111,N
1790,-0.220,1.575,0.155,161.111,52.778,308.333,888.889,11.111,N
1791,-0.185,1.630,0.155,169.444,55.556,327.778,955.556,66.667,N
1792,-0.210,1.500,0.095,183.333,55.556,316.667,947.222,8.333,N
1793,-0.235,1.425,0.125,158.333,52.778,288.889,922.222,25.000,N
1794,-0.150,1.665,0.220,144.444,44.444,286.111,886.111,36.111,N
1795,-0.150,1.655,0.160,172.222,52.778,311.111,911.111,25.000,N
1796,-0.225,1.480,0.080,175.000,52.778,305.556,919.444,8.333,N
1797,-0.215,1.520,0.135,161.111,52.778,322.222,902.778,16.667,N
1798,-0.185,1.595,0.135,172.222,55.556,322.222,966.667,63.889,N
1799,-0.215,1.545,0.120,152.778,52.778,297.222,925.000,41.667,N
1800,-0.255,1.405,0.020,152.778,50.000,283.333,858.333,66.667,N
1801,-0.250,1.435,0.115,152.778,47.222,288.889,825.000,33.333,N
1802,-0.190,1.655,0.140,155.556,50.000,305.556,855.556,30.556,N
1803,-0.225,1.625,0.075,163.889,52.778,313.889,894.444,38.889,N
1804,-0.245,1.455,0.035,163.889,52.778,313.889,897.222,2.778,N
1805,-0.225,1.510,0.170,169.444,55.556,325.000,905.556,8.333,N
1806,-0.140,1.690,0.160,158.333,52.778,302.778,902.778,2.778,N
1807,-0.235,1.540,0.095,155.556,50.000,288.889,850.000,52.778,N
1808,-0.285,1.510,0.015,161.111,50.000,283.333,855.556,5.556,N
1809,-0.245,1.600,0.095,161.111,50.000,313.889,850.000,5.556,N
1810,-0.245,1.645,0.060,147.222,50.000,311.111,869.444,19.444,N
1811,-0.280,1.495,0.030,163.889,52.778,313.889,883.333,13.889,N
1812,-0.265,1.415,0.055,175.000,58.333,322.222,897.222,13.889,N
1813,-0.200,1.550,0.145,152.778,50.000,308.333,888.889,8.333,N
1814,-0.165,1.610,0.180,144.444,47.222,291.667,850.000,38.889,N
1815,-0.160,1.570,0.130,177.778,52.778,297.222,863.889,13.889,N
1816,-0.200,1.410,0.095,169.444,55.556,308.333,855.556,8.333,N
1817,-0.200,1.600,0.160,166.667,52.778,313.889,911.111,55.556,N
1818,-0.175,1.675,0.165,152.778,47.222,294.444,902.778,8.333,N
1819,-0.160,1.590,0.130,169.444,52.778,327.778,930.556,27.778,N
1820,-0.190,1.475,0.135,152.778,52.778,288.889,919.444,11.111,N
1821,-0.170,1.715,0.200,147.222,47.222,288.889,850.000,69.444,N
1822,-0.190,1.685,0.145,169.444,52.778,308.333,866.667,16.667,N
1823,-0.205,1.445,0.075,166.667,55.556,313.889,894.444,27.778,N
1824,-0.240,1.455,0.135,188.889,55.556,308.333,941.667,47.222,N
1825,-0.160,1.650,0.175,161.111,50.000,300.000,908.333,33.333,N
1826,-0.165,1.550,0.155,161.111,55.556,322.222,911.111,2.778,N
1827,-0.235,1.510,0.040,152.778,47.222,291.667,911.111,0.000,N
1828,-0.295,1.410,0.040,152.778,50.000,291.667,833.333,77.778,N
1829,-0.250,1.645,0.105,169.444,50.000,311.111,833.333,0.000,N
1830,-0.245,1.630,0.090,163.889,55.556,322.222,875.000,41.667,N
1831,-0.255,1.440,0.030,161.111,55.556,322.222,911.111,36.111,N
1832,-0.250,1.545,0.105,188.889,52.778,308.333,897.222,13.889,N
1833,-0.205,1.665,0.135,161.111,50.000,302.778,872.222,25.000,N
1834,-0.210,1.685,0.070,169.444,50.000,300.000,888.889,16.667,N
1835,-0.300,1.385,-0.040,150.000,50.000,291.667,852.778,36.111,N
1836,-0.335,1.360,0.005,163.889,50.000,297.222,827.778,25.000,N
1837,-0.265,1.560,0.070,155.556,50.000,313.889,841.667,13.889,N
1838,-0.215,1.595,0.085,180.556,52.778,336.111,891.667,50.000,N
1839,-0.245,1.425,0.045,155.556,55.556,311.111,891.667,0.000,N
1840,-0.255,1.530,0.055,158.333,52.778,297.222,841.667,50.000,N
1841,-0.285,1.670,0.080,158.333,55.556,311.111,844.444,2.778,N
1842,-0.230,1.655,0.090,158.333,50.000,288.889,816.667,27.778,N
1843,-0.220,1.490,0.030,161.111,52.778,302.778,819.444,2.778,N
1844,-0.260,1.470,0.060,155.556,52.778,308.333,861.111,41.667,N
1845,-0.230,1.610,0.100,163.889,50.000,313.889,894.444,33.333,N
1846,-0.210,1.550,0.090,177.778,50.000,302.778,911.111,16.667,N
1847,-0.265,1.460,-0.010,155.556,50.000,291.667,875.000,36.111,N
1848,-0.295,1.385,0.010,155.556,52.778,313.889,833.333,41.667,N
1849,-0.255,1.510,0.105,150.000,50.000,305.556,852.778,19.444,N
1850,-0.240,1.640,0.075,144.444,47.222,288.889,833.333,19.444,N
1851,-0.255,1.455,0.045,180.556,52.778,327.778,875.000,41.667,N
1852,-0.260,1.440,0.080,172.222,61.111,319.444,897.222,22.222,N
1853,-0.170,1.600,0.160,172.222,52.778,311.111,905.556,8.333,N
1854,-0.170,1.655,0.120,175.000,50.000,291.667,872.222,33.333,N
1855,-0.225,1.585,0.060,158.333,50.000,302.778,852.778,19.444,N
1856,-0.280,1.445,0.015,155.556,52.778,291.667,877.778,25.000,N
1857,-0.245,1.610,0.105,161.111,47.222,283.333,877.778,0.000,N
1858,-0.240,1.545,0.085,161.111,50.000,316.667,880.556,2.778,N
1859,-0.260,1.495,0.065,172.222,58.333,341.667,944.444,63.889,N
1860,-0.270,1.410,0.030,172.222,58.333,316.667,961.111,16.667,N
1861,-0.215,1.490,0.115,152.778,50.000,288.889,886.111,75.000,N
1862,-0.245,1.530,0.065,158.333,50.000,300.000,852.778,33.333,N
1863,-0.275,1.595,0.065,166.667,52.778,297.222,908.333,55.556,N
1864,-0.275,1.450,0.075,169.444,50.000,291.667,869.444,38.889,N
1865,-0.195,1.500,0.145,158.333,52.778,325.000,855.556,13.889,N
1866,-0.170,1.545,0.110,166.667,50.000,316.667,872.222,16.667,N
1867,-0.250,1.460,0.040,158.333,55.556,327.778,891.667,19.444,N
1868,-0.295,1.315,-0.020,169.444,50.000,294.444,863.889,27.778,N
1869,-0.235,1.535,0.120,152.778,47.222,291.667,813.889,50.000,N
1870,-0.165,1.545,0.140,166.667,52.778,316.667,863.889,50.000,N
1871,-0.210,1.615,0.115,163.889,55.556,316.667,880.556,16.667,N
1872,-0.220,1.505,0.110,175.000,52.778,300.000,883.333,2.778,N
1873,-0.160,1.475,0.185,166.667,50.000,294.444,905.556,22.222,N
1874,-0.150,1.650,0.175,166.667,50.000,311.111,897.222,8.333,N
1875,-0.215,1.605,0.125,158.333,47.222,297.222,877.778,19.444,N
1876,-0.235,1.500,0.090,147.222,47.222,283.333,836.111,41.667,N
1877,-0.225,1.500,0.095,158.333,55.556,308.333,858.333,22.222,N
1878,-0.225,1.585,0.100,163.889,52.778,316.667,877.778,19.444,N
1879,-0.245,1.595,0.080,166.667,52.778,311.111,902.778,25.000,N
1880,-0.260,1.495,0.080,175.000,55.556,302.778,927.778,25.000,N
1881,-0.210,1.560,0.165,169.444,52.778,308.333,925.000,2.778,N
1882,-0.200,1.585,0.150,155.556,50.000,288.889,900.000,25.000,N
1883,-0.225,1.590,0.080,155.556,47.222,288.889,869.444,30.556,N
1884,-0.235,1.485,0.105,166.667,55.556,311.111,894.444,25.000,N
1885,-0.125,1.595,0.200,161.111,50.000,316.667,911.111,16.667,N
1886,-0.155,1.605,0.125,163.889,58.333,319.444,916.667,5.556,N
1887,-0.225,1.520,0.060,186.111,55.556,300.000,922.222,5.556,N
1888,-0.265,1.375,0.070,172.222,50.000,308.333,883.333,38.889,N
1889,-0.165,1.575,0.140,147.222,44.444,294.444,877.778,5.556,N
1890,-0.200,1.570,0.100,141.667,47.222,286.111,841.667,36.111,N
1891,-0.210,1.535,0.080,177.778,52.778,319.444,872.222,30.556,N
1892,-0.240,1.510,0.085,163.889,52.778,316.667,919.444,47.222,N
1893,-0.185,1.705,0.150,150.000,52.778,311.111,888.889,30.556,N
1894,-0.205,1.675,0.115,169.444,58.333,308.333,905.556,16.667,N
1895,-0.235,1.575,0.090,169.444,52.778,294.444,894.444,11.111,N
