id,Pamp,Ramp,Tamp,PR,QRS,QT,RRI,dRRI,label
1,-0.020,1.535,0.355,150.000,66.667,366.667,886.111,2.778,R
2,-0.030,1.545,0.410,169.444,72.222,366.667,961.111,75.000,R
3,-0.020,1.570,0.380,144.444,66.667,350.000,891.667,69.444,R
4,-0.075,-0.015,-0.210,194.444,100.000,391.667,694.444,197.222,""""
5,0.105,1.845,0.165,150.000,72.222,372.222,1047.222,352.778,R
6,0.090,1.640,0.400,161.111,69.444,347.222,913.889,133.333,R
7,0.035,1.540,0.375,150.000,61.111,361.111,830.556,83.333,R
8,0.035,1.605,0.415,158.333,66.667,372.222,922.222,91.667,R
9,-0.005,1.575,0.420,141.667,69.444,358.333,927.778,5.556,R
10,0.050,1.525,0.360,155.556,66.667,366.667,844.444,83.333,R
11,0.025,1.560,0.410,147.222,69.444,372.222,911.111,66.667,R
12,0.005,1.545,0.355,155.556,72.222,372.222,927.778,16.667,R
13,-0.030,1.490,0.330,161.111,66.667,344.444,875.000,52.778,R
14,-0.095,1.460,0.310,163.889,69.444,372.222,952.778,77.778,R
15,-0.110,1.450,0.275,161.111,66.667,369.444,1005.556,52.778,R
16,-0.125,1.445,0.260,161.111,63.889,350.000,888.889,116.667,R
17,-0.120,1.510,0.285,147.222,69.444,369.444,986.111,97.222,R
18,-0.120,1.475,0.275,161.111,66.667,363.889,1066.667,80.556,R
19,-0.155,1.375,0.210,150.000,63.889,361.111,897.222,169.444,R
20,-0.150,1.455,0.295,158.333,72.222,372.222,994.444,97.222,R
21,-0.125,1.450,0.255,150.000,63.889,344.444,963.889,30.556,R
22,-0.155,1.330,0.170,147.222,66.667,372.222,863.889,100.000,R
23,-0.170,1.405,0.280,161.111,72.222,369.444,944.444,80.556,R
24,-0.145,1.430,0.270,150.000,63.889,355.556,944.444,0.000,R
25,-0.105,1.400,0.290,152.778,63.889,350.000,886.111,58.333,R
26,-0.090,1.470,0.355,163.889,69.444,372.222,1000.000,113.889,R
27,-0.060,1.525,0.355,150.000,66.667,350.000,988.889,11.111,R
28,-0.075,1.485,0.290,158.333,66.667,369.444,913.889,75.000,R
29,-0.105,1.525,0.360,163.889,66.667,352.778,988.889,75.000,R
30,-0.080,1.445,0.330,155.556,63.889,369.444,986.111,2.778,R
31,-0.100,1.390,0.135,147.222,66.667,369.444,919.444,66.667,R
32,-0.210,1.370,0.235,161.111,66.667,361.111,994.444,75.000,R
33,-0.185,1.385,0.225,138.889,63.889,355.556,930.556,63.889,R
34,-0.180,1.335,0.240,158.333,66.667,347.222,886.111,44.444,R
35,-0.175,1.450,0.275,158.333,66.667,369.444,980.556,94.444,R
36,-0.155,1.430,0.245,150.000,69.444,369.444,977.778,2.778,R
37,-0.175,1.415,0.185,155.556,66.667,358.333,888.889,88.889,R
38,-0.175,1.345,0.290,155.556,69.444,366.667,991.667,102.778,R
39,-0.165,1.410,0.170,141.667,66.667,369.444,919.444,72.222,R
40,-0.185,1.365,0.235,166.667,66.667,350.000,927.778,8.333,R
41,-0.155,1.450,0.260,155.556,69.444,372.222,952.778,25.000,R
42,-0.175,1.425,0.220,161.111,69.444,358.333,950.000,2.778,R
43,-0.200,1.345,0.160,158.333,66.667,366.667,888.889,61.111,R
44,-0.215,1.390,0.225,150.000,66.667,355.556,972.222,83.333,R
45,-0.190,1.360,0.185,144.444,66.667,369.444,941.667,30.556,R
46,-0.205,1.295,0.165,158.333,61.111,338.889,911.111,30.556,R
47,-0.225,1.375,0.230,147.222,69.444,372.222,961.111,50.000,R
48,-0.165,1.450,0.250,155.556,69.444,361.111,1019.444,58.333,R
49,-0.175,1.350,0.170,161.111,69.444,369.444,930.556,88.889,R
50,-0.160,1.455,0.275,152.778,69.444,372.222,983.333,52.778,R
51,-0.145,1.385,0.260,161.111,69.444,372.222,950.000,33.333,R
52,-0.170,1.370,0.230,144.444,63.889,366.667,894.444,55.556,R
53,-0.165,1.450,0.290,161.111,72.222,372.222,955.556,61.111,R
54,-0.115,1.470,0.275,155.556,69.444,369.444,944.444,11.111,R
55,-0.130,1.405,0.225,150.000,69.444,372.222,863.889,80.556,R
56,-0.140,1.510,0.315,144.444,66.667,358.333,986.111,122.222,R
57,-0.105,1.465,0.270,152.778,69.444,361.111,925.000,61.111,R
58,-0.130,1.400,0.185,150.000,61.111,347.222,888.889,36.111,R
59,-0.190,1.420,0.235,161.111,69.444,358.333,988.889,100.000,R
60,-0.190,1.460,0.275,152.778,66.667,352.778,938.889,50.000,R
61,-0.140,1.450,0.205,152.778,66.667,369.444,875.000,63.889,R
62,-0.145,1.455,0.330,150.000,66.667,369.444,966.667,91.667,R
63,-0.100,1.510,0.335,158.333,69.444,358.333,913.889,52.778,R
64,-0.045,1.530,0.305,150.000,63.889,350.000,883.333,30.556,R
65,-0.035,1.605,0.395,161.111,72.222,372.222,966.667,83.333,R
66,-0.025,1.590,0.345,152.778,66.667,350.000,966.667,0.000,R
67,-0.045,1.520,0.295,161.111,69.444,363.889,894.444,72.222,R
68,-0.040,1.530,0.370,150.000,63.889,369.444,975.000,80.556,R
69,-0.055,1.515,0.320,158.333,63.889,358.333,936.111,38.889,R
70,-0.050,1.500,0.295,147.222,63.889,352.778,891.667,44.444,R
71,-0.070,1.500,0.345,158.333,69.444,372.222,1011.111,119.444,R
72,0.010,1.595,0.330,152.778,69.444,355.556,975.000,36.111,R
73,-0.025,1.545,0.235,161.111,72.222,369.444,905.556,69.444,R
74,-0.080,1.545,0.300,152.778,69.444,369.444,1011.111,105.556,R
75,-0.070,1.515,0.350,155.556,63.889,355.556,963.889,47.222,R
76,-0.070,1.530,0.215,152.778,69.444,366.667,930.556,33.333,R
77,-0.070,1.460,0.320,166.667,72.222,355.556,969.444,38.889,R
78,-0.040,1.440,0.330,155.556,61.111,361.111,983.333,13.889,R
79,-0.055,1.515,0.275,161.111,72.222,372.222,975.000,8.333,R
80,-0.045,1.480,0.275,166.667,69.444,358.333,911.111,63.889,R
81,-0.080,1.500,0.345,147.222,66.667,369.444,919.444,8.333,R
82,-0.100,1.490,0.240,155.556,69.444,361.111,977.778,58.333,R
83,-0.130,1.390,0.195,158.333,69.444,350.000,919.444,58.333,R
84,-0.125,1.440,0.290,147.222,66.667,347.222,961.111,41.667,R
85,-0.130,1.485,0.280,163.889,72.222,369.444,997.222,36.111,R
86,-0.145,1.410,0.215,158.333,66.667,352.778,925.000,72.222,R
87,-0.135,1.500,0.310,152.778,72.222,372.222,983.333,58.333,R
88,-0.100,1.495,0.260,172.222,69.444,372.222,991.667,8.333,R
89,-0.085,1.455,0.225,144.444,63.889,366.667,938.889,52.778,R
90,-0.090,1.435,0.310,155.556,66.667,369.444,972.222,33.333,R
91,-0.085,1.505,0.310,152.778,66.667,369.444,1019.444,47.222,R
92,-0.065,1.470,0.215,150.000,63.889,352.778,908.333,111.111,R
93,-0.075,1.440,0.300,161.111,69.444,361.111,947.222,38.889,R
94,-0.105,1.440,0.265,150.000,63.889,366.667,955.556,8.333,R
95,-0.095,1.405,0.190,147.222,66.667,366.667,897.222,58.333,R
96,-0.145,1.425,0.245,155.556,66.667,366.667,916.667,19.444,R
97,-0.155,1.370,0.235,152.778,66.667,363.889,986.111,69.444,R
98,-0.160,1.320,0.165,147.222,63.889,361.111,872.222,113.889,R
99,-0.285,-0.220,-0.405,172.222,102.778,383.333,691.667,180.556,""""
100,-0.100,1.565,0.015,155.556,83.333,372.222,1047.222,355.556,N
101,-0.155,1.385,0.165,150.000,66.667,358.333,900.000,147.222,R
102,-0.325,-0.245,-0.450,169.444,102.778,388.889,677.778,222.222,""""
103,-0.145,1.535,-0.130,155.556,72.222,372.222,1019.444,341.667,N
104,-0.265,-0.255,-0.395,186.111,91.667,302.778,738.889,280.556,""""
105,-0.125,1.510,-0.080,147.222,41.667,369.444,986.111,247.222,N
106,-0.240,-0.245,-0.330,177.778,88.889,400.000,738.889,247.222,""""
107,-0.035,1.765,0.010,158.333,77.778,372.222,1016.667,277.778,N
108,-0.165,-0.095,-0.280,188.889,116.667,397.222,694.444,322.222,""""
109,-0.035,1.655,-0.065,144.444,66.667,369.444,983.333,288.889,N
110,-0.185,-0.140,-0.290,155.556,105.556,397.222,747.222,236.111,""""
111,0.030,1.835,0.150,138.889,41.667,369.444,952.778,205.556,N
112,-0.145,-0.085,-0.220,58.333,97.222,150.000,672.222,280.556,""""
113,0.025,1.755,0.070,152.778,80.556,361.111,988.889,316.667,N
114,-0.100,-0.115,-0.185,61.111,102.778,388.889,736.111,252.778,""""
115,0.055,1.695,0.180,136.111,38.889,366.667,958.333,222.222,N
116,-0.095,-0.035,-0.235,111.111,111.111,116.667,680.556,277.778,""""
117,0.045,1.710,0.130,155.556,83.333,366.667,983.333,302.778,N
118,-0.090,-0.040,-0.160,105.556,116.667,116.667,647.222,336.111,""""
119,0.085,1.660,0.090,144.444,38.889,369.444,1005.556,358.333,N
120,-0.115,-0.035,-0.245,100.000,102.778,116.667,691.667,313.889,""""
121,0.040,1.780,0.155,147.222,69.444,372.222,977.778,286.111,N
122,-0.095,-0.020,-0.225,191.667,97.222,352.778,644.444,333.333,""""
123,-0.015,1.625,0.020,155.556,69.444,372.222,991.667,347.222,N
124,-0.185,-0.075,-0.315,58.333,113.889,391.667,677.778,313.889,""""
125,-0.060,1.515,0.225,138.889,63.889,363.889,913.889,236.111,R
126,0.075,-0.110,-0.345,197.222,97.222,111.111,619.444,294.444,""""
127,-0.160,1.390,0.145,155.556,69.444,372.222,955.556,336.111,R
128,-0.260,-0.185,-0.405,197.222,108.333,116.667,655.556,300.000,""""
129,-0.145,1.480,0.190,141.667,69.444,369.444,925.000,269.444,R
130,-0.175,-0.130,-0.390,197.222,113.889,116.667,666.667,258.333,""""
131,-0.140,1.530,0.265,150.000,63.889,358.333,944.444,277.778,R
132,-0.230,-0.085,-0.325,100.000,100.000,352.778,666.667,277.778,""""
133,-0.040,1.565,0.155,147.222,72.222,372.222,969.444,302.778,R
134,-0.170,-0.105,-0.315,197.222,111.111,111.111,669.444,300.000,""""
135,-0.060,1.585,0.310,155.556,69.444,369.444,961.111,291.667,R
136,-0.060,0.005,-0.245,197.222,100.000,111.111,636.111,325.000,""""
137,-0.015,1.560,0.285,155.556,66.667,369.444,972.222,336.111,R
138,-0.070,-0.015,-0.295,197.222,102.778,119.444,650.000,322.222,""""
139,0.000,1.640,0.315,144.444,69.444,369.444,916.667,266.667,R
140,-0.030,-0.075,-0.260,197.222,100.000,119.444,650.000,266.667,""""
141,-0.020,1.565,0.310,141.667,61.111,361.111,908.333,258.333,R
142,-0.160,-0.100,-0.290,116.667,97.222,105.556,647.222,261.111,""""
143,-0.070,1.385,0.165,155.556,75.000,372.222,966.667,319.444,R
144,-0.200,-0.110,-0.320,58.333,100.000,383.333,722.222,244.444,""""
145,-0.055,1.545,0.245,144.444,63.889,369.444,975.000,252.778,R
146,-0.185,-0.105,-0.325,197.222,94.444,108.333,666.667,308.333,""""
147,-0.065,1.475,0.215,150.000,69.444,369.444,969.444,302.778,R
148,0.020,-0.095,-0.310,197.222,111.111,111.111,655.556,313.889,""""
149,-0.160,1.420,0.165,144.444,63.889,369.444,972.222,316.667,R
150,-0.165,-0.295,-0.405,27.778,50.000,305.556,686.111,286.111,""""
151,-0.165,1.470,0.075,150.000,66.667,369.444,975.000,288.889,R
152,-0.280,-0.215,-0.440,125.000,102.778,388.889,691.667,283.333,""""
153,-0.155,1.525,0.145,161.111,72.222,372.222,947.222,255.556,R
154,-0.255,-0.185,-0.380,186.111,97.222,108.333,677.778,269.444,""""
155,-0.145,1.460,0.170,152.778,63.889,366.667,983.333,305.556,R
156,-0.185,-0.200,-0.360,194.444,100.000,383.333,658.333,325.000,""""
157,-0.115,1.510,0.090,155.556,72.222,372.222,977.778,319.444,R
158,-0.055,-0.130,-0.360,197.222,105.556,111.111,675.000,302.778,""""
159,-0.145,1.420,0.150,150.000,69.444,372.222,947.222,272.222,R
160,0.295,-0.145,-0.205,91.667,61.111,80.556,477.778,469.444,x
161,-0.205,1.500,0.195,150.000,66.667,369.444,786.111,308.333,A
162,-0.180,1.435,0.220,150.000,66.667,369.444,1102.778,316.667,R
163,0.285,-0.150,2.050,122.222,27.778,177.778,502.778,600.000,x
164,-0.120,2.050,0.800,194.444,108.333,108.333,175.000,327.778,V
165,-0.730,1.695,-0.170,58.333,116.667,402.778,425.000,250.000,V
166,-0.140,1.450,0.325,141.667,66.667,369.444,1077.778,652.778,R
167,-0.165,1.390,0.065,144.444,63.889,369.444,913.889,163.889,R
168,-0.190,1.450,0.195,158.333,69.444,372.222,922.222,8.333,R
169,-0.145,1.440,0.165,150.000,66.667,369.444,916.667,5.556,R
170,-0.170,1.400,0.135,141.667,66.667,369.444,886.111,30.556,R
171,-0.175,1.420,0.125,152.778,66.667,369.444,933.333,47.222,R
172,-0.140,1.375,0.205,152.778,69.444,372.222,1008.333,75.000,R
173,-0.170,1.365,0.165,155.556,66.667,369.444,913.889,94.444,R
174,-0.140,1.480,0.215,158.333,69.444,372.222,1002.778,88.889,R
175,-0.145,1.405,0.115,152.778,69.444,372.222,1013.889,11.111,R
176,-0.170,1.380,0.105,161.111,69.444,369.444,966.667,47.222,R
177,-0.160,1.465,0.080,169.444,72.222,372.222,1044.444,77.778,R
178,-0.150,1.420,0.185,155.556,72.222,372.222,1011.111,33.333,R
179,-0.120,1.470,0.175,155.556,66.667,369.444,916.667,94.444,R
180,-0.085,1.570,0.235,147.222,66.667,366.667,950.000,33.333,R
181,0.000,1.525,0.300,158.333,66.667,369.444,922.222,27.778,R
182,-0.010,1.590,0.345,158.333,63.889,363.889,913.889,8.333,R
183,-0.045,1.555,0.285,158.333,72.222,372.222,947.222,33.333,R
184,-0.015,1.540,0.340,152.778,69.444,369.444,980.556,33.333,R
185,-0.020,1.525,0.340,150.000,66.667,369.444,930.556,50.000,R
186,-0.005,1.630,0.335,161.111,69.444,366.667,1008.333,77.778,R
187,0.000,1.615,0.375,163.889,66.667,369.444,1033.333,25.000,R
188,-0.050,1.545,0.300,147.222,66.667,369.444,947.222,86.111,R
189,-0.020,1.535,0.290,161.111,69.444,369.444,1050.000,102.778,R
190,-0.065,1.520,0.305,147.222,63.889,366.667,1033.333,16.667,R
191,-0.115,1.425,0.250,161.111,66.667,372.222,994.444,38.889,R
192,-0.120,1.500,0.160,158.333,69.444,366.667,1044.444,50.000,R
193,-0.125,1.475,0.230,158.333,66.667,369.444,1044.444,0.000,R
194,-0.120,1.450,0.155,161.111,72.222,372.222,952.778,91.667,R
195,-0.145,1.465,0.175,152.778,66.667,369.444,1016.667,63.889,R
196,-0.130,1.480,0.235,152.778,63.889,366.667,950.000,66.667,R
197,-0.135,1.375,0.125,155.556,66.667,369.444,944.444,5.556,R
198,-0.145,1.505,0.215,158.333,66.667,369.444,1063.889,119.444,R
199,-0.175,1.435,0.165,155.556,63.889,366.667,963.889,100.000,R
200,-0.165,1.435,0.130,166.667,72.222,366.667,972.222,8.333,R
201,-0.145,1.460,0.215,155.556,66.667,366.667,986.111,13.889,R
202,-0.150,1.445,0.190,155.556,69.444,372.222,938.889,47.222,R
203,-0.115,1.465,0.220,158.333,66.667,369.444,936.111,2.778,R
204,-0.110,1.510,0.245,150.000,66.667,369.444,1016.667,80.556,R
205,-0.135,1.485,0.180,147.222,66.667,361.111,988.889,27.778,R
206,-0.105,1.510,0.250,161.111,63.889,361.111,1033.333,44.444,R
207,-0.080,1.610,0.290,155.556,69.444,369.444,1038.889,5.556,R
208,-0.025,1.530,0.180,144.444,61.111,366.667,969.444,69.444,R
209,-0.075,1.530,0.230,161.111,69.444,366.667,958.333,11.111,R
210,-0.095,1.565,0.305,150.000,63.889,369.444,975.000,16.667,R
211,-0.075,1.480,0.165,152.778,66.667,369.444,947.222,27.778,R
212,-0.125,1.495,0.235,152.778,69.444,369.444,969.444,22.222,R
213,-0.100,1.505,0.255,150.000,66.667,369.444,969.444,0.000,R
214,-0.140,1.455,0.145,161.111,72.222,369.444,975.000,5.556,R
215,-0.160,1.480,0.190,158.333,66.667,358.333,972.222,2.778,R
216,-0.125,1.505,0.225,144.444,63.889,369.444,972.222,0.000,R
217,-0.120,1.515,0.210,158.333,72.222,372.222,1002.778,30.556,R
218,-0.100,1.450,0.230,158.333,66.667,366.667,947.222,55.556,R
219,-0.085,1.545,0.215,161.111,69.444,369.444,975.000,27.778,R
220,-0.090,1.510,0.145,155.556,63.889,363.889,991.667,16.667,R
221,-0.115,1.445,0.165,158.333,69.444,366.667,941.667,50.000,R
222,-0.110,1.215,0.240,158.333,72.222,372.222,972.222,30.556,R
223,-0.090,0.870,0.240,152.778,69.444,366.667,1000.000,27.778,R
224,-0.115,0.620,0.220,144.444,75.000,380.556,916.667,83.333,R
225,-0.110,0.605,0.230,152.778,91.667,383.333,1011.111,94.444,R
226,-0.135,0.575,0.135,158.333,102.778,400.000,972.222,38.889,R
227,-0.145,0.710,0.165,150.000,69.444,375.000,944.444,27.778,R
228,-0.110,0.675,0.225,161.111,75.000,375.000,986.111,41.667,R
229,-0.055,1.430,0.265,150.000,66.667,369.444,1016.667,30.556,R
230,-0.060,1.515,0.275,161.111,69.444,366.667,930.556,86.111,R
231,-0.035,1.525,0.290,147.222,63.889,369.444,997.222,66.667,R
232,-0.060,1.480,0.305,155.556,69.444,372.222,1008.333,11.111,R
233,-0.055,1.440,0.255,152.778,66.667,369.444,941.667,66.667,R
234,-0.085,1.430,0.240,158.333,72.222,369.444,997.222,55.556,R
235,-0.100,1.480,0.265,158.333,69.444,372.222,994.444,2.778,R
236,-0.095,1.370,0.230,150.000,66.667,369.444,905.556,88.889,R
237,-0.090,1.465,0.200,161.111,69.444,369.444,952.778,47.222,R
238,-0.070,1.445,0.235,166.667,63.889,366.667,966.667,13.889,R
239,-0.110,1.390,0.215,155.556,66.667,369.444,880.556,86.111,R
240,-0.100,1.405,0.210,163.889,69.444,369.444,944.444,63.889,R
241,-0.120,1.445,0.255,158.333,66.667,361.111,963.889,19.444,R
242,-0.105,1.390,0.180,150.000,63.889,369.444,861.111,102.778,R
243,-0.135,1.400,0.205,161.111,69.444,358.333,913.889,52.778,R
244,-0.145,1.395,0.265,158.333,66.667,366.667,986.111,72.222,R
245,-0.150,1.340,0.170,138.889,66.667,350.000,883.333,102.778,R
246,-0.165,1.325,0.195,161.111,69.444,372.222,922.222,38.889,R
247,-0.140,1.365,0.230,161.111,69.444,366.667,1002.778,80.556,R
248,-0.105,1.330,0.165,147.222,63.889,363.889,927.778,75.000,R
249,-0.145,1.300,0.175,166.667,69.444,369.444,886.111,41.667,R
250,-0.140,1.335,0.215,163.889,72.222,363.889,986.111,100.000,R
251,-0.150,1.320,0.175,150.000,61.111,366.667,919.444,66.667,R
252,-0.145,1.300,0.135,158.333,69.444,366.667,877.778,41.667,R
253,-0.130,1.300,0.240,161.111,69.444,369.444,972.222,94.444,R
254,-0.125,1.280,0.175,150.000,61.111,363.889,927.778,44.444,R
255,-0.115,1.345,0.145,152.778,69.444,369.444,858.333,69.444,R
256,-0.135,1.320,0.230,155.556,72.222,369.444,975.000,116.667,R
257,-0.130,1.325,0.175,147.222,66.667,358.333,919.444,55.556,R
258,-0.145,1.265,0.100,166.667,69.444,369.444,863.889,55.556,R
259,-0.165,1.230,0.200,158.333,66.667,366.667,919.444,55.556,R
260,-0.175,1.265,0.200,152.778,66.667,350.000,908.333,11.111,R
261,-0.165,1.225,0.125,150.000,63.889,369.444,855.556,52.778,R
262,-0.225,1.180,0.170,166.667,69.444,369.444,927.778,72.222,R
263,-0.220,1.230,0.155,161.111,63.889,358.333,961.111,33.333,R
264,-0.200,1.165,0.055,163.889,72.222,369.444,902.778,58.333,R
265,-0.220,1.235,0.175,161.111,69.444,361.111,950.000,47.222,R
266,-0.200,1.290,0.190,155.556,66.667,366.667,1033.333,83.333,R
267,-0.190,1.255,0.120,161.111,69.444,369.444,975.000,58.333,R
268,-0.145,1.270,0.200,172.222,66.667,347.222,944.444,30.556,R
269,-0.130,1.300,0.240,147.222,66.667,352.778,991.667,47.222,R
270,-0.125,1.295,0.175,163.889,69.444,369.444,947.222,44.444,R
271,-0.115,1.300,0.190,161.111,69.444,355.556,919.444,27.778,R
272,-0.150,1.275,0.210,152.778,69.444,369.444,952.778,33.333,R
273,-0.135,1.275,0.180,166.667,69.444,369.444,922.222,30.556,R
274,-0.145,1.250,0.175,161.111,66.667,352.778,900.000,22.222,R
275,-0.135,1.270,0.230,150.000,66.667,366.667,947.222,47.222,R
276,-0.115,1.305,0.225,166.667,69.444,366.667,1008.333,61.111,R
277,-0.130,1.250,0.175,161.111,66.667,350.000,908.333,100.000,R
278,-0.140,1.260,0.210,161.111,69.444,372.222,955.556,47.222,R
279,-0.130,1.285,0.180,155.556,66.667,363.889,997.222,41.667,R
280,-0.175,1.240,0.115,155.556,63.889,358.333,977.778,19.444,R
281,-0.200,1.255,0.195,147.222,69.444,372.222,944.444,33.333,R
282,-0.170,1.270,0.195,150.000,63.889,352.778,1000.000,55.556,R
283,-0.180,1.145,0.080,136.111,63.889,366.667,900.000,100.000,R
284,-0.200,1.125,0.130,163.889,69.444,352.778,916.667,16.667,R
285,-0.205,1.180,0.165,150.000,69.444,372.222,958.333,41.667,R
286,-0.185,1.240,0.085,161.111,69.444,358.333,947.222,11.111,R
287,-0.225,1.180,0.145,152.778,66.667,366.667,886.111,61.111,R
288,-0.205,1.220,0.150,152.778,63.889,369.444,997.222,111.111,R
289,-0.200,1.190,0.050,141.667,66.667,358.333,891.667,105.556,R
290,-0.160,1.195,0.170,161.111,66.667,358.333,925.000,33.333,R
291,-0.135,1.230,0.180,158.333,72.222,372.222,961.111,36.111,R
292,-0.110,1.275,0.200,155.556,66.667,363.889,963.889,2.778,R
293,-0.100,1.275,0.200,155.556,72.222,369.444,900.000,63.889,R
294,-0.090,1.325,0.265,155.556,66.667,366.667,1000.000,100.000,R
295,-0.090,1.400,0.255,150.000,66.667,350.000,955.556,44.444,R
296,-0.025,1.325,0.255,152.778,63.889,361.111,880.556,75.000,R
297,-0.050,1.300,0.275,163.889,69.444,372.222,958.333,77.778,R
298,-0.045,1.330,0.280,155.556,69.444,363.889,961.111,2.778,R
299,-0.035,1.315,0.215,155.556,69.444,369.444,911.111,50.000,R
300,-0.060,1.325,0.255,147.222,66.667,369.444,927.778,16.667,R
301,-0.100,1.355,0.255,158.333,66.667,358.333,983.333,55.556,R
302,-0.075,1.315,0.180,150.000,63.889,369.444,886.111,97.222,R
303,-0.070,1.315,0.265,166.667,69.444,366.667,947.222,61.111,R
304,-0.075,1.360,0.280,161.111,69.444,358.333,938.889,8.333,R
305,-0.090,1.350,0.200,161.111,69.444,358.333,869.444,69.444,R
306,-0.130,1.385,0.240,152.778,66.667,355.556,1000.000,130.556,R
307,-0.100,1.305,0.240,155.556,63.889,369.444,977.778,22.222,R
308,-0.090,1.265,0.190,147.222,63.889,369.444,897.222,80.556,R
309,-0.075,1.380,0.280,166.667,69.444,361.111,983.333,86.111,R
310,-0.090,1.390,0.280,147.222,63.889,344.444,952.778,30.556,R
311,-0.040,1.415,0.195,166.667,72.222,363.889,891.667,61.111,R
312,-0.050,1.455,0.320,158.333,69.444,363.889,966.667,75.000,R
313,-0.020,1.460,0.320,152.778,66.667,361.111,925.000,41.667,R
314,0.000,1.380,0.280,155.556,66.667,366.667,891.667,33.333,R
315,0.000,1.445,0.360,163.889,69.444,372.222,1002.778,111.111,R
316,0.025,1.480,0.375,152.778,66.667,355.556,950.000,52.778,R
317,0.035,1.400,0.295,169.444,66.667,372.222,913.889,36.111,R
318,0.010,1.475,0.360,158.333,66.667,366.667,1000.000,86.111,R
319,0.025,1.485,0.320,138.889,63.889,366.667,961.111,38.889,R
320,0.045,1.450,0.315,161.111,66.667,355.556,919.444,41.667,R
321,0.005,1.445,0.310,147.222,63.889,369.444,1013.889,94.444,R
322,-0.030,1.420,0.275,152.778,66.667,363.889,952.778,61.111,R
323,-0.075,1.370,0.215,166.667,72.222,366.667,933.333,19.444,R
324,-0.040,1.410,0.295,152.778,63.889,341.667,988.889,55.556,R
325,-0.035,1.415,0.255,155.556,69.444,369.444,950.000,38.889,R
326,-0.080,1.360,0.210,161.111,66.667,366.667,911.111,38.889,R
327,-0.110,1.365,0.290,141.667,66.667,366.667,972.222,61.111,R
328,-0.070,1.390,0.270,150.000,66.667,363.889,930.556,41.667,R
329,-0.045,1.405,0.210,175.000,72.222,355.556,925.000,5.556,R
330,-0.065,1.440,0.315,155.556,66.667,333.333,955.556,30.556,R
331,-0.045,1.475,0.350,158.333,72.222,355.556,938.889,16.667,R
332,-0.015,1.375,0.230,166.667,69.444,366.667,922.222,16.667,R
333,-0.075,1.315,0.320,152.778,61.111,361.111,972.222,50.000,R
334,-0.050,1.405,0.335,152.778,66.667,363.889,997.222,25.000,R
335,-0.050,1.420,0.310,161.111,69.444,361.111,1011.111,13.889,R
336,-0.030,1.440,0.300,147.222,63.889,350.000,902.778,108.333,R
337,0.000,1.435,0.380,163.889,69.444,355.556,966.667,63.889,R
338,0.000,1.445,0.265,144.444,66.667,366.667,975.000,8.333,R
339,-0.005,1.425,0.300,158.333,69.444,369.444,913.889,61.111,R
340,-0.020,1.415,0.350,158.333,72.222,366.667,963.889,50.000,R
341,-0.015,1.470,0.310,155.556,63.889,366.667,977.778,13.889,R
342,-0.005,1.350,0.280,144.444,63.889,366.667,886.111,91.667,R
343,-0.050,1.425,0.315,163.889,66.667,358.333,975.000,88.889,R
344,-0.035,1.415,0.270,158.333,69.444,366.667,963.889,11.111,R
345,-0.030,1.360,0.250,152.778,69.444,363.889,894.444,69.444,R
346,-0.070,1.450,0.315,155.556,66.667,350.000,925.000,30.556,R
347,-0.030,1.345,0.275,150.000,63.889,369.444,952.778,27.778,R
348,-0.050,1.250,0.215,150.000,63.889,350.000,850.000,102.778,R
349,-0.095,1.320,0.340,155.556,69.444,352.778,933.333,83.333,R
350,-0.035,1.270,0.255,155.556,66.667,358.333,919.444,13.889,R
351,-0.050,1.320,0.205,150.000,66.667,369.444,883.333,36.111,R
352,-0.085,1.370,0.250,155.556,69.444,366.667,955.556,72.222,R
353,-0.060,1.460,0.220,155.556,66.667,366.667,1027.778,72.222,R
354,-0.080,1.435,0.225,144.444,66.667,363.889,861.111,166.667,R
355,-0.085,1.425,0.285,158.333,63.889,363.889,966.667,105.556,R
356,-0.080,1.390,0.185,158.333,69.444,369.444,919.444,47.222,R
357,-0.180,-0.120,-0.310,197.222,94.444,344.444,727.778,191.667,""""
358,-0.025,1.585,0.040,155.556,80.556,369.444,1022.222,294.444,N
359,-0.035,1.405,0.210,158.333,66.667,338.889,927.778,94.444,R
360,-0.180,-0.110,-0.295,175.000,97.222,377.778,688.889,238.889,""""
361,-0.080,1.500,-0.005,155.556,66.667,369.444,1000.000,311.111,N
362,-0.165,-0.110,-0.275,197.222,113.889,400.000,722.222,277.778,""""
363,-0.065,1.485,-0.025,141.667,38.889,369.444,1027.778,305.556,N
364,-0.175,-0.145,-0.305,186.111,113.889,400.000,727.778,300.000,""""
365,-0.055,1.610,-0.020,152.778,44.444,372.222,1033.333,305.556,N
366,-0.185,-0.070,-0.280,166.667,108.333,111.111,691.667,341.667,""""
367,-0.005,1.615,-0.035,147.222,66.667,363.889,994.444,302.778,N
368,-0.165,-0.065,-0.240,177.778,105.556,358.333,725.000,269.444,""""
369,-0.020,1.385,-0.005,150.000,44.444,369.444,1022.222,297.222,N
370,-0.195,-0.190,-0.280,144.444,113.889,372.222,700.000,322.222,""""
371,-0.060,1.395,0.165,152.778,69.444,372.222,936.111,236.111,R
372,-0.180,-0.160,-0.305,113.889,113.889,188.889,727.778,208.333,""""
373,-0.050,1.455,0.215,138.889,63.889,369.444,925.000,197.222,R
374,-0.075,-0.255,-0.330,36.111,41.667,347.222,683.333,241.667,""""
375,-0.065,1.520,0.220,155.556,69.444,366.667,938.889,255.556,R
376,-0.155,-0.095,-0.260,100.000,105.556,108.333,672.222,266.667,""""
377,-0.015,1.505,0.200,141.667,66.667,366.667,977.778,305.556,R
378,-0.180,-0.155,-0.320,50.000,102.778,383.333,688.889,288.889,""""
379,-0.055,1.520,0.230,147.222,72.222,366.667,958.333,269.444,R
380,-0.130,-0.065,-0.270,197.222,111.111,130.556,666.667,291.667,""""
381,-0.030,1.435,0.205,152.778,66.667,372.222,966.667,300.000,R
382,-0.190,-0.170,-0.310,88.889,94.444,94.444,666.667,300.000,""""
383,-0.030,1.555,0.280,144.444,66.667,366.667,994.444,327.778,R
384,-0.145,-0.120,-0.275,197.222,116.667,241.667,669.444,325.000,""""
385,-0.050,1.425,0.145,155.556,69.444,372.222,972.222,302.778,R
386,-0.205,-0.095,-0.300,108.333,105.556,113.889,686.111,286.111,""""
387,-0.055,1.490,0.285,144.444,66.667,369.444,972.222,286.111,R
388,-0.135,-0.125,-0.275,58.333,88.889,102.778,666.667,305.556,""""
389,-0.060,1.475,0.195,150.000,69.444,369.444,944.444,277.778,R
390,-0.165,-0.110,-0.290,161.111,102.778,116.667,708.333,236.111,""""
391,-0.020,1.540,0.205,147.222,72.222,372.222,950.000,241.667,R
392,-0.145,-0.105,-0.285,63.889,105.556,386.111,722.222,227.778,""""
393,-0.010,1.610,0.270,144.444,66.667,366.667,966.667,244.444,R
394,-0.120,-0.115,-0.235,136.111,108.333,358.333,697.222,269.444,""""
395,-0.005,1.465,0.190,155.556,66.667,363.889,966.667,269.444,R
396,-0.135,-0.045,-0.280,125.000,113.889,113.889,691.667,275.000,""""
397,-0.025,1.580,0.295,147.222,66.667,369.444,952.778,261.111,R
398,0.055,-0.020,-0.250,197.222,108.333,113.889,627.778,325.000,""""
399,-0.045,1.525,0.250,152.778,66.667,372.222,994.444,366.667,R
400,-0.140,-0.060,-0.240,88.889,116.667,400.000,691.667,302.778,""""
401,0.015,1.580,0.330,158.333,69.444,372.222,938.889,247.222,R
402,0.000,-0.020,-0.225,197.222,97.222,105.556,647.222,291.667,""""
403,-0.020,1.515,0.260,147.222,66.667,369.444,1002.778,355.556,R
404,-0.160,-0.045,-0.260,133.333,105.556,352.778,694.444,308.333,""""
405,-0.005,1.530,0.060,150.000,41.667,369.444,1005.556,311.111,N
406,-0.110,-0.040,-0.260,186.111,116.667,116.667,708.333,297.222,""""
407,0.030,1.700,0.090,152.778,83.333,372.222,1008.333,300.000,N
408,-0.145,-0.085,-0.255,144.444,116.667,327.778,722.222,286.111,""""
409,0.015,1.625,-0.015,150.000,69.444,372.222,1033.333,311.111,N
410,-0.150,-0.115,-0.260,186.111,94.444,375.000,741.667,291.667,""""
411,0.010,1.605,0.035,152.778,83.333,372.222,1002.778,261.111,N
412,-0.185,-0.100,-0.305,97.222,105.556,183.333,711.111,291.667,""""
413,-0.040,1.560,0.050,150.000,77.778,369.444,977.778,266.667,N
414,-0.170,-0.130,-0.290,172.222,108.333,316.667,691.667,286.111,""""
415,-0.010,1.525,0.030,150.000,41.667,369.444,955.556,263.889,N
416,-0.140,-0.080,-0.285,197.222,102.778,105.556,686.111,269.444,""""
417,-0.030,1.595,0.320,150.000,69.444,366.667,955.556,269.444,R
418,0.120,-0.030,-0.265,197.222,108.333,125.000,633.333,322.222,""""
419,-0.035,1.520,0.215,138.889,63.889,369.444,972.222,338.889,R
420,-0.130,-0.120,-0.275,194.444,105.556,352.778,697.222,275.000,""""
421,-0.015,1.490,0.240,147.222,69.444,358.333,936.111,238.889,R
422,-0.020,-0.110,-0.255,27.778,47.222,94.444,672.222,263.889,""""
423,-0.015,1.530,0.215,158.333,69.444,372.222,963.889,291.667,R
424,-0.110,-0.090,-0.260,194.444,108.333,394.444,691.667,272.222,""""
425,-0.005,1.565,0.150,150.000,72.222,372.222,950.000,258.333,R
426,-0.060,-0.035,-0.245,197.222,113.889,400.000,708.333,241.667,""""
427,0.050,1.645,0.335,141.667,66.667,369.444,952.778,244.444,R
428,0.065,0.010,-0.155,197.222,111.111,388.889,666.667,286.111,""""
429,0.075,1.590,0.280,141.667,66.667,369.444,963.889,297.222,R
430,0.005,0.015,-0.190,197.222,97.222,100.000,702.778,261.111,""""
431,0.065,1.690,0.325,141.667,66.667,369.444,925.000,222.222,R
432,0.105,-0.090,-0.165,36.111,38.889,50.000,683.333,241.667,""""
433,0.095,1.635,0.360,147.222,69.444,372.222,925.000,241.667,R
434,0.225,0.040,-0.120,197.222,108.333,325.000,655.556,269.444,""""
435,0.130,1.650,0.500,147.222,63.889,369.444,938.889,283.333,R
436,0.490,0.155,-0.100,197.222,113.889,116.667,636.111,302.778,""""
437,0.145,1.705,0.425,147.222,63.889,369.444,925.000,288.889,R
438,0.430,0.165,-0.080,197.222,97.222,211.111,638.889,286.111,""""
439,0.180,1.715,0.365,152.778,66.667,372.222,952.778,313.889,R
440,0.225,0.150,-0.075,197.222,102.778,111.111,688.889,263.889,""""
441,0.170,1.790,0.425,150.000,66.667,369.444,955.556,266.667,R
442,0.145,0.105,-0.065,186.111,113.889,375.000,686.111,269.444,""""
443,0.190,1.690,0.315,150.000,69.444,372.222,938.889,252.778,R
444,0.140,0.070,-0.100,191.667,113.889,397.222,705.556,233.333,""""
445,0.175,1.825,0.455,147.222,66.667,369.444,936.111,230.556,R
446,0.240,0.150,-0.060,197.222,102.778,108.333,680.556,255.556,""""
447,0.165,1.755,0.335,152.778,63.889,372.222,988.889,308.333,N
448,0.120,0.110,-0.110,197.222,113.889,113.889,655.556,333.333,""""
449,0.140,1.815,0.195,141.667,41.667,369.444,969.444,313.889,N
450,0.475,0.095,-0.065,197.222,102.778,102.778,644.444,325.000,""""
451,0.155,1.820,0.280,150.000,83.333,372.222,991.667,347.222,N
452,0.080,0.085,-0.095,180.556,97.222,105.556,691.667,300.000,""""
453,0.170,1.825,0.275,141.667,41.667,369.444,1027.778,336.111,N
454,0.190,0.100,-0.130,197.222,116.667,116.667,680.556,347.222,""""
455,0.140,1.905,0.210,152.778,83.333,372.222,969.444,288.889,N
456,0.025,0.035,-0.125,175.000,111.111,188.889,716.667,252.778,""""
457,0.130,1.815,0.205,144.444,41.667,369.444,991.667,275.000,N
458,0.150,0.080,-0.160,197.222,102.778,113.889,672.222,319.444,""""
459,0.075,1.790,0.090,152.778,44.444,372.222,977.778,305.556,N
460,0.205,-0.010,-0.210,197.222,108.333,127.778,677.778,300.000,""""
461,0.040,1.735,0.125,152.778,83.333,372.222,927.778,250.000,N
462,0.015,-0.095,-0.220,30.556,44.444,319.444,694.444,233.333,""""
463,0.035,1.785,0.100,141.667,44.444,372.222,955.556,261.111,N
464,0.165,-0.070,-0.255,197.222,105.556,113.889,677.778,277.778,""""
465,-0.035,1.720,0.015,138.889,80.556,369.444,950.000,272.222,N
466,-0.135,-0.130,-0.295,186.111,108.333,116.667,722.222,227.778,""""
467,-0.015,1.565,0.095,147.222,44.444,369.444,1000.000,277.778,N
468,-0.100,-0.125,-0.330,197.222,102.778,119.444,688.889,311.111,""""
469,-0.040,1.810,-0.085,147.222,72.222,369.444,961.111,272.222,N
470,-0.090,-0.055,-0.305,197.222,111.111,291.667,705.556,255.556,""""
471,-0.040,1.730,0.060,136.111,69.444,366.667,997.222,291.667,N
472,-0.090,-0.115,-0.305,197.222,111.111,122.222,691.667,305.556,""""
473,0.010,1.725,0.085,136.111,41.667,369.444,1008.333,316.667,N
474,0.270,-0.005,-0.255,197.222,97.222,116.667,652.778,355.556,""""
475,0.015,1.765,0.060,158.333,72.222,369.444,980.556,327.778,N
476,-0.025,-0.025,-0.245,194.444,116.667,127.778,694.444,286.111,""""
477,0.075,1.790,0.170,141.667,41.667,369.444,983.333,288.889,N
478,0.255,-0.060,-0.250,197.222,108.333,391.667,655.556,327.778,""""
479,0.040,1.805,-0.005,155.556,69.444,372.222,944.444,288.889,N
480,0.145,-0.075,-0.230,194.444,94.444,105.556,672.222,272.222,""""
481,0.045,1.710,0.125,147.222,41.667,369.444,925.000,252.778,N
482,0.160,-0.040,-0.295,197.222,100.000,102.778,658.333,266.667,""""
483,-0.020,1.765,-0.035,150.000,66.667,369.444,950.000,291.667,N
484,0.030,-0.145,-0.280,197.222,91.667,100.000,697.222,252.778,""""
485,-0.010,1.610,-0.030,144.444,41.667,369.444,930.556,233.333,N
486,-0.055,-0.095,-0.325,197.222,102.778,113.889,691.667,238.889,""""
487,-0.055,1.710,-0.020,155.556,72.222,372.222,975.000,283.333,N
488,0.075,-0.140,-0.325,197.222,80.556,97.222,647.222,327.778,""""
489,-0.075,1.625,-0.045,136.111,38.889,366.667,950.000,302.778,N
490,0.110,-0.075,-0.330,197.222,105.556,108.333,661.111,288.889,""""
491,-0.050,1.555,0.065,141.667,44.444,369.444,955.556,294.444,N
492,0.290,-0.055,-0.300,197.222,105.556,116.667,622.222,333.333,""""
493,-0.090,1.650,-0.110,158.333,69.444,369.444,952.778,330.556,N
494,0.060,-0.125,-0.355,197.222,105.556,252.778,675.000,277.778,""""
495,-0.040,1.625,0.060,144.444,38.889,366.667,952.778,277.778,N
496,-0.025,-0.110,-0.290,197.222,111.111,377.778,686.111,266.667,""""
497,0.000,1.800,-0.040,155.556,72.222,369.444,963.889,277.778,N
498,0.210,-0.005,-0.225,197.222,94.444,108.333,663.889,300.000,""""
499,0.035,1.745,0.005,147.222,44.444,372.222,933.333,269.444,N
500,0.015,-0.070,-0.255,197.222,94.444,105.556,705.556,227.778,""""
501,0.020,1.855,0.150,152.778,80.556,366.667,955.556,250.000,N
502,0.300,0.025,-0.205,197.222,97.222,105.556,633.333,322.222,""""
503,0.065,1.770,0.050,144.444,69.444,369.444,955.556,322.222,N
504,0.130,-0.005,-0.175,197.222,97.222,380.556,691.667,263.889,""""
505,0.115,1.775,0.225,150.000,41.667,369.444,966.667,275.000,N
506,0.285,0.025,-0.175,197.222,105.556,188.889,655.556,311.111,""""
507,0.050,1.685,0.125,147.222,72.222,369.444,983.333,327.778,N
508,0.060,-0.005,-0.200,197.222,105.556,111.111,694.444,288.889,""""
509,0.090,1.790,0.090,147.222,41.667,369.444,969.444,275.000,N
510,0.150,-0.015,-0.240,197.222,108.333,186.111,686.111,283.333,""""
511,0.025,1.800,0.095,163.889,83.333,372.222,1038.889,352.778,N
512,0.080,-0.070,-0.230,197.222,108.333,111.111,677.778,361.111,""""
513,-0.035,1.660,-0.055,152.778,41.667,363.889,1022.222,344.444,N
514,0.095,-0.140,-0.325,197.222,102.778,119.444,705.556,316.667,""""
515,-0.090,1.700,-0.070,147.222,77.778,369.444,955.556,250.000,N
516,-0.180,-0.195,-0.315,186.111,113.889,369.444,725.000,230.556,""""
517,-0.035,1.630,-0.030,144.444,44.444,372.222,997.222,272.222,N
518,-0.065,-0.100,-0.300,197.222,100.000,386.111,727.778,269.444,""""
519,0.000,1.755,0.015,147.222,41.667,369.444,972.222,244.444,N
520,0.160,-0.015,-0.280,197.222,113.889,119.444,677.778,294.444,""""
521,-0.005,1.730,0.120,150.000,77.778,372.222,1033.333,355.556,N
522,-0.065,-0.080,-0.265,191.667,113.889,369.444,700.000,333.333,""""
523,-0.020,1.655,-0.060,152.778,41.667,369.444,1002.778,302.778,N
524,-0.170,-0.200,-0.340,186.111,116.667,405.556,758.333,244.444,""""
525,-0.005,1.745,0.035,138.889,41.667,369.444,1025.000,266.667,N
526,-0.060,-0.125,-0.265,197.222,94.444,113.889,700.000,325.000,""""
527,-0.025,1.695,-0.050,155.556,69.444,369.444,1050.000,350.000,N
528,-0.090,-0.145,-0.260,197.222,91.667,405.556,719.444,330.556,""""
529,-0.015,1.630,0.030,147.222,41.667,369.444,1013.889,294.444,N
530,-0.085,-0.195,-0.315,19.444,58.333,325.000,758.333,255.556,""""
531,-0.010,1.675,-0.005,152.778,83.333,372.222,1033.333,275.000,N
532,0.020,-0.125,-0.310,197.222,116.667,402.778,677.778,355.556,""""
533,-0.105,1.510,-0.035,150.000,41.667,369.444,1025.000,347.222,N
534,-0.070,-0.175,-0.420,197.222,97.222,100.000,686.111,338.889,""""
535,-0.155,1.615,-0.120,155.556,41.667,366.667,963.889,277.778,N
536,0.140,-0.110,-0.350,197.222,113.889,113.889,641.667,322.222,""""
537,-0.120,1.575,-0.050,152.778,75.000,369.444,1022.222,380.556,N
538,-0.025,-0.120,-0.330,197.222,100.000,111.111,675.000,347.222,""""
539,-0.135,1.485,-0.190,147.222,44.444,369.444,972.222,297.222,N
540,-0.075,-0.230,-0.440,197.222,102.778,388.889,719.444,252.778,""""
541,-0.165,1.675,-0.160,147.222,72.222,363.889,966.667,247.222,N
542,-0.080,-0.175,-0.395,194.444,116.667,402.778,688.889,277.778,""""
543,-0.120,1.515,-0.135,147.222,41.667,366.667,1000.000,311.111,N
544,-0.120,-0.180,-0.340,197.222,113.889,405.556,727.778,272.222,""""
545,-0.085,1.635,-0.105,141.667,69.444,366.667,955.556,227.778,N
546,0.035,-0.125,-0.335,197.222,111.111,158.333,697.222,258.333,""""
547,-0.130,1.505,0.020,152.778,83.333,372.222,988.889,291.667,N
548,-0.085,-0.185,-0.375,197.222,105.556,380.556,677.778,311.111,""""
549,-0.145,1.570,-0.105,144.444,41.667,369.444,952.778,275.000,N
550,0.225,-0.115,-0.370,197.222,100.000,100.000,650.000,302.778,""""
551,-0.125,1.545,-0.030,147.222,66.667,369.444,972.222,322.222,N
552,0.050,-0.100,-0.325,191.667,108.333,391.667,650.000,322.222,""""
553,-0.115,1.525,-0.025,136.111,41.667,369.444,1008.333,358.333,N
554,0.070,-0.135,-0.360,194.444,102.778,105.556,675.000,333.333,""""
555,-0.150,1.600,-0.200,150.000,77.778,372.222,958.333,283.333,N
556,0.000,-0.165,-0.385,197.222,102.778,111.111,675.000,283.333,""""
557,-0.125,1.500,-0.035,152.778,44.444,372.222,1013.889,338.889,N
558,-0.100,-0.205,-0.380,197.222,111.111,386.111,686.111,327.778,""""
559,-0.115,1.615,-0.165,161.111,77.778,372.222,963.889,277.778,N
560,0.125,-0.175,-0.360,197.222,94.444,219.444,672.222,291.667,""""
561,-0.125,1.490,-0.075,150.000,80.556,369.444,947.222,275.000,N
562,-0.175,-0.245,-0.370,194.444,105.556,377.778,713.889,233.333,""""
563,-0.080,1.615,-0.170,147.222,80.556,369.444,941.667,227.778,N
564,0.170,-0.090,-0.305,197.222,113.889,397.222,683.333,258.333,""""
565,-0.115,1.500,-0.040,147.222,41.667,369.444,966.667,283.333,N
566,-0.130,-0.160,-0.275,197.222,111.111,397.222,741.667,225.000,""""
567,0.000,1.675,0.045,150.000,66.667,369.444,1011.111,269.444,N
568,-0.040,-0.135,-0.305,197.222,102.778,388.889,677.778,333.333,""""
569,-0.065,1.585,-0.100,141.667,75.000,366.667,1011.111,333.333,N
570,-0.075,-0.125,-0.300,197.222,102.778,386.111,725.000,286.111,""""
571,-0.020,1.680,0.055,136.111,41.667,366.667,1008.333,283.333,N
572,0.145,-0.110,-0.285,197.222,116.667,394.444,663.889,344.444,""""
573,-0.010,1.740,-0.015,144.444,75.000,372.222,1008.333,344.444,N
574,-0.025,-0.095,-0.215,191.667,102.778,208.333,708.333,300.000,""""
575,0.025,1.660,0.140,136.111,41.667,369.444,988.889,280.556,N
576,0.125,-0.015,-0.210,197.222,113.889,363.889,691.667,297.222,""""
577,0.060,1.810,0.050,144.444,80.556,369.444,1000.000,308.333,N
578,0.100,0.025,-0.180,197.222,116.667,405.556,694.444,305.556,""""
579,0.090,1.770,0.125,158.333,44.444,372.222,1044.444,350.000,N
580,0.265,0.010,-0.195,197.222,105.556,116.667,669.444,375.000,""""
581,0.055,1.745,-0.065,141.667,66.667,355.556,977.778,308.333,N
582,0.005,-0.075,-0.200,197.222,116.667,363.889,716.667,261.111,""""
583,0.040,1.730,0.070,152.778,44.444,372.222,1019.444,302.778,N
584,0.035,0.005,-0.210,197.222,113.889,400.000,708.333,311.111,""""
585,0.075,1.890,0.010,158.333,72.222,369.444,1013.889,305.556,N
586,0.095,-0.005,-0.180,188.889,111.111,402.778,719.444,294.444,""""
587,0.105,1.770,0.100,144.444,69.444,372.222,991.667,272.222,N
588,0.145,0.010,-0.150,197.222,102.778,113.889,683.333,308.333,""""
589,0.100,1.755,0.035,141.667,38.889,366.667,1008.333,325.000,N
590,0.325,0.020,-0.165,197.222,116.667,402.778,686.111,322.222,""""
591,0.080,1.855,0.080,144.444,80.556,369.444,930.556,244.444,N
592,0.235,0.065,-0.140,194.444,94.444,386.111,672.222,258.333,""""
593,0.130,1.755,0.150,152.778,41.667,369.444,997.222,325.000,N
594,0.260,0.100,-0.145,197.222,111.111,336.111,666.667,330.556,""""
595,0.115,1.860,0.065,136.111,80.556,369.444,997.222,330.556,N
596,0.345,0.095,-0.140,197.222,108.333,388.889,677.778,319.444,""""
597,0.100,1.860,0.145,147.222,41.667,369.444,1005.556,327.778,N
598,0.150,0.045,-0.120,194.444,113.889,391.667,697.222,308.333,""""
599,0.135,1.930,0.185,155.556,69.444,372.222,1016.667,319.444,N
600,0.365,0.100,-0.125,197.222,108.333,150.000,658.333,358.333,""""
601,0.095,1.755,0.030,147.222,44.444,372.222,952.778,294.444,N
602,0.200,-0.040,-0.200,194.444,102.778,111.111,688.889,263.889,""""
603,0.065,1.805,0.095,155.556,44.444,369.444,986.111,297.222,N
604,0.265,-0.080,-0.225,197.222,50.000,63.889,666.667,319.444,""""
605,0.005,1.750,-0.040,155.556,72.222,372.222,936.111,269.444,N
606,0.075,0.010,-0.230,197.222,100.000,111.111,705.556,230.556,""""
607,0.045,1.815,0.060,144.444,41.667,369.444,980.556,275.000,N
608,0.355,0.025,-0.240,180.556,116.667,138.889,633.333,347.222,""""
609,-0.030,1.755,-0.080,161.111,72.222,372.222,958.333,325.000,N
610,0.225,-0.040,-0.285,197.222,108.333,116.667,655.556,302.778,""""
611,-0.010,1.785,0.105,150.000,41.667,363.889,969.444,313.889,N
612,0.335,-0.010,-0.235,188.889,116.667,402.778,619.444,350.000,""""
613,0.025,1.795,-0.025,147.222,80.556,369.444,975.000,355.556,N
614,0.200,-0.070,-0.205,197.222,113.889,350.000,680.556,294.444,""""
615,0.010,1.710,0.050,144.444,41.667,369.444,938.889,258.333,N
616,0.235,-0.105,-0.260,197.222,105.556,105.556,652.778,286.111,""""
617,0.035,1.825,-0.030,141.667,69.444,369.444,1011.111,358.333,N
618,0.160,-0.025,-0.230,191.667,88.889,383.333,680.556,330.556,""""
619,0.040,1.735,-0.060,158.333,44.444,372.222,1005.556,325.000,N
620,0.100,-0.110,-0.290,197.222,97.222,388.889,702.778,302.778,""""
621,0.005,1.745,0.000,152.778,41.667,366.667,963.889,261.111,N
622,0.195,-0.060,-0.285,197.222,111.111,133.333,661.111,302.778,""""
623,-0.065,1.700,-0.130,150.000,41.667,369.444,977.778,316.667,N
624,0.050,-0.155,-0.335,197.222,116.667,355.556,702.778,275.000,""""
625,-0.040,1.705,-0.080,141.667,41.667,366.667,938.889,236.111,N
626,0.180,-0.100,-0.285,197.222,94.444,105.556,680.556,258.333,""""
627,-0.100,1.670,-0.075,152.778,69.444,369.444,952.778,272.222,N
628,0.185,-0.100,-0.320,197.222,108.333,108.333,636.111,316.667,""""
629,-0.065,1.530,-0.065,138.889,44.444,366.667,950.000,313.889,N
630,0.295,-0.045,-0.315,197.222,102.778,111.111,641.667,308.333,""""
631,-0.065,1.655,-0.110,155.556,83.333,372.222,955.556,313.889,N
632,0.000,-0.130,-0.310,197.222,97.222,316.667,686.111,269.444,""""
633,-0.010,1.640,0.005,161.111,41.667,366.667,1019.444,333.333,N
634,0.140,-0.045,-0.290,197.222,97.222,108.333,677.778,341.667,""""
635,-0.025,1.760,-0.095,150.000,83.333,366.667,958.333,280.556,N
636,-0.025,1.595,0.245,161.111,69.444,369.444,866.667,91.667,R
637,-0.020,1.550,0.220,166.667,66.667,369.444,844.444,22.222,R
638,-0.100,1.550,0.075,150.000,66.667,369.444,886.111,41.667,R
639,-0.070,1.525,0.040,166.667,69.444,369.444,994.444,108.333,R
640,-0.065,1.490,0.150,161.111,66.667,369.444,938.889,55.556,R
641,-0.105,1.500,-0.040,158.333,69.444,363.889,983.333,44.444,R
642,-0.045,1.540,0.085,163.889,66.667,372.222,1036.111,52.778,R
643,-0.010,1.540,0.090,150.000,69.444,369.444,986.111,50.000,R
644,-0.055,1.520,0.025,163.889,66.667,369.444,933.333,52.778,R
645,-0.065,1.540,0.075,155.556,66.667,366.667,1030.556,97.222,R
646,-0.045,1.540,0.060,147.222,69.444,369.444,938.889,91.667,R
647,-0.080,1.440,0.115,158.333,66.667,369.444,894.444,44.444,R
648,-0.090,1.480,-0.045,147.222,66.667,369.444,913.889,19.444,R
649,-0.050,1.490,0.055,147.222,66.667,369.444,908.333,5.556,R
650,-0.065,1.510,0.020,158.333,66.667,366.667,855.556,52.778,R
651,-0.085,1.505,0.025,163.889,69.444,372.222,941.667,86.111,R
652,-0.065,1.490,0.065,141.667,61.111,366.667,897.222,44.444,R
653,-0.050,1.500,0.025,166.667,66.667,369.444,836.111,61.111,R
654,-0.080,1.515,0.050,158.333,69.444,372.222,916.667,80.556,R
655,-0.030,1.570,0.070,147.222,66.667,369.444,961.111,44.444,R
656,-0.050,1.490,0.075,155.556,61.111,363.889,869.444,91.667,R
657,-0.065,1.540,0.025,163.889,69.444,361.111,944.444,75.000,R
658,-0.035,1.515,0.125,147.222,61.111,363.889,952.778,8.333,R
659,-0.010,1.565,0.090,158.333,66.667,369.444,872.222,80.556,R
660,-0.050,1.515,0.055,158.333,63.889,363.889,944.444,72.222,R
661,-0.040,1.585,0.100,150.000,66.667,369.444,958.333,13.889,R
662,-0.015,1.495,0.070,144.444,66.667,366.667,883.333,75.000,R
663,-0.045,1.520,0.085,166.667,66.667,363.889,925.000,41.667,R
664,-0.065,1.495,0.060,147.222,63.889,369.444,975.000,50.000,R
665,-0.085,1.540,0.120,152.778,69.444,366.667,952.778,22.222,R
666,-0.075,1.480,0.050,158.333,66.667,372.222,919.444,33.333,R
667,-0.030,1.575,0.125,158.333,66.667,369.444,1072.222,152.778,R
668,-0.055,1.550,0.025,163.889,63.889,366.667,1008.333,63.889,R
669,-0.110,1.465,0.000,155.556,66.667,369.444,980.556,27.778,R
670,-0.115,1.505,0.035,155.556,63.889,361.111,1022.222,41.667,R
671,-0.155,1.505,-0.035,158.333,72.222,372.222,1008.333,13.889,R
672,-0.195,1.490,0.010,161.111,66.667,366.667,1019.444,11.111,R
673,-0.150,1.535,0.035,144.444,66.667,369.444,1047.222,27.778,R
674,-0.150,1.420,-0.010,158.333,69.444,369.444,1013.889,33.333,R
675,-0.160,1.430,0.020,150.000,66.667,361.111,955.556,58.333,R
676,-0.140,1.435,0.085,158.333,69.444,372.222,944.444,11.111,R
677,-0.095,1.505,0.080,152.778,61.111,366.667,963.889,19.444,R
678,-0.085,1.485,0.120,150.000,63.889,369.444,936.111,27.778,R
679,-0.100,1.570,0.135,155.556,69.444,372.222,997.222,61.111,R
680,-0.050,1.625,0.125,147.222,63.889,369.444,1027.778,30.556,R
681,-0.040,1.525,0.165,152.778,69.444,369.444,955.556,72.222,R
682,-0.030,1.540,0.190,150.000,63.889,369.444,1027.778,72.222,R
683,-0.080,1.495,0.055,163.889,72.222,369.444,1036.111,8.333,R
684,-0.135,1.475,0.120,155.556,63.889,366.667,1002.778,33.333,R
685,-0.095,1.550,0.045,161.111,69.444,358.333,1008.333,5.556,R
686,-0.150,1.495,0.035,158.333,69.444,361.111,1002.778,5.556,R
687,-0.215,1.445,0.005,147.222,63.889,363.889,927.778,75.000,R
688,-0.155,1.490,0.055,163.889,72.222,372.222,983.333,55.556,R
689,-0.155,1.435,0.070,150.000,63.889,366.667,983.333,0.000,R
690,-0.150,1.370,0.015,152.778,63.889,369.444,911.111,72.222,R
691,-0.175,1.405,0.030,161.111,69.444,372.222,983.333,72.222,R
692,-0.150,1.425,0.110,152.778,66.667,361.111,969.444,13.889,R
693,-0.145,1.420,0.010,152.778,66.667,366.667,894.444,75.000,R
694,-0.155,1.450,0.085,166.667,69.444,369.444,983.333,88.889,R
695,-0.105,1.540,0.150,147.222,66.667,363.889,997.222,13.889,R
696,-0.135,1.475,0.095,150.000,66.667,366.667,897.222,100.000,R
697,-0.110,1.480,0.135,158.333,66.667,369.444,994.444,97.222,R
698,-0.135,1.495,0.105,147.222,63.889,366.667,938.889,55.556,R
699,-0.155,1.430,0.105,155.556,69.444,369.444,886.111,52.778,R
700,-0.110,1.505,0.150,158.333,66.667,366.667,958.333,72.222,R
701,-0.070,1.545,0.110,158.333,66.667,361.111,930.556,27.778,R
702,-0.070,1.505,0.145,150.000,69.444,372.222,872.222,58.333,R
703,-0.030,1.595,0.265,161.111,66.667,369.444,983.333,111.111,R
704,0.000,1.585,0.250,152.778,63.889,366.667,969.444,13.889,R
705,-0.035,1.570,0.170,166.667,69.444,372.222,913.889,55.556,R
706,-0.070,1.520,0.170,161.111,66.667,369.444,925.000,11.111,R
707,-0.050,1.550,0.205,158.333,69.444,372.222,966.667,41.667,R
708,-0.040,1.555,0.175,152.778,66.667,366.667,933.333,33.333,R
709,-0.065,1.495,0.145,161.111,63.889,363.889,905.556,27.778,R
710,-0.105,1.505,0.170,144.444,63.889,358.333,927.778,22.222,R
711,-0.115,1.440,0.135,158.333,69.444,369.444,880.556,47.222,R
712,-0.110,1.445,0.120,158.333,63.889,369.444,850.000,30.556,R
713,-0.110,1.500,0.190,150.000,63.889,366.667,908.333,58.333,R
714,-0.025,1.560,0.260,155.556,69.444,372.222,919.444,11.111,R
715,-0.045,1.520,0.230,163.889,66.667,369.444,922.222,2.778,R
716,-0.050,1.465,0.265,161.111,63.889,350.000,894.444,27.778,R
717,-0.055,1.505,0.280,158.333,72.222,372.222,1019.444,125.000,R
718,-0.045,1.530,0.185,158.333,66.667,369.444,975.000,44.444,R
719,-0.025,1.510,0.285,152.778,63.889,369.444,919.444,55.556,R
720,-0.020,1.535,0.205,163.889,69.444,372.222,1052.778,133.333,R
721,-0.035,1.555,0.210,147.222,66.667,369.444,1069.444,16.667,R
722,0.010,1.560,0.265,161.111,66.667,366.667,925.000,144.444,R
723,-0.015,1.540,0.270,150.000,63.889,366.667,980.556,55.556,R
724,0.015,1.540,0.270,169.444,69.444,358.333,994.444,13.889,R
725,-0.015,1.480,0.230,150.000,66.667,361.111,905.556,88.889,R
726,-0.030,1.495,0.205,158.333,69.444,372.222,977.778,72.222,R
727,-0.045,1.475,0.240,155.556,72.222,369.444,1002.778,25.000,R
728,-0.080,1.425,0.115,144.444,66.667,366.667,886.111,116.667,R
729,-0.105,1.435,0.140,166.667,69.444,369.444,961.111,75.000,R
730,-0.100,1.385,0.225,150.000,63.889,366.667,980.556,19.444,R
731,-0.095,1.445,0.225,158.333,66.667,363.889,877.778,102.778,R
732,-0.085,1.475,0.180,158.333,69.444,369.444,958.333,80.556,R
733,-0.090,1.425,0.175,155.556,66.667,369.444,961.111,2.778,R
734,-0.135,1.375,0.110,158.333,66.667,369.444,852.778,108.333,R
735,-0.145,1.380,0.175,161.111,69.444,369.444,930.556,77.778,R
736,-0.135,1.405,0.195,152.778,66.667,369.444,969.444,38.889,R
737,-0.115,1.395,0.225,144.444,66.667,369.444,894.444,75.000,R
738,-0.085,1.310,0.170,169.444,69.444,372.222,888.889,5.556,R
739,-0.100,1.380,0.230,158.333,69.444,363.889,911.111,22.222,R
740,-0.100,1.420,0.205,141.667,63.889,366.667,886.111,25.000,R
741,-0.135,1.395,0.155,152.778,69.444,372.222,869.444,16.667,R
742,-0.135,1.395,0.240,163.889,66.667,369.444,930.556,61.111,R
743,-0.105,1.400,0.275,147.222,66.667,363.889,927.778,2.778,R
744,-0.065,1.430,0.200,161.111,69.444,369.444,925.000,2.778,R
745,-0.080,1.420,0.285,161.111,69.444,366.667,900.000,25.000,R
746,-0.070,1.460,0.200,152.778,69.444,369.444,1019.444,119.444,R
747,-0.060,1.425,0.245,161.111,69.444,372.222,983.333,36.111,R
748,-0.095,1.385,0.170,144.444,63.889,358.333,913.889,69.444,R
749,-0.115,1.400,0.160,150.000,66.667,369.444,980.556,66.667,R
750,-0.175,1.340,0.145,152.778,66.667,369.444,997.222,16.667,R
751,-0.165,1.325,0.150,158.333,61.111,355.556,916.667,80.556,R
752,-0.150,1.420,0.190,166.667,69.444,372.222,975.000,58.333,R
753,-0.145,1.380,0.120,150.000,69.444,363.889,986.111,11.111,R
754,-0.175,1.290,0.075,152.778,66.667,363.889,925.000,61.111,R
755,-0.195,1.250,0.085,155.556,66.667,369.444,1000.000,75.000,R
756,-0.215,1.245,0.045,147.222,63.889,361.111,994.444,5.556,R
757,-0.195,1.230,0.085,147.222,66.667,366.667,900.000,94.444,R
758,-0.195,1.345,0.135,147.222,63.889,355.556,963.889,63.889,R
759,-0.175,1.380,0.150,163.889,72.222,369.444,947.222,16.667,R
760,-0.120,1.395,0.165,155.556,66.667,363.889,891.667,55.556,R
761,-0.100,1.420,0.230,163.889,66.667,369.444,900.000,8.333,R
762,-0.075,1.445,0.260,147.222,66.667,369.444,966.667,66.667,R
763,-0.075,1.415,0.215,150.000,69.444,366.667,916.667,50.000,R
764,-0.075,1.370,0.200,158.333,63.889,347.222,891.667,25.000,R
765,-0.095,1.395,0.225,161.111,72.222,369.444,961.111,69.444,R
766,-0.070,1.400,0.225,161.111,69.444,369.444,961.111,0.000,R
767,-0.070,1.360,0.190,155.556,66.667,369.444,877.778,83.333,R
768,-0.070,1.370,0.235,152.778,63.889,369.444,972.222,94.444,R
769,-0.090,1.360,0.170,150.000,69.444,363.889,936.111,36.111,R
770,-0.135,1.265,0.120,158.333,63.889,363.889,900.000,36.111,R
771,-0.145,1.275,0.150,158.333,72.222,372.222,930.556,30.556,R
772,-0.130,1.345,0.155,158.333,72.222,358.333,950.000,19.444,R
773,-0.125,1.275,0.135,152.778,69.444,372.222,869.444,80.556,R
774,-0.140,1.245,0.185,152.778,63.889,366.667,947.222,77.778,R
775,-0.140,1.270,0.120,150.000,66.667,366.667,938.889,8.333,R
776,-0.150,1.250,0.120,158.333,69.444,363.889,894.444,44.444,R
777,-0.125,1.280,0.215,158.333,69.444,372.222,936.111,41.667,R
778,-0.080,1.350,0.210,155.556,69.444,361.111,977.778,41.667,R
779,-0.125,1.340,0.125,163.889,63.889,369.444,877.778,100.000,R
780,-0.150,1.265,0.175,152.778,66.667,361.111,908.333,30.556,R
781,-0.095,1.380,0.265,150.000,63.889,369.444,936.111,27.778,R
782,-0.040,1.430,0.285,161.111,66.667,352.778,955.556,19.444,R
783,-0.025,1.420,0.280,158.333,66.667,366.667,894.444,61.111,R
784,0.015,1.465,0.340,161.111,66.667,347.222,1008.333,113.889,R
785,0.060,1.445,0.315,155.556,63.889,366.667,972.222,36.111,R
786,0.045,1.435,0.330,155.556,63.889,369.444,933.333,38.889,R
787,0.100,1.545,0.435,155.556,69.444,366.667,938.889,5.556,R
788,0.120,1.600,0.475,150.000,63.889,366.667,972.222,33.333,R
789,0.125,1.530,0.380,161.111,69.444,366.667,919.444,52.778,R
790,0.125,1.545,0.475,158.333,66.667,358.333,952.778,33.333,R
791,0.120,1.520,0.395,155.556,66.667,369.444,947.222,5.556,R
792,0.095,1.455,0.385,161.111,66.667,363.889,916.667,30.556,R
793,0.030,1.455,0.380,158.333,66.667,350.000,947.222,30.556,R
794,0.030,1.405,0.295,147.222,66.667,366.667,916.667,30.556,R
795,-0.110,-0.085,-0.240,186.111,108.333,397.222,733.333,183.333,""""
796,0.015,1.550,0.120,147.222,66.667,369.444,1055.556,322.222,N
797,0.000,1.365,0.255,152.778,69.444,361.111,880.556,175.000,R
798,-0.080,1.310,0.205,147.222,66.667,369.444,886.111,5.556,R
799,-0.105,1.315,0.240,152.778,69.444,366.667,916.667,30.556,R
800,-0.100,1.330,0.260,144.444,63.889,366.667,938.889,22.222,R
801,-0.095,1.310,0.150,161.111,69.444,369.444,908.333,30.556,R
802,-0.095,1.300,0.275,161.111,66.667,355.556,1000.000,91.667,R
803,-0.050,1.385,0.215,163.889,66.667,369.444,991.667,8.333,R
804,-0.070,1.360,0.235,158.333,69.444,352.778,947.222,44.444,R
805,-0.055,1.420,0.290,152.778,69.444,358.333,961.111,13.889,R
806,-0.030,1.405,0.280,158.333,72.222,369.444,983.333,22.222,R
807,-0.035,1.385,0.285,169.444,66.667,352.778,955.556,27.778,R
808,0.025,1.395,0.365,150.000,63.889,369.444,941.667,13.889,R
809,0.035,1.500,0.340,161.111,72.222,369.444,975.000,33.333,R
810,0.035,1.475,0.320,161.111,66.667,361.111,936.111,38.889,R
811,0.020,1.435,0.370,155.556,66.667,366.667,894.444,41.667,R
812,0.050,1.500,0.345,169.444,72.222,369.444,952.778,58.333,R
813,0.005,1.430,0.295,144.444,63.889,355.556,919.444,33.333,R
814,-0.015,1.380,0.220,152.778,61.111,355.556,869.444,50.000,R
815,-0.085,1.365,0.250,166.667,69.444,369.444,980.556,111.111,R
816,-0.030,1.390,0.275,158.333,63.889,341.667,947.222,33.333,R
817,-0.080,1.330,0.165,147.222,66.667,369.444,855.556,91.667,R
818,-0.110,1.355,0.230,166.667,69.444,363.889,961.111,105.556,R
819,-0.130,1.330,0.240,147.222,66.667,369.444,980.556,19.444,R
820,-0.150,1.300,0.115,150.000,63.889,369.444,927.778,52.778,R
821,-0.150,1.350,0.235,163.889,66.667,361.111,952.778,25.000,R
822,-0.110,1.370,0.275,150.000,63.889,355.556,975.000,22.222,R
823,-0.080,1.440,0.255,163.889,69.444,366.667,947.222,27.778,R
824,-0.060,1.435,0.285,152.778,66.667,366.667,947.222,0.000,R
825,-0.025,1.485,0.320,155.556,66.667,369.444,1013.889,66.667,R
826,-0.005,1.515,0.235,161.111,69.444,363.889,986.111,27.778,R
827,-0.005,1.470,0.315,152.778,66.667,363.889,963.889,22.222,R
828,-0.020,1.470,0.365,158.333,69.444,366.667,994.444,30.556,R
829,0.015,1.455,0.300,141.667,63.889,369.444,952.778,41.667,R
830,-0.025,1.470,0.285,161.111,69.444,372.222,938.889,13.889,R
831,-0.010,1.505,0.370,158.333,63.889,361.111,950.000,11.111,R
832,0.050,1.500,0.320,161.111,69.444,363.889,930.556,19.444,R
833,0.030,1.510,0.330,147.222,66.667,369.444,883.333,47.222,R
834,0.060,1.465,0.395,158.333,66.667,363.889,913.889,30.556,R
835,0.035,1.520,0.335,147.222,66.667,361.111,908.333,5.556,R
836,0.005,1.435,0.260,163.889,69.444,369.444,877.778,30.556,R
837,-0.015,1.395,0.295,155.556,66.667,344.444,911.111,33.333,R
838,-0.055,1.380,0.275,150.000,66.667,366.667,894.444,16.667,R
839,-0.045,1.410,0.205,155.556,66.667,358.333,880.556,13.889,R
840,-0.105,1.410,0.255,141.667,69.444,361.111,913.889,33.333,R
841,-0.095,1.390,0.235,150.000,63.889,350.000,938.889,25.000,R
842,-0.145,1.360,0.120,163.889,69.444,369.444,894.444,44.444,R
843,-0.155,1.405,0.235,152.778,69.444,358.333,1030.556,136.111,R
844,-0.140,1.400,0.165,155.556,66.667,369.444,983.333,47.222,R
845,-0.115,1.335,0.150,155.556,69.444,369.444,963.889,19.444,R
846,-0.145,1.335,0.245,158.333,69.444,366.667,969.444,5.556,R
847,-0.090,1.430,0.230,152.778,69.444,366.667,975.000,5.556,R
848,-0.095,1.375,0.235,169.444,69.444,369.444,919.444,55.556,R
849,-0.080,1.475,0.315,147.222,63.889,350.000,966.667,47.222,R
850,-0.040,1.500,0.250,150.000,66.667,369.444,897.222,69.444,R
851,0.000,1.435,0.305,155.556,69.444,369.444,883.333,13.889,R
852,-0.030,1.455,0.355,161.111,66.667,355.556,905.556,22.222,R
853,-0.065,1.480,0.355,152.778,66.667,369.444,933.333,27.778,R
854,-0.050,1.440,0.305,161.111,66.667,369.444,886.111,47.222,R
855,-0.040,1.500,0.355,158.333,66.667,358.333,1011.111,125.000,R
856,-0.070,1.480,0.230,163.889,69.444,369.444,1008.333,2.778,R
857,-0.110,1.435,0.250,152.778,69.444,369.444,980.556,27.778,R
858,-0.110,1.425,0.280,150.000,69.444,372.222,994.444,13.889,R
859,-0.115,1.480,0.275,163.889,72.222,366.667,1025.000,30.556,R
860,-0.075,1.480,0.265,150.000,63.889,355.556,1000.000,25.000,R
861,-0.085,1.360,0.180,152.778,63.889,366.667,916.667,83.333,R
862,-0.125,1.375,0.265,158.333,72.222,363.889,966.667,50.000,R
863,-0.095,1.435,0.305,144.444,63.889,363.889,997.222,30.556,R
864,-0.100,1.420,0.205,158.333,66.667,358.333,922.222,75.000,R
865,-0.120,1.365,0.300,155.556,66.667,366.667,952.778,30.556,R
866,-0.090,1.450,0.320,152.778,69.444,366.667,966.667,13.889,R
867,-0.115,1.415,0.195,155.556,66.667,369.444,919.444,47.222,R
868,-0.130,1.395,0.275,150.000,63.889,350.000,936.111,16.667,R
869,-0.080,1.450,0.325,141.667,63.889,363.889,930.556,5.556,R
870,-0.065,1.395,0.290,163.889,66.667,358.333,922.222,8.333,R
871,-0.070,1.440,0.310,155.556,66.667,361.111,908.333,13.889,R
872,-0.070,1.470,0.345,155.556,69.444,352.778,1005.556,97.222,R
873,-0.020,1.460,0.335,152.778,66.667,363.889,977.778,27.778,R
874,-0.010,1.440,0.320,163.889,69.444,366.667,950.000,27.778,R
875,-0.025,1.465,0.385,158.333,69.444,358.333,969.444,19.444,R
876,0.015,1.560,0.350,144.444,63.889,355.556,969.444,0.000,R
877,0.000,1.490,0.275,163.889,72.222,363.889,927.778,41.667,R
878,-0.045,1.455,0.325,158.333,66.667,350.000,972.222,44.444,R
879,-0.050,1.400,0.245,158.333,69.444,369.444,950.000,22.222,R
880,-0.100,1.280,0.185,158.333,69.444,369.444,919.444,30.556,R
881,-0.150,1.315,0.220,161.111,66.667,350.000,900.000,19.444,R
882,-0.105,1.350,0.170,152.778,66.667,369.444,941.667,41.667,R
883,-0.170,1.335,0.170,169.444,66.667,366.667,900.000,41.667,R
884,-0.150,1.390,0.265,158.333,66.667,352.778,927.778,27.778,R
885,-0.130,1.420,0.260,161.111,69.444,369.444,936.111,8.333,R
886,-0.035,1.405,0.280,155.556,63.889,369.444,900.000,36.111,R
887,-0.095,-0.040,-0.205,172.222,102.778,383.333,694.444,205.556,""""
888,0.080,1.685,0.200,138.889,80.556,369.444,1013.889,319.444,N
889,0.070,-0.060,-0.115,25.000,52.778,275.000,741.667,272.222,""""
890,0.130,1.720,0.170,150.000,41.667,369.444,972.222,230.556,N
891,0.005,0.050,-0.075,183.333,88.889,366.667,719.444,252.778,""""
892,0.180,1.895,0.275,155.556,72.222,369.444,1047.222,327.778,N
893,0.065,0.085,-0.025,180.556,97.222,311.111,716.667,330.556,""""
894,0.190,1.785,0.220,150.000,41.667,369.444,988.889,272.222,N
895,0.050,0.170,-0.035,166.667,102.778,113.889,738.889,250.000,""""
896,0.240,1.915,0.310,136.111,41.667,369.444,1022.222,283.333,N
897,0.100,0.140,0.005,191.667,97.222,272.222,688.889,333.333,""""
898,0.230,1.850,0.245,152.778,66.667,369.444,988.889,300.000,N
899,0.125,0.190,0.040,66.667,111.111,386.111,700.000,288.889,""""
900,0.285,1.750,0.570,147.222,66.667,369.444,944.444,244.444,R
901,0.210,0.255,-0.025,197.222,105.556,105.556,647.222,297.222,""""
902,0.225,1.835,0.455,150.000,69.444,372.222,952.778,305.556,R
903,0.120,0.215,0.000,194.444,102.778,116.667,663.889,288.889,""""
904,0.215,1.700,0.400,144.444,66.667,369.444,930.556,266.667,R
905,0.085,0.135,-0.040,61.111,105.556,111.111,702.778,227.778,""""
906,0.210,1.775,0.530,155.556,66.667,361.111,927.778,225.000,R
907,0.130,0.205,-0.040,197.222,111.111,113.889,627.778,300.000,""""
908,0.165,1.670,0.385,147.222,66.667,369.444,952.778,325.000,R
909,-0.005,0.055,-0.135,52.778,97.222,383.333,711.111,241.667,""""
910,0.110,1.720,0.415,147.222,69.444,369.444,963.889,252.778,R
911,-0.030,0.040,-0.160,180.556,97.222,97.222,655.556,308.333,""""
912,0.115,1.625,0.420,152.778,66.667,366.667,977.778,322.222,R
913,-0.005,0.085,-0.110,66.667,105.556,355.556,677.778,300.000,""""
914,0.140,1.750,0.425,147.222,69.444,372.222,938.889,261.111,R
915,0.065,0.085,-0.110,197.222,116.667,355.556,661.111,277.778,""""
916,0.145,1.715,0.465,155.556,72.222,372.222,958.333,297.222,R
917,0.055,0.145,-0.075,50.000,97.222,147.222,661.111,297.222,""""
918,0.130,1.685,0.360,144.444,69.444,372.222,950.000,288.889,R
919,0.015,0.075,-0.115,111.111,116.667,405.556,708.333,241.667,""""
920,0.165,1.785,0.465,141.667,66.667,369.444,944.444,236.111,R
921,0.030,0.150,-0.105,136.111,100.000,113.889,680.556,263.889,""""
922,0.140,1.710,0.375,152.778,66.667,366.667,991.667,311.111,R
923,0.015,0.045,-0.150,172.222,102.778,386.111,711.111,280.556,""""
924,0.105,1.710,0.390,150.000,66.667,363.889,922.222,211.111,R
925,0.005,0.030,-0.140,191.667,100.000,391.667,663.889,258.333,""""
926,0.100,1.705,0.310,152.778,72.222,369.444,975.000,311.111,R
927,0.180,0.040,-0.175,197.222,105.556,111.111,636.111,338.889,""""
928,0.065,1.675,0.380,150.000,63.889,369.444,955.556,319.444,R
929,0.050,0.015,-0.220,197.222,100.000,102.778,641.667,313.889,""""
930,0.030,1.585,0.265,141.667,66.667,369.444,944.444,302.778,R
931,-0.055,-0.060,-0.255,197.222,116.667,377.778,666.667,277.778,""""
932,-0.025,1.540,0.220,147.222,72.222,372.222,938.889,272.222,R
933,0.070,-0.045,-0.250,197.222,105.556,108.333,663.889,275.000,""""
934,-0.045,1.540,0.220,158.333,69.444,372.222,922.222,258.333,R
935,-0.185,-0.125,-0.305,119.444,116.667,402.778,691.667,230.556,""""
936,-0.070,1.485,0.165,138.889,69.444,369.444,983.333,291.667,R
937,-0.085,-0.105,-0.310,197.222,113.889,208.333,683.333,300.000,""""
938,-0.075,1.520,0.160,138.889,69.444,369.444,950.000,266.667,R
939,-0.180,-0.110,-0.305,150.000,100.000,108.333,744.444,205.556,""""
940,-0.055,1.555,0.085,147.222,41.667,366.667,1025.000,280.556,N
941,-0.135,-0.050,-0.290,194.444,108.333,355.556,694.444,330.556,""""
942,-0.010,1.770,0.025,152.778,72.222,366.667,1000.000,305.556,N
943,-0.120,-0.095,-0.240,150.000,88.889,102.778,716.667,283.333,""""
944,0.030,1.645,0.130,152.778,41.667,369.444,977.778,261.111,N
945,-0.085,-0.010,-0.230,175.000,97.222,113.889,680.556,297.222,""""
946,0.055,1.695,0.130,152.778,80.556,369.444,986.111,305.556,N
947,-0.025,-0.035,-0.255,194.444,116.667,247.222,655.556,330.556,""""
948,-0.005,1.625,0.060,161.111,66.667,372.222,952.778,297.222,N
949,-0.125,-0.100,-0.290,186.111,116.667,338.889,686.111,266.667,""""
950,-0.030,1.605,0.055,136.111,41.667,369.444,980.556,294.444,N
951,-0.075,-0.120,-0.310,197.222,113.889,155.556,666.667,313.889,""""
952,-0.060,1.570,-0.105,152.778,69.444,369.444,944.444,277.778,N
953,-0.175,-0.140,-0.340,197.222,111.111,116.667,697.222,247.222,""""
954,-0.090,1.500,0.015,150.000,44.444,372.222,938.889,241.667,N
955,-0.100,-0.210,-0.355,22.222,55.556,347.222,675.000,263.889,""""
956,-0.095,1.585,-0.090,141.667,66.667,369.444,950.000,275.000,N
957,-0.210,-0.160,-0.385,180.556,111.111,111.111,711.111,238.889,""""
958,-0.095,1.465,-0.040,144.444,41.667,369.444,969.444,258.333,N
959,-0.210,-0.225,-0.380,180.556,102.778,111.111,733.333,236.111,""""
960,-0.095,1.605,-0.035,147.222,83.333,372.222,994.444,261.111,N
961,-0.180,-0.155,-0.370,197.222,105.556,388.889,658.333,336.111,""""
962,-0.110,1.550,-0.125,147.222,69.444,372.222,975.000,316.667,N
963,-0.220,-0.155,-0.350,180.556,97.222,405.556,705.556,269.444,""""
964,-0.045,1.720,0.090,155.556,41.667,369.444,1011.111,305.556,N
965,-0.135,-0.100,-0.260,197.222,102.778,113.889,683.333,327.778,""""
966,0.020,1.705,0.020,147.222,80.556,369.444,1011.111,327.778,N
967,-0.105,-0.015,-0.230,175.000,97.222,383.333,691.667,319.444,""""
968,0.055,1.810,0.220,147.222,41.667,369.444,1022.222,330.556,N
969,0.030,0.075,-0.180,197.222,105.556,111.111,672.222,350.000,""""
970,0.080,1.850,0.100,141.667,69.444,366.667,1027.778,355.556,N
971,0.005,0.035,-0.090,197.222,83.333,355.556,702.778,325.000,""""
972,0.150,1.810,0.155,163.889,69.444,372.222,1016.667,313.889,N
973,0.050,0.030,-0.100,177.778,100.000,186.111,725.000,291.667,""""
974,0.180,1.840,0.200,138.889,41.667,369.444,961.111,236.111,N
975,0.305,0.145,-0.125,197.222,102.778,252.778,658.333,302.778,""""
976,0.125,1.860,0.145,161.111,72.222,369.444,1005.556,347.222,N
977,0.125,0.090,-0.115,197.222,116.667,405.556,650.000,355.556,""""
978,0.150,1.725,0.135,150.000,44.444,372.222,938.889,288.889,N
979,0.100,-0.005,-0.145,19.444,58.333,319.444,725.000,213.889,""""
980,0.135,1.835,0.180,138.889,77.778,369.444,933.333,208.333,N
981,0.170,0.100,-0.105,197.222,100.000,386.111,658.333,275.000,""""
982,0.175,1.840,0.200,158.333,69.444,372.222,991.667,333.333,N
983,0.080,0.105,-0.040,175.000,111.111,383.333,711.111,280.556,""""
984,0.225,1.955,0.335,147.222,41.667,369.444,966.667,255.556,N
985,0.175,0.180,-0.015,197.222,94.444,102.778,675.000,291.667,""""
986,0.245,1.895,0.205,152.778,83.333,372.222,1011.111,336.111,N
987,0.065,0.085,-0.075,188.889,113.889,405.556,700.000,311.111,""""
988,0.195,1.920,0.200,127.778,38.889,366.667,1000.000,300.000,N
989,0.135,0.110,-0.085,197.222,116.667,400.000,705.556,294.444,""""
990,0.180,1.945,0.210,147.222,80.556,369.444,994.444,288.889,N
991,0.325,0.120,-0.105,197.222,105.556,108.333,636.111,358.333,""""
992,0.105,1.785,0.150,152.778,66.667,372.222,1022.222,386.111,N
993,0.000,0.025,-0.155,194.444,102.778,216.667,694.444,327.778,""""
994,0.130,1.870,0.155,147.222,41.667,369.444,952.778,258.333,N
995,0.085,-0.075,-0.145,38.889,36.111,347.222,688.889,263.889,""""
996,0.125,1.860,0.130,158.333,83.333,372.222,1013.889,325.000,N
997,0.005,0.040,-0.140,197.222,108.333,388.889,708.333,305.556,""""
998,0.130,1.825,0.110,152.778,44.444,372.222,1008.333,300.000,N
999,0.135,0.025,-0.130,191.667,105.556,405.556,705.556,302.778,""""
1000,0.115,1.835,0.135,152.778,72.222,372.222,958.333,252.778,N
1001,0.035,0.050,-0.170,197.222,100.000,380.556,686.111,272.222,""""
1002,0.090,1.770,0.025,147.222,44.444,369.444,997.222,311.111,N
1003,0.055,-0.080,-0.230,197.222,105.556,383.333,708.333,288.889,""""
1004,0.025,1.790,-0.035,150.000,83.333,369.444,950.000,241.667,N
1005,-0.040,0.005,-0.225,197.222,97.222,111.111,719.444,230.556,""""
1006,0.005,1.635,0.090,144.444,41.667,369.444,1019.444,300.000,N
1007,-0.045,-0.060,-0.305,194.444,102.778,113.889,680.556,338.889,""""
1008,-0.010,1.785,0.015,158.333,86.111,375.000,1025.000,344.444,N
1009,-0.090,-0.045,-0.230,197.222,111.111,377.778,716.667,308.333,""""
1010,0.045,1.665,0.075,147.222,80.556,369.444,977.778,261.111,N
1011,-0.070,-0.090,-0.225,177.778,97.222,386.111,725.000,252.778,""""
1012,0.085,1.775,0.105,150.000,41.667,369.444,994.444,269.444,N
1013,0.240,0.035,-0.150,197.222,108.333,116.667,669.444,325.000,""""
1014,0.080,1.780,0.100,144.444,75.000,366.667,961.111,291.667,N
1015,0.055,0.020,-0.180,197.222,111.111,394.444,691.667,269.444,""""
1016,0.135,1.725,0.135,141.667,41.667,369.444,983.333,291.667,N
1017,0.110,-0.010,-0.180,197.222,102.778,358.333,691.667,291.667,""""
1018,0.080,1.750,0.000,158.333,83.333,372.222,961.111,269.444,N
1019,0.030,0.025,-0.185,194.444,100.000,380.556,700.000,261.111,""""
1020,0.045,1.600,0.045,144.444,41.667,369.444,958.333,258.333,N
1021,0.010,-0.090,-0.250,197.222,94.444,108.333,697.222,261.111,""""
1022,0.005,1.740,-0.050,155.556,83.333,369.444,977.778,280.556,N
1023,0.110,-0.060,-0.260,197.222,97.222,386.111,661.111,316.667,""""
1024,-0.010,1.660,-0.070,152.778,41.667,369.444,980.556,319.444,N
1025,-0.105,-0.105,-0.285,194.444,111.111,380.556,736.111,244.444,""""
1026,0.020,1.865,0.035,136.111,80.556,369.444,963.889,227.778,N
1027,0.140,0.020,-0.155,197.222,116.667,388.889,672.222,291.667,""""
1028,0.115,1.790,0.110,158.333,83.333,372.222,986.111,313.889,N
1029,0.145,0.110,-0.110,197.222,97.222,102.778,688.889,297.222,""""
1030,0.150,1.915,0.125,144.444,77.778,363.889,980.556,291.667,N
1031,0.070,0.055,-0.145,197.222,105.556,113.889,708.333,272.222,""""
1032,0.130,1.855,0.155,147.222,41.667,369.444,994.444,286.111,N
1033,0.100,0.015,-0.155,197.222,113.889,397.222,700.000,294.444,""""
1034,0.100,1.920,0.140,144.444,77.778,366.667,963.889,263.889,N
1035,0.145,0.000,-0.120,197.222,94.444,208.333,688.889,275.000,""""
1036,0.115,1.725,0.040,144.444,41.667,369.444,963.889,275.000,N
1037,0.140,0.005,-0.185,197.222,105.556,386.111,683.333,280.556,""""
1038,0.045,1.805,0.085,147.222,69.444,372.222,988.889,305.556,N
1039,0.245,0.045,-0.130,197.222,102.778,352.778,661.111,327.778,""""
1040,0.085,1.770,0.085,147.222,80.556,369.444,952.778,291.667,N
1041,0.135,-0.040,-0.180,197.222,100.000,405.556,686.111,266.667,""""
1042,0.070,1.790,0.050,155.556,44.444,372.222,980.556,294.444,N
1043,0.275,0.000,-0.205,197.222,105.556,386.111,672.222,308.333,""""
1044,0.085,1.775,0.025,150.000,66.667,372.222,950.000,277.778,N
1045,0.060,0.055,-0.175,194.444,102.778,105.556,719.444,230.556,""""
1046,0.100,1.765,0.145,141.667,38.889,366.667,1005.556,286.111,N
1047,0.220,0.040,-0.215,197.222,100.000,313.889,658.333,347.222,""""
1048,0.050,1.930,-0.025,161.111,69.444,355.556,1005.556,347.222,N
1049,-0.055,-0.075,-0.240,186.111,94.444,377.778,713.889,291.667,""""
1050,0.005,1.730,0.005,144.444,38.889,369.444,972.222,258.333,N
1051,-0.075,-0.075,-0.275,197.222,102.778,250.000,716.667,255.556,""""
1052,-0.005,1.770,0.000,155.556,80.556,369.444,1027.778,311.111,N
1053,-0.010,-0.115,-0.225,197.222,94.444,344.444,680.556,347.222,""""
1054,0.030,1.725,-0.020,136.111,41.667,366.667,988.889,308.333,N
1055,-0.015,-0.040,-0.225,186.111,100.000,105.556,716.667,272.222,""""
1056,0.035,1.840,0.055,150.000,41.667,366.667,1019.444,302.778,N
1057,0.245,0.000,-0.230,194.444,100.000,383.333,655.556,363.889,""""
1058,0.015,1.705,0.030,150.000,80.556,369.444,1030.556,375.000,N
1059,-0.040,-0.050,-0.240,197.222,113.889,386.111,716.667,313.889,""""
1060,0.045,1.805,0.005,152.778,80.556,369.444,980.556,263.889,N
1061,0.040,-0.120,-0.220,197.222,44.444,263.889,686.111,294.444,""""
1062,0.035,1.655,0.075,147.222,41.667,369.444,977.778,291.667,N
1063,0.030,-0.120,-0.275,197.222,100.000,383.333,686.111,291.667,""""
1064,-0.015,1.770,-0.145,155.556,72.222,372.222,930.556,244.444,N
1065,0.105,-0.070,-0.280,197.222,94.444,102.778,702.778,227.778,""""
1066,-0.025,1.655,0.025,141.667,44.444,369.444,938.889,236.111,N
1067,-0.040,-0.120,-0.285,197.222,113.889,386.111,702.778,236.111,""""
1068,-0.025,1.760,-0.130,144.444,75.000,372.222,966.667,263.889,N
1069,-0.010,-0.185,-0.310,197.222,94.444,138.889,711.111,255.556,""""
1070,-0.040,1.590,-0.115,144.444,66.667,369.444,963.889,252.778,N
1071,-0.130,-0.125,-0.340,197.222,105.556,111.111,730.556,233.333,""""
1072,-0.075,1.615,-0.005,150.000,80.556,369.444,1013.889,283.333,N
1073,-0.050,-0.185,-0.355,197.222,102.778,380.556,680.556,333.333,""""
1074,-0.100,1.585,-0.130,152.778,72.222,372.222,975.000,294.444,N
1075,-0.080,-0.125,-0.335,197.222,100.000,386.111,722.222,252.778,""""
1076,-0.070,1.635,0.030,144.444,41.667,369.444,986.111,263.889,N
1077,0.060,-0.145,-0.350,197.222,105.556,113.889,661.111,325.000,""""
1078,-0.120,1.530,-0.145,144.444,80.556,369.444,1008.333,347.222,N
1079,0.065,-0.210,-0.425,197.222,105.556,113.889,677.778,330.556,""""
1080,-0.180,1.445,-0.030,152.778,41.667,369.444,958.333,280.556,N
1081,0.140,-0.180,-0.445,197.222,102.778,113.889,644.444,313.889,""""
1082,-0.195,1.520,-0.245,147.222,80.556,369.444,983.333,338.889,N
1083,-0.110,-0.320,-0.445,197.222,116.667,247.222,697.222,286.111,""""
1084,-0.185,1.445,-0.235,155.556,44.444,369.444,980.556,283.333,N
1085,-0.170,-0.250,-0.460,197.222,100.000,108.333,716.667,263.889,""""
1086,-0.185,1.570,-0.190,141.667,69.444,369.444,969.444,252.778,N
1087,0.020,-0.230,-0.420,197.222,113.889,377.778,669.444,300.000,""""
1088,-0.135,1.500,-0.150,158.333,72.222,372.222,1005.556,336.111,N
1089,-0.080,-0.175,-0.415,197.222,108.333,388.889,705.556,300.000,""""
1090,-0.180,1.575,-0.250,150.000,72.222,366.667,975.000,269.444,N
1091,-0.150,-0.295,-0.405,194.444,111.111,366.667,722.222,252.778,""""
1092,-0.160,1.475,-0.075,136.111,80.556,369.444,961.111,238.889,N
1093,-0.095,-0.155,-0.380,197.222,108.333,111.111,688.889,272.222,""""
1094,-0.090,1.525,-0.080,147.222,38.889,363.889,1013.889,325.000,N
1095,0.175,-0.080,-0.340,197.222,100.000,380.556,672.222,341.667,""""
1096,-0.070,1.655,-0.040,150.000,80.556,369.444,961.111,288.889,N
1097,0.155,-0.130,-0.315,197.222,100.000,100.000,661.111,300.000,""""
1098,-0.030,1.640,-0.005,150.000,44.444,372.222,1000.000,338.889,N
1099,0.110,-0.170,-0.270,197.222,58.333,347.222,675.000,325.000,""""
1100,0.000,1.685,-0.015,147.222,69.444,369.444,922.222,247.222,N
1101,0.220,-0.040,-0.250,183.333,108.333,108.333,636.111,286.111,""""
1102,0.040,1.680,0.035,150.000,44.444,372.222,975.000,338.889,N
1103,0.130,-0.115,-0.275,197.222,102.778,377.778,677.778,297.222,""""
1104,0.025,1.750,0.000,158.333,80.556,366.667,958.333,280.556,N
1105,0.180,-0.035,-0.230,197.222,102.778,288.889,683.333,275.000,""""
1106,0.035,1.655,0.030,144.444,38.889,369.444,938.889,255.556,N
1107,0.145,-0.050,-0.225,197.222,108.333,383.333,686.111,252.778,""""
1108,0.055,1.785,0.005,158.333,69.444,372.222,986.111,300.000,N
1109,0.305,0.010,-0.230,197.222,105.556,113.889,658.333,327.778,""""
1110,0.025,1.700,-0.025,150.000,80.556,369.444,952.778,294.444,N
1111,0.040,-0.065,-0.245,197.222,97.222,108.333,719.444,233.333,""""
1112,0.005,1.660,0.085,144.444,41.667,369.444,972.222,252.778,N
1113,0.255,-0.060,-0.320,197.222,111.111,113.889,644.444,327.778,""""
1114,-0.080,1.635,-0.150,150.000,83.333,372.222,958.333,313.889,N
1115,0.120,-0.120,-0.375,194.444,97.222,344.444,672.222,286.111,""""
1116,-0.095,1.605,0.010,150.000,41.667,369.444,944.444,272.222,N
1117,0.165,-0.140,-0.350,197.222,97.222,386.111,652.778,291.667,""""
1118,-0.045,1.770,-0.060,144.444,69.444,372.222,988.889,336.111,N
1119,0.090,-0.140,-0.240,197.222,113.889,400.000,680.556,308.333,""""
1120,0.020,1.705,0.050,150.000,41.667,369.444,933.333,252.778,N
1121,0.030,-0.060,-0.265,197.222,116.667,405.556,694.444,238.889,""""
1122,0.025,1.775,0.035,147.222,80.556,372.222,997.222,302.778,N
1123,0.110,-0.050,-0.235,197.222,105.556,152.778,686.111,311.111,""""
1124,0.030,1.750,-0.085,150.000,66.667,372.222,980.556,294.444,N
1125,-0.005,-0.060,-0.245,194.444,116.667,294.444,747.222,233.333,""""
1126,0.015,1.845,0.030,150.000,41.667,366.667,1005.556,258.333,N
1127,0.115,-0.050,-0.235,197.222,105.556,380.556,697.222,308.333,""""
1128,0.060,1.770,-0.040,155.556,83.333,366.667,1025.000,327.778,N
1129,-0.005,-0.120,-0.200,30.556,38.889,333.333,752.778,272.222,""""
1130,0.090,1.775,0.030,150.000,41.667,369.444,983.333,230.556,N
1131,0.095,-0.055,-0.230,194.444,94.444,377.778,725.000,258.333,""""
1132,0.065,1.855,0.030,138.889,72.222,369.444,991.667,266.667,N
1133,0.255,0.035,-0.185,197.222,105.556,388.889,663.889,327.778,""""
1134,0.090,1.765,0.085,158.333,41.667,369.444,972.222,308.333,N
1135,0.205,0.020,-0.210,197.222,100.000,316.667,691.667,280.556,""""
1136,0.060,1.860,0.035,144.444,66.667,369.444,947.222,255.556,N
1137,0.220,0.010,-0.220,197.222,105.556,111.111,658.333,288.889,""""
1138,0.050,1.790,0.000,147.222,80.556,369.444,991.667,333.333,N
1139,0.150,-0.035,-0.230,197.222,116.667,405.556,688.889,302.778,""""
1140,0.045,1.775,0.050,152.778,41.667,369.444,988.889,300.000,N
1141,0.310,-0.050,-0.215,191.667,113.889,113.889,644.444,344.444,""""
1142,0.025,1.750,-0.045,147.222,80.556,369.444,1002.778,358.333,N
1143,0.170,-0.010,-0.230,197.222,102.778,383.333,683.333,319.444,""""
1144,0.025,1.740,0.010,152.778,44.444,366.667,1000.000,316.667,N
1145,0.110,-0.090,-0.260,197.222,108.333,388.889,700.000,300.000,""""
1146,0.020,1.830,-0.060,147.222,80.556,369.444,944.444,244.444,N
1147,0.095,-0.160,-0.275,197.222,52.778,327.778,694.444,250.000,""""
1148,-0.055,1.675,-0.095,158.333,66.667,372.222,975.000,280.556,N
1149,0.045,-0.110,-0.335,197.222,108.333,386.111,686.111,288.889,""""
1150,-0.055,1.775,-0.010,144.444,41.667,366.667,969.444,283.333,N
1151,0.280,0.010,-0.205,194.444,113.889,397.222,691.667,277.778,""""
1152,0.080,1.800,0.065,144.444,80.556,369.444,958.333,266.667,N
1153,0.030,-0.090,-0.185,194.444,86.111,366.667,702.778,255.556,""""
1154,0.065,1.705,0.090,158.333,44.444,369.444,972.222,269.444,N
1155,0.110,-0.035,-0.205,197.222,102.778,113.889,719.444,252.778,""""
1156,0.060,1.810,-0.020,144.444,83.333,372.222,966.667,247.222,N
1157,0.215,0.055,-0.160,197.222,100.000,105.556,669.444,297.222,""""
1158,0.095,1.805,0.070,150.000,41.667,369.444,1022.222,352.778,N
1159,0.075,-0.090,-0.170,33.333,44.444,322.222,708.333,313.889,""""
1160,0.090,1.865,0.010,141.667,80.556,369.444,977.778,269.444,N
1161,0.140,0.010,-0.180,197.222,102.778,355.556,711.111,266.667,""""
1162,0.075,1.720,0.095,155.556,66.667,369.444,1008.333,297.222,N
1163,0.035,0.000,-0.170,197.222,113.889,386.111,725.000,283.333,""""
1164,0.105,1.850,0.060,147.222,83.333,372.222,1055.556,330.556,N
1165,0.100,-0.075,-0.200,197.222,55.556,338.889,711.111,344.444,""""
1166,0.060,1.800,0.145,152.778,66.667,372.222,983.333,272.222,N
1167,0.120,-0.005,-0.165,197.222,105.556,383.333,694.444,288.889,""""
1168,0.115,1.865,0.155,138.889,41.667,366.667,986.111,291.667,N
1169,0.460,0.080,-0.130,197.222,94.444,102.778,655.556,330.556,""""
1170,0.145,1.915,0.020,152.778,72.222,363.889,955.556,300.000,N
1171,0.385,0.065,-0.090,197.222,113.889,397.222,691.667,263.889,""""
1172,0.170,1.870,0.215,152.778,41.667,369.444,936.111,244.444,N
1173,0.295,0.055,-0.115,197.222,102.778,111.111,680.556,255.556,""""
1174,0.130,1.950,0.010,152.778,83.333,372.222,986.111,305.556,N
1175,0.275,0.060,-0.110,194.444,116.667,400.000,697.222,288.889,""""
1176,0.100,1.830,-0.020,150.000,72.222,363.889,1011.111,313.889,N
1177,-0.005,-0.050,-0.180,188.889,116.667,402.778,752.778,258.333,""""
1178,0.065,1.855,0.095,141.667,38.889,366.667,1011.111,258.333,N
1179,0.215,-0.010,-0.165,197.222,105.556,144.444,677.778,333.333,""""
1180,0.080,1.870,0.050,150.000,83.333,372.222,1002.778,325.000,N
1181,0.100,1.655,0.350,155.556,66.667,369.444,875.000,127.778,R
1182,0.045,1.640,0.310,155.556,63.889,369.444,827.778,47.222,R
1183,0.045,1.685,0.160,163.889,72.222,372.222,975.000,147.222,R
1184,0.100,1.715,0.285,166.667,69.444,369.444,950.000,25.000,R
1185,0.125,1.680,0.190,152.778,66.667,366.667,886.111,63.889,R
1186,0.065,1.705,0.200,152.778,69.444,372.222,1058.333,172.222,R
1187,0.080,1.680,0.210,158.333,72.222,372.222,1069.444,11.111,R
1188,0.075,1.640,0.120,158.333,72.222,369.444,1005.556,63.889,R
1189,0.035,1.750,0.155,158.333,66.667,369.444,1108.333,102.778,R
1190,0.045,1.705,0.210,155.556,66.667,369.444,1005.556,102.778,R
1191,-0.020,1.615,0.080,155.556,69.444,372.222,983.333,22.222,R
1192,-0.050,1.555,0.125,161.111,69.444,372.222,1022.222,38.889,R
1193,-0.050,1.550,0.130,150.000,66.667,369.444,958.333,63.889,R
1194,-0.100,1.435,0.020,158.333,69.444,369.444,958.333,0.000,R
1195,-0.115,1.500,0.070,150.000,66.667,372.222,1000.000,41.667,R
1196,-0.130,1.505,0.015,158.333,69.444,372.222,955.556,44.444,R
1197,-0.105,1.480,0.015,161.111,69.444,372.222,925.000,30.556,R
1198,-0.105,1.510,0.040,147.222,63.889,369.444,944.444,19.444,R
1199,-0.050,1.525,0.085,152.778,66.667,369.444,938.889,5.556,R
1200,-0.075,1.450,0.030,163.889,69.444,372.222,930.556,8.333,R
1201,-0.080,1.480,0.065,150.000,66.667,369.444,941.667,11.111,R
1202,-0.100,1.485,0.085,152.778,66.667,369.444,955.556,13.889,R
1203,-0.075,1.440,0.030,158.333,66.667,366.667,886.111,69.444,R
1204,-0.065,1.485,0.085,152.778,66.667,372.222,994.444,108.333,R
1205,-0.060,1.515,0.085,155.556,66.667,369.444,983.333,11.111,R
1206,-0.025,1.515,0.065,163.889,63.889,363.889,958.333,25.000,R
1207,-0.060,1.560,0.080,155.556,66.667,366.667,969.444,11.111,R
1208,-0.015,1.560,0.120,150.000,63.889,369.444,975.000,5.556,R
1209,-0.030,1.525,0.050,161.111,69.444,366.667,919.444,55.556,R
1210,-0.065,1.475,0.105,161.111,69.444,372.222,1005.556,86.111,R
1211,-0.015,1.520,0.010,158.333,69.444,366.667,994.444,11.111,R
1212,-0.040,1.425,0.060,152.778,66.667,372.222,958.333,36.111,R
1213,-0.050,1.495,0.095,161.111,63.889,361.111,983.333,25.000,R
1214,-0.025,1.520,0.060,155.556,66.667,369.444,969.444,13.889,R
1215,0.005,1.470,0.105,169.444,69.444,372.222,908.333,61.111,R
1216,0.000,1.505,0.130,152.778,66.667,369.444,936.111,27.778,R
1217,0.000,1.500,0.075,155.556,72.222,369.444,908.333,27.778,R
1218,-0.010,1.410,0.080,155.556,66.667,361.111,883.333,25.000,R
1219,-0.020,1.455,0.145,161.111,66.667,366.667,891.667,8.333,R
1220,-0.015,1.430,0.110,150.000,69.444,369.444,916.667,25.000,R
1221,0.030,1.465,0.055,163.889,69.444,366.667,894.444,22.222,R
1222,0.000,1.470,0.170,150.000,63.889,369.444,975.000,80.556,R
1223,0.010,1.535,0.105,147.222,66.667,358.333,1027.778,52.778,R
1224,0.060,1.465,0.085,163.889,69.444,369.444,961.111,66.667,R
1225,-0.025,1.470,0.130,147.222,63.889,366.667,983.333,22.222,R
1226,0.035,1.570,0.170,166.667,66.667,369.444,1019.444,36.111,R
1227,0.065,1.580,0.205,155.556,63.889,366.667,955.556,63.889,R
1228,0.055,1.590,0.210,155.556,66.667,369.444,966.667,11.111,R
1229,0.060,1.555,0.230,158.333,66.667,369.444,1025.000,58.333,R
1230,0.055,1.500,0.145,147.222,63.889,355.556,922.222,102.778,R
1231,0.015,1.515,0.185,166.667,66.667,369.444,966.667,44.444,R
1232,0.020,1.560,0.185,147.222,66.667,369.444,1005.556,38.889,R
1233,0.070,1.490,0.140,155.556,69.444,366.667,947.222,58.333,R
1234,0.015,1.480,0.160,152.778,69.444,369.444,994.444,47.222,R
1235,0.015,1.500,0.170,158.333,66.667,369.444,1055.556,61.111,R
1236,0.010,1.490,0.155,155.556,66.667,369.444,936.111,119.444,R
1237,-0.020,1.495,0.180,147.222,69.444,372.222,958.333,22.222,R
1238,0.015,1.520,0.225,163.889,72.222,361.111,938.889,19.444,R
1239,0.045,1.510,0.200,150.000,66.667,369.444,875.000,63.889,R
1240,-0.020,1.455,0.155,150.000,69.444,369.444,930.556,55.556,R
1241,0.025,1.505,0.260,158.333,69.444,366.667,955.556,25.000,R
1242,0.045,1.445,0.225,161.111,66.667,366.667,861.111,94.444,R
1243,0.000,1.455,0.235,155.556,66.667,369.444,966.667,105.556,R
1244,0.025,1.495,0.325,163.889,66.667,369.444,1005.556,38.889,R
1245,0.035,1.430,0.180,144.444,66.667,363.889,908.333,97.222,R
1246,-0.020,1.380,0.200,163.889,69.444,372.222,977.778,69.444,R
1247,0.000,1.515,0.280,163.889,69.444,369.444,1058.333,80.556,R
1248,0.000,1.495,0.195,152.778,66.667,355.556,963.889,94.444,R
1249,-0.005,1.385,0.185,169.444,69.444,372.222,936.111,27.778,R
1250,-0.030,1.375,0.195,150.000,63.889,369.444,975.000,38.889,R
1251,-0.040,1.390,0.180,152.778,66.667,355.556,955.556,19.444,R
1252,-0.030,1.285,0.180,166.667,66.667,366.667,938.889,16.667,R
1253,-0.045,1.345,0.200,147.222,63.889,369.444,972.222,33.333,R
1254,-0.050,1.445,0.185,155.556,66.667,369.444,994.444,22.222,R
1255,-0.090,1.365,0.130,163.889,69.444,372.222,933.333,61.111,R
1256,-0.055,1.425,0.185,166.667,63.889,369.444,1030.556,97.222,R
1257,-0.060,1.375,0.095,163.889,69.444,369.444,991.667,38.889,R
1258,-0.095,1.290,0.125,150.000,66.667,369.444,952.778,38.889,R
1259,-0.100,1.315,0.215,152.778,66.667,369.444,936.111,16.667,R
1260,-0.065,1.375,0.145,155.556,69.444,352.778,919.444,16.667,R
1261,-0.075,1.385,0.135,166.667,69.444,369.444,897.222,22.222,R
1262,-0.105,1.365,0.205,150.000,66.667,369.444,941.667,44.444,R
1263,-0.085,1.335,0.195,152.778,66.667,369.444,944.444,2.778,R
1264,-0.065,1.340,0.125,152.778,66.667,369.444,880.556,63.889,R
1265,-0.110,1.330,0.205,161.111,63.889,361.111,902.778,22.222,R
1266,-0.135,1.355,0.135,158.333,66.667,363.889,936.111,33.333,R
1267,-0.155,1.355,0.075,161.111,69.444,369.444,902.778,33.333,R
1268,-0.155,1.335,0.170,150.000,63.889,363.889,930.556,27.778,R
1269,-0.115,1.340,0.150,158.333,69.444,369.444,1027.778,97.222,R
1270,-0.100,1.300,0.160,166.667,66.667,358.333,975.000,52.778,R
1271,-0.145,1.265,0.065,155.556,66.667,369.444,900.000,75.000,R
1272,-0.160,1.270,0.135,166.667,72.222,363.889,963.889,63.889,R
1273,-0.145,1.295,0.120,155.556,69.444,363.889,963.889,0.000,R
1274,-0.150,1.230,0.095,150.000,63.889,366.667,863.889,100.000,R
1275,-0.160,1.225,0.140,163.889,69.444,372.222,972.222,108.333,R
1276,-0.155,1.300,0.170,152.778,63.889,369.444,952.778,19.444,R
1277,-0.100,1.290,0.175,150.000,66.667,369.444,869.444,83.333,R
1278,-0.130,1.240,0.155,161.111,69.444,372.222,863.889,5.556,R
1279,-0.155,1.280,0.195,161.111,63.889,355.556,916.667,52.778,R
1280,-0.120,1.320,0.245,152.778,63.889,366.667,883.333,33.333,R
1281,-0.080,1.310,0.135,158.333,72.222,369.444,908.333,25.000,R
1282,-0.110,1.320,0.210,161.111,69.444,366.667,963.889,55.556,R
1283,-0.125,1.355,0.160,144.444,66.667,369.444,988.889,25.000,R
1284,-0.125,1.325,0.125,163.889,69.444,372.222,933.333,55.556,R
1285,-0.135,1.260,0.190,152.778,63.889,366.667,1047.222,113.889,R
1286,-0.135,1.290,0.170,144.444,66.667,366.667,975.000,72.222,R
1287,-0.090,1.265,0.200,163.889,69.444,366.667,972.222,2.778,R
1288,-0.115,1.275,0.210,147.222,61.111,369.444,975.000,2.778,R
1289,-0.115,1.345,0.175,163.889,66.667,355.556,969.444,5.556,R
1290,-0.120,1.285,0.150,158.333,69.444,369.444,916.667,52.778,R
1291,-0.165,1.275,0.190,158.333,69.444,361.111,972.222,55.556,R
1292,-0.145,1.325,0.125,161.111,69.444,369.444,969.444,2.778,R
1293,-0.165,1.270,0.125,152.778,66.667,369.444,947.222,22.222,R
1294,-0.150,1.320,0.160,152.778,72.222,369.444,975.000,27.778,R
1295,-0.170,1.280,0.155,147.222,63.889,366.667,966.667,8.333,R
1296,-0.150,1.255,0.100,169.444,69.444,372.222,919.444,47.222,R
1297,-0.185,1.305,0.145,166.667,69.444,361.111,963.889,44.444,R
1298,-0.190,1.275,0.115,158.333,69.444,361.111,950.000,13.889,R
1299,-0.200,1.195,0.050,152.778,69.444,372.222,927.778,22.222,R
1300,-0.210,1.190,0.125,161.111,69.444,361.111,944.444,16.667,R
1301,-0.225,1.315,0.095,144.444,69.444,363.889,975.000,30.556,R
1302,-0.205,1.270,0.060,166.667,66.667,361.111,969.444,5.556,R
1303,-0.235,1.220,0.105,147.222,63.889,344.444,905.556,63.889,R
1304,-0.185,1.305,0.145,166.667,69.444,372.222,941.667,36.111,R
1305,-0.125,1.370,0.180,161.111,72.222,372.222,994.444,52.778,R
1306,-0.095,1.335,0.205,155.556,63.889,361.111,877.778,116.667,R
1307,-0.110,1.405,0.220,155.556,72.222,372.222,991.667,113.889,R
1308,-0.080,1.390,0.255,147.222,61.111,366.667,1069.444,77.778,R
1309,-0.100,1.395,0.235,150.000,66.667,369.444,936.111,133.333,R
1310,-0.090,1.440,0.280,163.889,69.444,352.778,1088.889,152.778,R
1311,-0.045,1.440,0.255,147.222,66.667,352.778,1033.333,55.556,R
1312,-0.085,1.335,0.170,155.556,63.889,363.889,950.000,83.333,R
1313,-0.095,1.335,0.235,158.333,69.444,361.111,941.667,8.333,R
1314,-0.145,1.335,0.235,158.333,66.667,352.778,941.667,0.000,R
1315,-0.145,1.290,0.200,163.889,66.667,372.222,880.556,61.111,R
1316,-0.095,1.420,0.295,158.333,69.444,369.444,1011.111,130.556,R
1317,-0.050,1.495,0.330,163.889,69.444,355.556,1011.111,0.000,R
1318,0.005,1.450,0.330,144.444,66.667,369.444,944.444,66.667,R
1319,0.005,1.510,0.420,169.444,72.222,369.444,1041.667,97.222,R
1320,0.060,1.550,0.395,141.667,63.889,350.000,1011.111,30.556,R
1321,0.035,1.465,0.335,163.889,72.222,372.222,952.778,58.333,R
1322,0.020,1.505,0.400,158.333,66.667,347.222,1025.000,72.222,R
1323,0.060,1.525,0.410,152.778,69.444,369.444,958.333,66.667,R
1324,0.115,1.495,0.375,161.111,72.222,369.444,916.667,41.667,R
1325,0.055,1.520,0.430,144.444,63.889,355.556,947.222,30.556,R
1326,0.060,1.525,0.420,147.222,66.667,372.222,913.889,33.333,R
1327,0.050,1.495,0.365,166.667,72.222,369.444,938.889,25.000,R
1328,0.010,1.480,0.385,150.000,63.889,352.778,941.667,2.778,R
1329,-0.010,1.405,0.365,163.889,69.444,363.889,930.556,11.111,R
1330,0.040,1.480,0.420,152.778,66.667,369.444,1000.000,69.444,R
1331,0.010,1.485,0.300,152.778,63.889,366.667,983.333,16.667,R
1332,-0.030,1.420,0.310,155.556,66.667,366.667,947.222,36.111,R
1333,-0.055,1.340,0.260,152.778,63.889,369.444,1030.556,83.333,R
1334,-0.090,1.330,0.240,158.333,69.444,369.444,972.222,58.333,R
1335,-0.120,1.300,0.160,147.222,63.889,361.111,911.111,61.111,R
1336,-0.155,1.260,0.220,169.444,69.444,372.222,1011.111,100.000,R
1337,-0.140,1.305,0.165,147.222,66.667,361.111,1011.111,0.000,R
1338,-0.150,1.295,0.175,161.111,66.667,369.444,963.889,47.222,R
1339,-0.130,1.330,0.225,161.111,66.667,352.778,1086.111,122.222,R
1340,-0.155,1.315,0.170,161.111,69.444,369.444,1041.667,44.444,R
1341,-0.140,1.305,0.130,150.000,66.667,369.444,994.444,47.222,R
1342,-0.140,1.335,0.210,150.000,66.667,369.444,1005.556,11.111,R
1343,-0.170,1.230,0.155,152.778,63.889,369.444,955.556,50.000,R
1344,-0.160,1.190,0.180,155.556,66.667,358.333,941.667,13.889,R
1345,0.060,1.445,0.555,138.889,72.222,369.444,875.000,66.667,R
1346,0.380,1.445,0.690,152.778,66.667,352.778,894.444,19.444,R
1347,0.295,1.340,0.395,155.556,69.444,372.222,847.222,47.222,R
1348,0.060,0.015,-0.125,197.222,105.556,125.000,705.556,141.667,""""
1349,-0.065,1.210,0.010,141.667,66.667,369.444,947.222,241.667,R
1350,-0.225,-0.265,-0.410,197.222,100.000,100.000,686.111,261.111,""""
1351,-0.165,1.095,-0.030,158.333,69.444,369.444,1000.000,313.889,R
1352,-0.360,-0.275,-0.475,108.333,100.000,111.111,647.222,352.778,""""
1353,-0.305,1.020,-0.220,144.444,69.444,372.222,966.667,319.444,R
1354,-0.450,-0.390,-0.555,111.111,102.778,102.778,672.222,294.444,""""
1355,-0.305,1.120,-0.030,152.778,69.444,372.222,977.778,305.556,R
1356,-0.300,-0.400,-0.485,27.778,44.444,336.111,672.222,305.556,""""
1357,-0.210,1.190,-0.020,147.222,63.889,369.444,986.111,313.889,R
1358,-0.320,-0.270,-0.430,144.444,94.444,111.111,697.222,288.889,""""
1359,-0.160,1.265,0.160,155.556,69.444,363.889,958.333,261.111,R
1360,-0.255,-0.260,-0.365,61.111,111.111,152.778,700.000,258.333,""""
1361,-0.140,1.255,0.095,147.222,66.667,347.222,1008.333,308.333,R
1362,-0.280,-0.140,-0.355,72.222,111.111,388.889,691.667,316.667,""""
1363,-0.130,1.300,0.120,155.556,69.444,363.889,994.444,302.778,R
1364,-0.235,-0.165,-0.365,61.111,102.778,113.889,666.667,327.778,""""
1365,-0.160,1.225,0.150,152.778,63.889,369.444,997.222,330.556,R
1366,-0.295,-0.235,-0.390,63.889,108.333,355.556,708.333,288.889,""""
1367,-0.150,1.355,0.165,152.778,69.444,372.222,975.000,266.667,R
1368,-0.130,-0.285,-0.365,27.778,50.000,91.667,697.222,277.778,""""
1369,-0.175,1.240,0.090,144.444,72.222,361.111,930.556,233.333,R
1370,-0.325,-0.280,-0.400,111.111,116.667,375.000,744.444,186.111,""""
1371,-0.165,1.360,0.165,141.667,66.667,366.667,991.667,247.222,R
1372,-0.245,-0.190,-0.400,197.222,105.556,111.111,638.889,352.778,""""
1373,-0.185,1.335,0.140,152.778,69.444,372.222,975.000,336.111,R
1374,-0.330,-0.220,-0.405,77.778,108.333,108.333,688.889,286.111,""""
1375,-0.150,1.340,0.190,152.778,63.889,361.111,1016.667,327.778,R
1376,-0.280,-0.235,-0.430,58.333,108.333,122.222,672.222,344.444,""""
1377,-0.195,1.320,0.110,147.222,66.667,366.667,977.778,305.556,R
1378,-0.305,-0.175,-0.400,197.222,102.778,113.889,672.222,305.556,""""
1379,-0.200,1.265,0.040,150.000,72.222,369.444,969.444,297.222,R
1380,-0.345,-0.335,-0.515,58.333,102.778,150.000,680.556,288.889,""""
1381,-0.280,1.205,0.090,144.444,63.889,369.444,958.333,277.778,R
1382,-0.400,-0.415,-0.535,180.556,108.333,213.889,658.333,300.000,""""
1383,-0.335,1.165,-0.050,152.778,69.444,369.444,919.444,261.111,R
1384,-0.370,-0.280,-0.470,194.444,116.667,375.000,680.556,238.889,""""
1385,-0.140,1.325,0.265,150.000,69.444,369.444,936.111,255.556,R
1386,-0.235,-0.155,-0.280,58.333,113.889,377.778,666.667,269.444,""""
1387,-0.045,1.515,0.245,152.778,66.667,369.444,952.778,286.111,R
1388,-0.170,-0.045,-0.275,186.111,113.889,113.889,686.111,266.667,""""
1389,-0.020,1.515,0.325,147.222,66.667,366.667,936.111,250.000,R
1390,-0.070,-0.025,-0.235,197.222,105.556,116.667,652.778,283.333,""""
1391,0.005,1.480,0.315,152.778,69.444,372.222,966.667,313.889,R
1392,-0.145,-0.110,-0.255,72.222,108.333,380.556,669.444,297.222,""""
1393,-0.005,1.485,0.295,144.444,63.889,366.667,938.889,269.444,R
1394,-0.195,-0.080,-0.300,197.222,102.778,113.889,694.444,244.444,""""
1395,-0.120,1.395,0.105,155.556,72.222,372.222,997.222,302.778,R
1396,-0.305,-0.290,-0.455,122.222,113.889,397.222,716.667,280.556,""""
1397,-0.190,1.390,0.175,152.778,66.667,363.889,1019.444,302.778,R
1398,-0.160,1.330,0.290,155.556,66.667,363.889,855.556,163.889,R
1399,-0.195,1.275,0.260,158.333,72.222,372.222,858.333,2.778,R
1400,-0.230,1.320,0.205,161.111,66.667,369.444,1019.444,161.111,R
1401,-0.180,1.375,0.245,150.000,69.444,369.444,1041.667,22.222,R
1402,-0.170,1.360,0.190,169.444,69.444,372.222,994.444,47.222,R
1403,-0.175,1.390,0.160,166.667,72.222,363.889,1188.889,194.444,R
1404,-0.195,1.380,0.125,152.778,69.444,369.444,1091.667,97.222,R
1405,-0.225,1.400,0.195,177.778,69.444,372.222,1025.000,66.667,R
1406,-0.250,1.325,0.180,152.778,66.667,372.222,1025.000,0.000,R
1407,-0.230,1.390,0.200,144.444,69.444,369.444,941.667,83.333,R
1408,-0.195,1.320,0.150,158.333,69.444,361.111,986.111,44.444,R
1409,-0.185,1.390,0.180,141.667,63.889,366.667,975.000,11.111,R
1410,-0.210,1.375,0.250,155.556,66.667,361.111,961.111,13.889,R
1411,-0.165,1.415,0.135,144.444,69.444,369.444,913.889,47.222,R
1412,-0.175,1.335,0.285,155.556,66.667,369.444,905.556,8.333,R
1413,-0.170,1.385,0.185,150.000,69.444,372.222,886.111,19.444,R
1414,-0.140,1.395,0.340,147.222,66.667,369.444,975.000,88.889,R
1415,-0.110,1.375,0.355,155.556,72.222,372.222,947.222,27.778,R
1416,-0.065,1.370,0.235,152.778,63.889,369.444,930.556,16.667,R
1417,-0.145,1.340,0.295,166.667,69.444,372.222,1013.889,83.333,R
1418,-0.145,1.405,0.325,138.889,66.667,366.667,994.444,19.444,R
1419,-0.135,1.370,0.195,166.667,69.444,372.222,941.667,52.778,R
1420,-0.175,1.325,0.270,163.889,69.444,369.444,997.222,55.556,R
1421,-0.205,1.335,0.205,144.444,63.889,369.444,933.333,63.889,R
1422,-0.200,1.230,0.245,158.333,72.222,375.000,897.222,36.111,R
1423,-0.170,1.370,0.310,155.556,69.444,361.111,975.000,77.778,R
1424,-0.220,1.285,0.070,136.111,69.444,363.889,883.333,91.667,R
1425,-0.295,1.105,0.075,163.889,69.444,363.889,902.778,19.444,R
1426,-0.240,1.230,0.380,152.778,72.222,369.444,888.889,13.889,R
1427,-0.145,-0.020,-0.160,61.111,100.000,250.000,647.222,241.667,""""
1428,0.140,1.525,0.385,136.111,69.444,372.222,994.444,347.222,R
1429,0.285,0.120,-0.110,197.222,100.000,100.000,666.667,327.778,""""
1430,0.015,1.470,0.135,152.778,66.667,372.222,983.333,316.667,R
1431,-0.160,-0.210,-0.410,197.222,100.000,108.333,663.889,319.444,""""
1432,-0.210,1.345,-0.050,163.889,69.444,372.222,966.667,302.778,R
1433,-0.390,-0.385,-0.510,161.111,105.556,386.111,694.444,272.222,""""
1434,-0.260,1.350,-0.005,141.667,69.444,366.667,930.556,236.111,R
1435,-0.345,-0.335,-0.490,175.000,102.778,125.000,675.000,255.556,""""
1436,-0.260,1.345,0.060,152.778,69.444,372.222,972.222,297.222,R
1437,-0.350,-0.250,-0.435,94.444,105.556,347.222,658.333,313.889,""""
1438,-0.165,1.380,0.100,155.556,69.444,372.222,955.556,297.222,R
1439,-0.250,-0.180,-0.390,108.333,97.222,111.111,688.889,266.667,""""
1440,-0.125,1.440,0.225,147.222,69.444,372.222,938.889,250.000,R
1441,-0.255,-0.160,-0.335,197.222,97.222,108.333,666.667,272.222,""""
1442,-0.100,1.490,0.155,152.778,63.889,369.444,977.778,311.111,R
1443,-0.220,-0.110,-0.340,86.111,111.111,122.222,694.444,283.333,""""
1444,-0.020,1.570,0.305,136.111,66.667,369.444,977.778,283.333,R
1445,-0.135,-0.095,-0.305,127.778,100.000,113.889,697.222,280.556,""""
1446,-0.050,1.525,0.260,152.778,69.444,369.444,988.889,291.667,R
1447,-0.210,-0.205,-0.315,125.000,116.667,308.333,702.778,286.111,""""
1448,-0.085,1.450,0.175,136.111,66.667,369.444,966.667,263.889,R
1449,-0.195,-0.100,-0.350,122.222,102.778,388.889,705.556,261.111,""""
1450,-0.075,1.520,0.250,144.444,69.444,372.222,988.889,283.333,R
1451,-0.210,-0.105,-0.335,197.222,94.444,105.556,658.333,330.556,""""
1452,-0.060,1.475,0.270,147.222,66.667,372.222,1002.778,344.444,R
1453,-0.185,-0.090,-0.320,83.333,113.889,375.000,669.444,333.333,""""
1454,-0.090,1.440,0.225,150.000,69.444,372.222,911.111,241.667,R
1455,-0.115,-0.145,-0.345,197.222,105.556,183.333,652.778,258.333,""""
1456,-0.085,1.455,0.190,161.111,69.444,369.444,955.556,302.778,R
1457,-0.195,-0.130,-0.385,197.222,105.556,108.333,663.889,291.667,""""
1458,-0.145,1.500,0.145,152.778,72.222,372.222,963.889,300.000,R
1459,-0.265,-0.165,-0.380,197.222,113.889,388.889,705.556,258.333,""""
1460,-0.070,1.455,0.185,136.111,63.889,366.667,969.444,263.889,R
1461,-0.225,-0.150,-0.360,125.000,111.111,363.889,697.222,272.222,""""
1462,-0.085,1.635,0.045,152.778,72.222,372.222,1008.333,311.111,N
1463,-0.240,-0.200,-0.335,180.556,113.889,375.000,744.444,263.889,""""
1464,-0.085,1.550,-0.005,141.667,80.556,369.444,977.778,233.333,N
1465,-0.205,-0.175,-0.310,197.222,113.889,394.444,769.444,208.333,""""
1466,0.020,1.795,0.215,150.000,83.333,372.222,1033.333,263.889,N
1467,-0.080,-0.040,-0.125,197.222,91.667,386.111,700.000,333.333,""""
1468,0.125,1.730,0.170,152.778,69.444,372.222,1008.333,308.333,N
1469,0.000,0.080,-0.120,175.000,100.000,105.556,738.889,269.444,""""
1470,0.135,1.745,0.245,150.000,83.333,366.667,1013.889,275.000,N
1471,-0.035,0.005,-0.145,194.444,102.778,116.667,672.222,341.667,""""
1472,0.035,1.685,0.050,144.444,66.667,372.222,1016.667,344.444,N
1473,-0.080,0.000,-0.235,197.222,100.000,383.333,683.333,333.333,""""
1474,-0.005,1.690,0.135,152.778,72.222,366.667,975.000,291.667,N
1475,-0.055,-0.075,-0.265,197.222,108.333,138.889,652.778,322.222,""""
1476,-0.035,1.640,0.005,147.222,83.333,372.222,991.667,338.889,N
1477,-0.160,-0.130,-0.305,197.222,105.556,377.778,666.667,325.000,""""
1478,-0.050,1.550,0.020,150.000,66.667,369.444,963.889,297.222,N
1479,-0.090,-0.175,-0.335,197.222,116.667,377.778,675.000,288.889,""""
1480,-0.085,1.630,-0.040,147.222,77.778,358.333,952.778,277.778,N
1481,-0.220,-0.130,-0.340,183.333,97.222,316.667,683.333,269.444,""""
1482,-0.055,1.580,0.000,150.000,47.222,372.222,1000.000,316.667,N
1483,-0.105,-0.070,-0.305,197.222,102.778,350.000,675.000,325.000,""""
1484,-0.030,1.675,0.070,152.778,83.333,372.222,969.444,294.444,N
1485,-0.165,-0.140,-0.295,197.222,108.333,297.222,697.222,272.222,""""
1486,-0.040,1.570,0.035,147.222,83.333,372.222,983.333,286.111,N
1487,-0.085,-0.170,-0.325,197.222,97.222,105.556,652.778,330.556,""""
1488,-0.050,1.675,0.035,161.111,75.000,369.444,1005.556,352.778,N
1489,-0.070,-0.185,-0.295,33.333,50.000,338.889,697.222,308.333,""""
1490,-0.030,1.635,0.065,147.222,75.000,369.444,950.000,252.778,N
1491,-0.130,-0.085,-0.265,197.222,113.889,113.889,663.889,286.111,""""
1492,0.000,1.685,0.095,144.444,72.222,369.444,1030.556,366.667,N
1493,0.070,-0.020,-0.240,194.444,100.000,380.556,652.778,377.778,""""
1494,0.000,1.725,0.080,147.222,77.778,369.444,1016.667,363.889,N
1495,-0.125,-0.075,-0.265,194.444,111.111,225.000,722.222,294.444,""""
1496,-0.045,1.650,0.045,130.556,66.667,366.667,994.444,272.222,N
1497,0.060,-0.060,-0.295,197.222,111.111,111.111,650.000,344.444,""""
1498,-0.085,1.645,-0.030,161.111,66.667,372.222,1036.111,386.111,N
1499,-0.195,-0.120,-0.305,111.111,102.778,113.889,697.222,338.889,""""
1500,-0.065,1.550,-0.090,144.444,66.667,369.444,1002.778,305.556,N
1501,-0.115,-0.255,-0.330,36.111,52.778,333.333,758.333,244.444,""""
1502,-0.055,1.735,0.060,150.000,80.556,369.444,1011.111,252.778,N
1503,-0.015,-0.170,-0.230,33.333,47.222,330.556,691.667,319.444,""""
1504,0.000,1.660,-0.040,161.111,66.667,372.222,975.000,283.333,N
1505,-0.130,-0.030,-0.250,175.000,97.222,344.444,730.556,244.444,""""
1506,0.025,1.735,0.125,152.778,77.778,369.444,1002.778,272.222,N
1507,0.015,-0.005,-0.220,197.222,108.333,122.222,663.889,338.889,""""
1508,0.025,1.695,-0.015,152.778,72.222,372.222,1000.000,336.111,N
1509,-0.020,-0.240,-0.250,41.667,44.444,330.556,766.667,233.333,""""
1510,0.015,1.705,0.050,150.000,44.444,369.444,952.778,186.111,N
1511,0.020,-0.050,-0.265,197.222,97.222,97.222,694.444,258.333,""""
1512,-0.020,1.685,0.015,144.444,83.333,372.222,988.889,294.444,N
1513,-0.110,-0.120,-0.270,194.444,97.222,355.556,677.778,311.111,""""
1514,0.000,1.660,0.060,158.333,41.667,369.444,1002.778,325.000,N
1515,-0.070,-0.045,-0.280,197.222,116.667,394.444,705.556,297.222,""""
1516,-0.025,1.685,0.045,150.000,83.333,369.444,961.111,255.556,N
1517,-0.090,-0.070,-0.260,197.222,105.556,113.889,686.111,275.000,""""
1518,-0.005,1.630,0.050,152.778,41.667,369.444,986.111,300.000,N
1519,0.075,-0.045,-0.255,197.222,97.222,102.778,652.778,333.333,""""
1520,-0.040,1.705,0.030,141.667,80.556,369.444,955.556,302.778,N
1521,-0.020,-0.170,-0.235,25.000,33.333,322.222,683.333,272.222,""""
1522,0.025,1.690,0.065,144.444,72.222,366.667,950.000,266.667,N
1523,0.210,-0.005,-0.205,197.222,100.000,105.556,627.778,322.222,""""
1524,0.015,1.715,0.080,161.111,83.333,372.222,986.111,358.333,N
1525,0.025,0.005,-0.185,191.667,91.667,316.667,669.444,316.667,""""
1526,0.065,1.730,0.055,138.889,41.667,369.444,952.778,283.333,N
1527,-0.070,-0.080,-0.260,194.444,102.778,383.333,702.778,250.000,""""
1528,0.020,1.815,0.050,161.111,72.222,372.222,1000.000,297.222,N
1529,-0.045,-0.165,-0.270,30.556,52.778,138.889,722.222,277.778,""""
1530,-0.015,1.685,-0.025,158.333,80.556,369.444,997.222,275.000,N
1531,-0.155,-0.100,-0.275,180.556,116.667,380.556,725.000,272.222,""""
1532,-0.015,1.785,0.090,144.444,69.444,369.444,988.889,263.889,N
1533,-0.040,0.010,-0.230,194.444,105.556,222.222,686.111,302.778,""""
1534,0.035,1.710,0.000,152.778,86.111,372.222,1030.556,344.444,N
1535,-0.090,-0.080,-0.200,197.222,102.778,383.333,741.667,288.889,""""
1536,0.040,1.735,0.075,138.889,41.667,369.444,975.000,233.333,N
1537,0.055,0.035,-0.205,197.222,116.667,127.778,691.667,283.333,""""
1538,0.040,1.735,0.090,144.444,83.333,372.222,1027.778,336.111,N
1539,-0.095,-0.035,-0.245,183.333,113.889,375.000,694.444,333.333,""""
1540,-0.005,1.645,0.050,150.000,47.222,372.222,1000.000,305.556,N
1541,-0.075,-0.125,-0.280,197.222,102.778,386.111,725.000,275.000,""""
1542,-0.030,1.800,-0.005,147.222,80.556,366.667,961.111,236.111,N
1543,-0.075,-0.085,-0.280,194.444,116.667,366.667,683.333,277.778,""""
1544,0.005,1.620,-0.025,150.000,80.556,369.444,1036.111,352.778,N
1545,-0.025,-0.035,-0.255,197.222,111.111,113.889,688.889,347.222,""""
1546,0.005,1.800,0.045,147.222,69.444,369.444,997.222,308.333,N
1547,0.060,-0.065,-0.205,197.222,91.667,405.556,675.000,322.222,""""
1548,0.035,1.680,0.010,150.000,80.556,369.444,975.000,300.000,N
1549,0.020,-0.050,-0.275,197.222,102.778,108.333,677.778,297.222,""""
1550,-0.020,1.640,0.015,163.889,69.444,372.222,983.333,305.556,N
1551,0.140,-0.030,-0.250,197.222,102.778,111.111,658.333,325.000,""""
1552,-0.045,1.625,-0.065,133.333,80.556,369.444,955.556,297.222,N
1553,-0.100,-0.105,-0.310,197.222,97.222,108.333,686.111,269.444,""""
1554,-0.035,1.560,0.025,152.778,83.333,372.222,1008.333,322.222,N
1555,-0.050,-0.230,-0.285,33.333,52.778,333.333,708.333,300.000,""""
1556,-0.045,1.625,-0.075,152.778,83.333,372.222,961.111,252.778,N
1557,-0.160,-0.100,-0.255,180.556,97.222,405.556,758.333,202.778,""""
1558,0.015,1.610,0.040,144.444,44.444,369.444,1000.000,241.667,N
1559,-0.105,-0.145,-0.275,172.222,116.667,377.778,730.556,269.444,""""
1560,-0.005,1.770,-0.035,147.222,80.556,369.444,1011.111,280.556,N
1561,-0.095,-0.085,-0.270,186.111,83.333,347.222,727.778,283.333,""""
1562,-0.020,1.615,-0.030,144.444,80.556,369.444,997.222,269.444,N
1563,-0.110,-0.080,-0.290,197.222,116.667,380.556,733.333,263.889,""""
1564,0.000,1.750,0.145,150.000,83.333,372.222,1005.556,272.222,N
1565,0.260,-0.070,-0.195,197.222,86.111,86.111,622.222,383.333,""""
1566,0.015,1.685,-0.025,147.222,69.444,369.444,997.222,375.000,N
1567,-0.040,-0.095,-0.240,197.222,100.000,394.444,725.000,272.222,""""
1568,0.020,1.705,0.130,155.556,69.444,369.444,972.222,247.222,N
1569,0.155,-0.035,-0.240,197.222,83.333,88.889,647.222,325.000,""""
1570,-0.020,1.630,-0.105,147.222,80.556,369.444,1002.778,355.556,N
1571,-0.090,-0.190,-0.340,197.222,97.222,113.889,697.222,305.556,""""
1572,-0.045,1.630,0.025,158.333,75.000,366.667,941.667,244.444,N
1573,0.055,-0.110,-0.310,197.222,113.889,122.222,672.222,269.444,""""
1574,-0.040,1.690,-0.010,152.778,77.778,369.444,969.444,297.222,N
1575,0.030,-0.070,-0.235,197.222,100.000,388.889,675.000,294.444,""""
1576,0.040,1.710,-0.010,152.778,44.444,369.444,969.444,294.444,N
1577,0.250,0.005,-0.200,197.222,111.111,113.889,666.667,302.778,""""
1578,0.005,1.770,0.015,155.556,80.556,366.667,991.667,325.000,N
1579,-0.080,-0.030,-0.210,186.111,111.111,344.444,713.889,277.778,""""
1580,0.020,1.670,-0.060,147.222,44.444,369.444,1000.000,286.111,N
1581,-0.025,-0.105,-0.290,197.222,105.556,386.111,719.444,280.556,""""
1582,-0.025,1.790,-0.055,150.000,83.333,369.444,991.667,272.222,N
1583,-0.080,-0.075,-0.260,180.556,116.667,394.444,722.222,269.444,""""
1584,0.040,1.730,0.030,141.667,80.556,369.444,997.222,275.000,N
1585,-0.045,-0.055,-0.215,194.444,105.556,394.444,722.222,275.000,""""
1586,0.075,1.795,0.075,155.556,77.778,372.222,1036.111,313.889,N
1587,0.115,0.040,-0.170,197.222,94.444,108.333,708.333,327.778,""""
1588,0.020,1.745,-0.020,150.000,83.333,372.222,1022.222,313.889,N
1589,0.010,1.575,0.240,166.667,75.000,372.222,900.000,122.222,R
1590,-0.045,1.490,0.240,155.556,69.444,369.444,858.333,41.667,R
1591,-0.090,1.525,0.050,152.778,66.667,369.444,891.667,33.333,R
1592,-0.085,1.520,0.095,166.667,66.667,369.444,963.889,72.222,R
1593,-0.090,1.420,0.105,152.778,63.889,366.667,913.889,50.000,R
1594,-0.185,1.425,0.015,147.222,66.667,366.667,913.889,0.000,R
1595,-0.155,1.420,0.030,161.111,72.222,372.222,972.222,58.333,R
1596,-0.110,1.390,0.125,155.556,63.889,369.444,911.111,61.111,R
1597,-0.145,1.365,0.020,155.556,69.444,372.222,966.667,55.556,R
1598,-0.135,1.440,-0.015,155.556,63.889,366.667,1033.333,66.667,R
1599,-0.180,1.455,0.015,155.556,66.667,369.444,950.000,83.333,R
1600,-0.140,1.485,0.015,161.111,69.444,369.444,991.667,41.667,R
1601,-0.100,1.535,0.045,150.000,63.889,369.444,1025.000,33.333,R
1602,-0.130,1.465,0.050,169.444,69.444,369.444,950.000,75.000,R
1603,-0.165,1.455,-0.070,141.667,66.667,361.111,1002.778,52.778,R
1604,-0.110,1.490,0.155,166.667,69.444,372.222,1022.222,19.444,R
1605,-0.040,1.515,0.180,155.556,63.889,369.444,936.111,86.111,R
1606,0.100,1.655,0.190,152.778,72.222,372.222,966.667,30.556,R
1607,-0.020,1.575,0.185,161.111,69.444,369.444,975.000,8.333,R
1608,-0.060,1.450,0.035,133.333,63.889,355.556,897.222,77.778,R
1609,-0.180,1.420,0.040,158.333,69.444,372.222,980.556,83.333,R
1610,-0.160,1.445,0.060,141.667,66.667,369.444,994.444,13.889,R
1611,-0.155,1.425,0.025,158.333,66.667,366.667,930.556,63.889,R
1612,-0.145,1.480,0.080,163.889,69.444,363.889,997.222,66.667,R
1613,-0.130,1.510,0.170,141.667,63.889,369.444,1002.778,5.556,R
1614,-0.050,1.540,0.160,155.556,66.667,363.889,963.889,38.889,R
1615,-0.050,1.555,0.175,161.111,69.444,372.222,997.222,33.333,R
1616,-0.035,1.620,0.335,155.556,66.667,369.444,1027.778,30.556,R
1617,0.035,1.600,0.150,155.556,69.444,369.444,963.889,63.889,R
1618,-0.030,1.560,0.210,155.556,66.667,369.444,1033.333,69.444,R
1619,-0.050,1.495,0.150,147.222,66.667,372.222,991.667,41.667,R
1620,-0.055,1.510,0.140,150.000,66.667,369.444,1008.333,16.667,R
1621,-0.105,1.335,0.105,150.000,61.111,369.444,969.444,38.889,R
1622,-0.155,1.430,0.070,147.222,63.889,369.444,963.889,5.556,R
1623,-0.115,1.375,0.135,161.111,66.667,372.222,1027.778,63.889,R
1624,-0.090,1.415,0.100,150.000,63.889,369.444,938.889,88.889,R
1625,-0.150,1.370,0.125,155.556,69.444,372.222,1002.778,63.889,R
1626,-0.125,1.490,-0.010,161.111,69.444,369.444,986.111,16.667,R
1627,-0.160,1.395,0.080,158.333,66.667,366.667,994.444,8.333,R
1628,-0.185,1.400,0.065,161.111,69.444,369.444,1008.333,13.889,R
1629,-0.135,1.395,0.045,161.111,69.444,369.444,986.111,22.222,R
1630,-0.140,1.450,0.090,150.000,63.889,361.111,1002.778,16.667,R
1631,-0.100,1.490,0.110,161.111,69.444,372.222,1013.889,11.111,R
1632,-0.115,1.470,0.125,163.889,66.667,369.444,997.222,16.667,R
1633,-0.120,1.480,0.120,150.000,63.889,366.667,1005.556,8.333,R
1634,-0.145,1.440,0.120,166.667,69.444,372.222,1036.111,30.556,R
1635,-0.155,1.415,0.100,144.444,61.111,369.444,969.444,66.667,R
1636,-0.155,1.405,0.105,163.889,72.222,363.889,983.333,13.889,R
1637,-0.180,1.405,0.050,147.222,69.444,358.333,1000.000,16.667,R
1638,-0.135,1.370,0.045,152.778,69.444,369.444,955.556,44.444,R
1639,-0.180,1.385,0.060,155.556,69.444,369.444,1036.111,80.556,R
1640,-0.130,1.405,0.095,152.778,66.667,372.222,1058.333,22.222,R
1641,-0.125,1.490,0.150,163.889,63.889,363.889,952.778,105.556,R
1642,-0.120,1.440,0.155,152.778,66.667,372.222,1013.889,61.111,R
1643,-0.070,1.500,0.180,158.333,66.667,369.444,1044.444,30.556,R
1644,-0.140,1.450,0.125,147.222,63.889,363.889,977.778,66.667,R
1645,-0.165,1.410,0.155,172.222,69.444,372.222,1013.889,36.111,R
1646,-0.120,1.460,0.170,152.778,63.889,366.667,975.000,38.889,R
1647,-0.130,1.355,0.135,155.556,72.222,369.444,930.556,44.444,R
1648,-0.125,1.385,0.125,155.556,69.444,366.667,1008.333,77.778,R
1649,-0.135,1.455,0.130,158.333,69.444,372.222,1011.111,2.778,R
1650,-0.135,1.405,0.140,155.556,72.222,369.444,919.444,91.667,R
1651,-0.180,1.480,0.195,147.222,66.667,369.444,1013.889,94.444,R
1652,-0.125,1.465,0.210,144.444,69.444,355.556,969.444,44.444,R
1653,-0.085,1.410,0.210,155.556,63.889,366.667,916.667,52.778,R
1654,-0.120,1.460,0.210,158.333,69.444,369.444,963.889,47.222,R
1655,-0.095,1.530,0.275,166.667,66.667,361.111,952.778,11.111,R
1656,-0.090,1.465,0.140,163.889,69.444,369.444,875.000,77.778,R
1657,-0.125,1.350,0.195,150.000,66.667,369.444,972.222,97.222,R
1658,-0.085,1.445,0.215,152.778,63.889,366.667,944.444,27.778,R
1659,-0.085,1.445,0.165,144.444,66.667,369.444,877.778,66.667,R
1660,-0.110,1.485,0.250,166.667,69.444,366.667,994.444,116.667,R
1661,-0.080,1.570,0.265,155.556,63.889,355.556,963.889,30.556,R
1662,-0.045,1.495,0.170,161.111,72.222,369.444,894.444,69.444,R
1663,-0.100,1.525,0.255,161.111,66.667,369.444,977.778,83.333,R
1664,-0.075,1.500,0.195,150.000,66.667,369.444,952.778,25.000,R
1665,-0.100,1.490,0.200,158.333,69.444,366.667,908.333,44.444,R
1666,-0.090,1.475,0.305,155.556,63.889,363.889,988.889,80.556,R
1667,-0.065,1.555,0.270,141.667,66.667,358.333,947.222,41.667,R
1668,-0.060,1.505,0.230,166.667,69.444,372.222,913.889,33.333,R
1669,-0.090,1.495,0.270,152.778,66.667,361.111,1025.000,111.111,R
1670,-0.055,1.480,0.250,161.111,69.444,369.444,975.000,50.000,R
1671,-0.035,1.420,0.240,161.111,69.444,372.222,911.111,63.889,R
1672,-0.085,1.495,0.260,147.222,66.667,366.667,1008.333,97.222,R
1673,-0.030,1.500,0.240,152.778,66.667,369.444,944.444,63.889,R
1674,-0.025,1.455,0.300,158.333,63.889,369.444,941.667,2.778,R
1675,-0.055,1.525,0.300,141.667,69.444,372.222,955.556,13.889,R
1676,-0.020,1.440,0.315,150.000,63.889,366.667,1044.444,88.889,R
1677,-0.040,1.480,0.250,161.111,69.444,369.444,975.000,69.444,R
1678,-0.065,1.415,0.335,144.444,66.667,355.556,983.333,8.333,R
1679,-0.055,1.410,0.285,161.111,69.444,375.000,1011.111,27.778,R
1680,-0.050,1.475,0.290,166.667,66.667,350.000,991.667,19.444,R
1681,-0.080,1.380,0.295,155.556,72.222,369.444,958.333,33.333,R
1682,-0.075,1.440,0.350,158.333,66.667,369.444,1044.444,86.111,R
1683,-0.040,1.470,0.280,150.000,66.667,369.444,983.333,61.111,R
1684,-0.080,1.455,0.275,147.222,69.444,372.222,1050.000,66.667,R
1685,-0.090,1.460,0.235,150.000,66.667,369.444,1088.889,38.889,R
1686,-0.090,1.400,0.225,155.556,66.667,366.667,988.889,100.000,R
1687,-0.140,1.420,0.250,152.778,66.667,363.889,1008.333,19.444,R
1688,-0.075,1.395,0.225,163.889,69.444,355.556,1041.667,33.333,R
1689,-0.110,1.380,0.250,147.222,66.667,366.667,966.667,75.000,R
1690,-0.105,1.420,0.245,158.333,69.444,372.222,1016.667,50.000,R
1691,-0.080,1.465,0.285,144.444,63.889,366.667,977.778,38.889,R
1692,-0.045,1.425,0.225,155.556,66.667,366.667,916.667,61.111,R
1693,-0.060,1.415,0.265,147.222,63.889,369.444,997.222,80.556,R
1694,-0.035,1.435,0.325,152.778,69.444,369.444,1013.889,16.667,R
1695,-0.040,1.480,0.215,158.333,69.444,355.556,952.778,61.111,R
1696,-0.060,1.430,0.295,150.000,66.667,369.444,1072.222,119.444,R
1697,-0.100,1.420,0.280,166.667,66.667,369.444,1027.778,44.444,R
1698,-0.060,1.395,0.250,155.556,69.444,372.222,947.222,80.556,R
1699,-0.070,1.475,0.335,161.111,66.667,363.889,1044.444,97.222,R
1700,-0.065,1.490,0.310,152.778,69.444,355.556,938.889,105.556,R
1701,-0.085,1.400,0.280,169.444,69.444,369.444,941.667,2.778,R
1702,-0.090,1.340,0.325,155.556,66.667,352.778,1008.333,66.667,R
1703,-0.095,1.425,0.220,155.556,72.222,366.667,938.889,69.444,R
1704,-0.115,1.390,0.255,158.333,69.444,369.444,927.778,11.111,R
1705,-0.160,1.390,0.235,150.000,66.667,366.667,983.333,55.556,R
1706,-0.060,1.345,0.295,152.778,63.889,366.667,947.222,36.111,R
1707,-0.075,1.420,0.205,161.111,72.222,363.889,980.556,33.333,R
1708,-0.135,1.400,0.235,141.667,66.667,366.667,1036.111,55.556,R
1709,-0.085,1.350,0.210,147.222,63.889,369.444,1044.444,8.333,R
1710,-0.155,1.325,0.165,163.889,69.444,372.222,972.222,72.222,R
1711,-0.145,1.375,0.305,150.000,63.889,358.333,1055.556,83.333,R
1712,-0.025,1.435,0.215,163.889,69.444,369.444,1069.444,13.889,R
1713,-0.090,1.360,0.235,158.333,69.444,358.333,977.778,91.667,R
1714,-0.085,1.380,0.205,152.778,66.667,366.667,1036.111,58.333,R
1715,-0.110,1.350,0.205,155.556,66.667,369.444,1027.778,8.333,R
1716,-0.165,1.275,0.180,152.778,69.444,363.889,950.000,77.778,R
1717,-0.145,1.315,0.180,150.000,72.222,372.222,991.667,41.667,R
1718,-0.115,1.335,0.185,147.222,66.667,369.444,988.889,2.778,R
1719,-0.140,1.305,0.150,147.222,63.889,366.667,908.333,80.556,R
1720,-0.150,1.320,0.225,147.222,66.667,344.444,961.111,52.778,R
1721,-0.110,1.315,0.200,155.556,69.444,369.444,975.000,13.889,R
1722,-0.125,1.310,0.125,161.111,66.667,358.333,952.778,22.222,R
1723,-0.165,1.250,0.185,152.778,69.444,361.111,955.556,2.778,R
1724,-0.135,1.305,0.195,152.778,69.444,363.889,1030.556,75.000,R
1725,-0.150,1.240,0.180,155.556,66.667,358.333,922.222,108.333,R
1726,-0.110,1.310,0.250,144.444,66.667,366.667,911.111,11.111,R
1727,-0.045,1.325,0.260,161.111,69.444,369.444,936.111,25.000,R
1728,-0.085,1.285,0.190,163.889,69.444,352.778,875.000,61.111,R
1729,-0.120,1.290,0.250,158.333,69.444,372.222,947.222,72.222,R
1730,-0.085,1.325,0.275,158.333,69.444,372.222,1030.556,83.333,R
1731,-0.030,1.285,0.255,161.111,63.889,355.556,891.667,138.889,R
1732,-0.035,1.405,0.320,158.333,72.222,369.444,1019.444,127.778,R
1733,-0.045,1.395,0.265,150.000,66.667,366.667,1055.556,36.111,R
1734,0.000,1.390,0.270,147.222,69.444,363.889,933.333,122.222,R
1735,-0.080,1.345,0.290,172.222,69.444,369.444,1036.111,102.778,R
1736,-0.070,1.305,0.220,147.222,63.889,366.667,933.333,102.778,R
1737,-0.085,1.205,0.265,161.111,66.667,366.667,911.111,22.222,R
1738,-0.100,1.320,0.265,163.889,66.667,369.444,888.889,22.222,R
1739,-0.065,1.415,0.255,144.444,69.444,369.444,983.333,94.444,R
1740,-0.035,1.330,0.230,150.000,66.667,361.111,877.778,105.556,R
1741,-0.060,1.355,0.285,155.556,66.667,355.556,994.444,116.667,R
1742,-0.045,1.330,0.200,144.444,63.889,369.444,969.444,25.000,R
1743,-0.085,1.230,0.195,166.667,66.667,350.000,902.778,66.667,R
1744,-0.130,1.250,0.185,163.889,69.444,363.889,1027.778,125.000,R
1745,-0.065,1.265,0.240,155.556,66.667,366.667,1055.556,27.778,R
1746,-0.070,1.280,0.210,166.667,72.222,369.444,919.444,136.111,R
1747,-0.025,1.385,0.310,158.333,72.222,363.889,1086.111,166.667,R
1748,0.010,1.365,0.280,152.778,66.667,369.444,991.667,94.444,R
1749,-0.050,1.320,0.260,166.667,75.000,369.444,941.667,50.000,R
1750,-0.070,1.340,0.320,144.444,63.889,355.556,1044.444,102.778,R
1751,0.000,1.390,0.320,155.556,66.667,361.111,955.556,88.889,R
1752,0.005,1.395,0.245,169.444,69.444,372.222,950.000,5.556,R
1753,0.010,1.365,0.355,147.222,61.111,338.889,944.444,5.556,R
1754,0.015,1.385,0.345,163.889,69.444,366.667,894.444,50.000,R
1755,-0.020,1.315,0.290,163.889,66.667,347.222,894.444,0.000,R
1756,-0.060,1.415,0.310,150.000,69.444,366.667,966.667,72.222,R
1757,-0.070,1.415,0.260,150.000,69.444,369.444,933.333,33.333,R
1758,-0.060,1.270,0.280,158.333,69.444,366.667,950.000,16.667,R
1759,-0.090,1.350,0.355,147.222,72.222,369.444,1005.556,55.556,R
1760,-0.030,1.385,0.280,152.778,66.667,355.556,977.778,27.778,R
1761,-0.060,1.340,0.325,161.111,69.444,369.444,925.000,52.778,R
1762,-0.045,1.380,0.345,155.556,66.667,363.889,1055.556,130.556,R
1763,-0.035,1.390,0.205,163.889,66.667,363.889,977.778,77.778,R
1764,-0.080,1.315,0.285,163.889,69.444,361.111,969.444,8.333,R
1765,-0.080,1.410,0.290,147.222,63.889,361.111,994.444,25.000,R
1766,-0.050,1.440,0.330,161.111,66.667,366.667,961.111,33.333,R
1767,-0.020,1.430,0.290,158.333,63.889,352.778,947.222,13.889,R
1768,-0.035,1.445,0.305,150.000,66.667,355.556,966.667,19.444,R
1769,-0.010,1.465,0.320,161.111,69.444,363.889,988.889,22.222,R
1770,0.000,1.330,0.265,147.222,61.111,350.000,919.444,69.444,R
1771,-0.065,1.370,0.285,166.667,69.444,344.444,936.111,16.667,R
1772,-0.025,1.425,0.315,152.778,66.667,369.444,944.444,8.333,R
1773,-0.020,1.420,0.290,152.778,66.667,366.667,894.444,50.000,R
1774,-0.055,1.380,0.340,150.000,69.444,372.222,961.111,66.667,R
1775,-0.015,1.480,0.335,150.000,63.889,369.444,988.889,27.778,R
1776,-0.035,1.455,0.350,141.667,66.667,363.889,891.667,97.222,R
1777,-0.070,1.400,0.350,144.444,63.889,352.778,983.333,91.667,R
1778,-0.050,1.435,0.295,161.111,69.444,369.444,969.444,13.889,R
1779,-0.050,1.415,0.295,161.111,66.667,344.444,936.111,33.333,R
1780,-0.055,1.390,0.365,158.333,69.444,372.222,969.444,33.333,R
1781,-0.035,1.495,0.345,152.778,66.667,369.444,1000.000,30.556,R
1782,-0.025,1.485,0.320,161.111,63.889,369.444,927.778,72.222,R
1783,-0.045,1.480,0.340,155.556,69.444,363.889,994.444,66.667,R
1784,0.000,1.435,0.330,163.889,69.444,366.667,1050.000,55.556,R
1785,-0.065,1.445,0.260,147.222,63.889,355.556,947.222,102.778,R
1786,-0.080,1.465,0.325,158.333,72.222,372.222,997.222,50.000,R
1787,-0.020,1.485,0.345,155.556,63.889,355.556,1000.000,2.778,R
1788,-0.005,1.365,0.365,158.333,69.444,358.333,900.000,100.000,R
1789,0.010,1.500,0.430,158.333,69.444,361.111,933.333,33.333,R
1790,0.010,1.515,0.375,147.222,63.889,355.556,902.778,30.556,R
1791,-0.045,0.005,-0.175,197.222,97.222,386.111,702.778,200.000,""""
1792,0.105,1.630,0.110,161.111,80.556,369.444,1058.333,355.556,N
1793,0.045,1.510,0.400,155.556,66.667,333.333,900.000,158.333,R
1794,0.030,1.475,0.395,155.556,66.667,361.111,833.333,66.667,R
1795,0.040,1.495,0.430,169.444,75.000,361.111,944.444,111.111,R
1796,0.035,1.525,0.415,152.778,66.667,350.000,966.667,22.222,R
1797,0.030,1.455,0.345,150.000,69.444,366.667,883.333,83.333,R
1798,-0.020,1.415,0.415,161.111,72.222,369.444,1005.556,122.222,R
1799,0.000,1.465,0.385,150.000,63.889,355.556,1038.889,33.333,R
1800,-0.035,1.380,0.265,169.444,72.222,347.222,947.222,91.667,R
1801,-0.130,1.360,0.300,141.667,69.444,366.667,991.667,44.444,R
1802,-0.110,1.285,0.295,152.778,66.667,372.222,1016.667,25.000,R
1803,-0.130,1.305,0.240,161.111,66.667,366.667,922.222,94.444,R
1804,-0.115,1.255,0.300,150.000,66.667,369.444,1011.111,88.889,R
1805,-0.105,1.325,0.265,155.556,72.222,361.111,955.556,55.556,R
1806,-0.115,1.290,0.290,150.000,63.889,358.333,927.778,27.778,R
1807,-0.115,1.320,0.300,163.889,72.222,369.444,1025.000,97.222,R
1808,-0.070,1.400,0.310,152.778,63.889,352.778,986.111,38.889,R
1809,-0.095,1.375,0.220,166.667,69.444,355.556,897.222,88.889,R
1810,-0.120,1.405,0.305,161.111,69.444,355.556,963.889,66.667,R
1811,-0.070,1.420,0.310,152.778,66.667,369.444,913.889,50.000,R
1812,-0.050,1.350,0.270,155.556,63.889,361.111,877.778,36.111,R
1813,-0.085,1.320,0.310,163.889,72.222,355.556,947.222,69.444,R
1814,-0.085,1.390,0.255,152.778,66.667,361.111,947.222,0.000,R
1815,-0.130,1.300,0.210,161.111,69.444,369.444,894.444,52.778,R
1816,-0.170,1.270,0.230,158.333,69.444,363.889,1002.778,108.333,R
1817,-0.170,1.275,0.215,150.000,66.667,369.444,961.111,41.667,R
1818,-0.145,1.325,0.215,161.111,66.667,355.556,927.778,33.333,R
1819,-0.160,1.285,0.250,150.000,63.889,369.444,1041.667,113.889,R
1820,-0.155,1.260,0.205,152.778,63.889,369.444,966.667,75.000,R
1821,-0.180,1.195,0.165,169.444,66.667,347.222,963.889,2.778,R
1822,-0.215,1.255,0.175,150.000,63.889,361.111,983.333,19.444,R
1823,-0.180,1.350,0.195,158.333,66.667,355.556,972.222,11.111,R
1824,-0.180,1.280,0.135,155.556,69.444,366.667,919.444,52.778,R
1825,-0.190,1.250,0.180,163.889,69.444,361.111,1013.889,94.444,R
1826,-0.145,1.285,0.185,155.556,72.222,366.667,955.556,58.333,R
1827,-0.165,1.275,0.135,155.556,66.667,361.111,944.444,11.111,R
1828,-0.160,1.285,0.195,152.778,69.444,347.222,952.778,8.333,R
1829,-0.145,1.300,0.235,147.222,63.889,369.444,938.889,13.889,R
1830,-0.090,1.385,0.230,169.444,69.444,366.667,916.667,22.222,R
1831,-0.055,1.465,0.370,155.556,66.667,352.778,925.000,8.333,R
1832,0.000,1.520,0.355,166.667,66.667,369.444,944.444,19.444,R
1833,0.035,1.485,0.350,155.556,69.444,363.889,919.444,25.000,R
1834,0.035,1.495,0.425,158.333,69.444,361.111,966.667,47.222,R
1835,0.025,1.490,0.415,155.556,69.444,369.444,988.889,22.222,R
1836,0.015,1.465,0.345,169.444,66.667,341.667,927.778,61.111,R
1837,-0.005,1.480,0.445,147.222,69.444,355.556,958.333,30.556,R
1838,0.060,1.565,0.520,166.667,72.222,372.222,1008.333,50.000,R
1839,0.105,1.575,0.470,150.000,66.667,336.111,944.444,63.889,R
1840,0.115,1.530,0.485,158.333,69.444,358.333,911.111,33.333,R
1841,0.095,1.580,0.500,152.778,66.667,369.444,1025.000,113.889,R
1842,0.125,1.595,0.470,152.778,69.444,369.444,1025.000,0.000,R
1843,0.095,1.510,0.430,155.556,66.667,366.667,938.889,86.111,R
1844,0.085,1.620,0.495,147.222,66.667,355.556,1050.000,111.111,R
