id,Pamp,Ramp,Tamp,PR,QRS,QT,RRI,dRRI,label
1,-0.580,1.170,-0.350,158.333,58.333,352.778,938.889,377.778,N
2,-0.640,1.110,-0.460,152.778,52.778,344.444,933.333,5.556,N
3,-0.695,1.165,-0.370,141.667,47.222,319.444,888.889,44.444,N
4,-0.590,1.205,-0.355,163.889,52.778,330.556,897.222,8.333,N
5,-0.640,1.935,-0.210,197.222,116.667,116.667,538.889,358.333,V
6,-0.520,1.345,-0.320,138.889,52.778,355.556,1300.000,761.111,N
7,-0.495,1.280,-0.295,152.778,52.778,333.333,944.444,355.556,N
8,-0.560,1.265,-0.360,155.556,55.556,330.556,880.556,63.889,N
9,-0.640,1.145,-0.330,158.333,55.556,341.667,861.111,19.444,N
10,-0.540,1.205,-0.295,158.333,55.556,336.111,927.778,66.667,N
11,-0.560,1.945,-0.405,197.222,116.667,116.667,530.556,397.222,V
12,-0.505,1.370,-0.280,147.222,58.333,350.000,1272.222,741.667,N
13,-0.490,1.310,-0.325,152.778,52.778,327.778,925.000,347.222,N
14,-0.575,1.235,-0.315,155.556,55.556,344.444,869.444,55.556,N
15,-0.525,1.350,-0.260,166.667,52.778,338.889,916.667,47.222,N
16,-0.545,1.270,-0.310,161.111,50.000,322.222,911.111,5.556,N
17,-0.605,1.200,-0.335,163.889,55.556,355.556,863.889,47.222,N
18,-0.530,1.295,-0.235,155.556,52.778,338.889,952.778,88.889,N
19,-0.520,1.285,-0.325,163.889,52.778,330.556,933.333,19.444,N
20,-0.545,1.295,-0.200,152.778,58.333,347.222,866.667,66.667,N
21,-0.465,2.140,-0.410,197.222,113.889,113.889,547.222,319.444,V
22,-0.555,1.305,-0.360,136.111,52.778,352.778,1302.778,755.556,N
23,-0.540,2.155,0.370,197.222,113.889,113.889,552.778,750.000,V
24,-0.465,1.365,-0.295,138.889,50.000,347.222,1341.667,788.889,N
25,-0.320,2.220,-0.180,197.222,113.889,113.889,533.333,808.333,V
26,-0.500,1.425,-0.220,144.444,52.778,336.111,1330.556,797.222,N
27,-0.565,2.225,-0.045,197.222,113.889,113.889,569.444,761.111,V
28,-0.490,1.450,-0.260,138.889,52.778,366.667,1272.222,702.778,N
29,-0.995,1.985,-0.995,28947.222,29005.556,0.000,630.556,641.667,V
30,-0.460,1.410,-0.265,136.111,52.778,361.111,1238.889,608.333,N
31,-0.390,2.305,0.920,197.222,113.889,113.889,550.000,688.889,V
32,-0.385,1.495,-0.225,138.889,52.778,355.556,1333.333,783.333,N
33,-0.420,1.460,-0.280,155.556,55.556,361.111,883.333,450.000,N
34,-0.485,1.385,-0.260,152.778,50.000,330.556,897.222,13.889,N
35,-0.560,1.305,-0.355,150.000,50.000,327.778,877.778,19.444,N
36,-0.615,1.220,-0.370,152.778,58.333,352.778,838.889,38.889,N
37,-0.545,2.105,0.260,197.222,116.667,116.667,541.667,297.222,V
38,-0.560,1.285,-0.380,133.333,52.778,350.000,1286.111,744.444,N
39,-0.515,2.165,-0.065,197.222,116.667,116.667,541.667,744.444,V
40,-0.645,1.140,-0.475,130.556,52.778,352.778,1286.111,744.444,N
41,-0.770,2.065,0.195,197.222,113.889,113.889,569.444,716.667,V
42,-0.690,1.280,-0.400,133.333,52.778,344.444,1286.111,716.667,N
43,-0.530,2.290,-0.400,197.222,116.667,116.667,536.111,750.000,V
44,-0.550,1.415,-0.335,144.444,58.333,363.889,1305.556,769.444,N
45,-0.585,1.325,-0.365,144.444,50.000,322.222,880.556,425.000,N
46,-0.620,1.345,-0.335,138.889,55.556,350.000,866.667,13.889,N
47,-0.625,1.255,-0.395,161.111,55.556,344.444,902.778,36.111,N
48,-0.670,1.215,-0.410,150.000,52.778,322.222,875.000,27.778,N
49,-0.565,2.105,0.370,197.222,111.111,111.111,522.222,352.778,V
50,-0.665,1.245,-0.475,136.111,52.778,347.222,1341.667,819.444,N
51,-0.705,1.210,-0.465,161.111,52.778,333.333,919.444,422.222,N
52,-0.695,2.075,-0.995,197.222,113.889,-49702.778,530.556,388.889,V
53,-0.690,1.205,-0.530,130.556,52.778,347.222,1319.444,788.889,N
54,-0.590,1.310,-0.305,155.556,55.556,344.444,938.889,380.556,N
55,-0.610,2.170,0.260,197.222,113.889,113.889,541.667,397.222,V
56,-0.545,1.445,-0.330,130.556,58.333,366.667,1338.889,797.222,N
57,-0.710,2.170,0.075,83.333,116.667,116.667,591.667,747.222,V
58,-0.510,1.365,-0.370,136.111,55.556,347.222,1355.556,763.889,N
59,-0.525,1.410,-0.325,163.889,58.333,333.333,925.000,430.556,N
60,-0.470,2.160,-0.230,197.222,113.889,113.889,530.556,394.444,V
61,-0.580,1.265,-0.470,136.111,52.778,352.778,1316.667,786.111,N
62,-0.555,2.105,0.210,197.222,113.889,113.889,538.889,777.778,V
63,-0.575,1.240,-0.415,141.667,52.778,350.000,1297.222,758.333,N
64,-0.770,2.090,-0.345,197.222,111.111,111.111,575.000,722.222,V
65,-0.835,1.330,-0.410,133.333,52.778,350.000,1225.000,650.000,N
66,-0.835,1.285,-0.415,141.667,52.778,327.778,925.000,300.000,N
67,-0.900,1.130,-0.500,152.778,58.333,338.889,883.333,41.667,N
68,-0.980,1.115,-0.520,147.222,50.000,325.000,886.111,2.778,N
69,-0.895,1.180,-0.475,152.778,55.556,319.444,947.222,61.111,N
70,-0.910,1.245,-0.405,155.556,52.778,333.333,922.222,25.000,N
71,-0.790,1.190,-0.380,163.889,52.778,344.444,977.778,55.556,N
72,-0.620,1.230,-0.370,161.111,66.667,344.444,947.222,30.556,N
73,-0.705,1.175,-0.405,166.667,50.000,327.778,897.222,50.000,N
74,-0.740,1.935,0.665,197.222,111.111,111.111,536.111,361.111,V
75,-0.615,1.255,-0.410,130.556,58.333,352.778,1369.444,833.333,N
76,-0.585,1.175,-0.450,147.222,50.000,333.333,877.778,491.667,N
77,-0.680,1.235,-0.385,152.778,52.778,336.111,916.667,38.889,N
78,-0.650,1.130,-0.430,158.333,58.333,336.111,908.333,8.333,N
79,-0.700,1.110,-0.460,155.556,52.778,341.667,883.333,25.000,N
80,-0.735,1.100,-0.415,158.333,52.778,325.000,886.111,2.778,N
81,-0.660,1.170,-0.360,147.222,50.000,333.333,913.889,27.778,N
82,-0.490,1.895,0.435,197.222,113.889,113.889,522.222,391.667,V
83,-0.590,1.280,-0.360,122.222,55.556,347.222,1355.556,833.333,N
84,-0.535,1.250,-0.300,155.556,52.778,333.333,963.889,391.667,N
85,-0.495,1.195,-0.325,158.333,55.556,338.889,936.111,27.778,N
86,-0.660,1.125,-0.410,147.222,52.778,322.222,891.667,44.444,N
87,-0.630,1.145,-0.355,158.333,55.556,344.444,911.111,19.444,N
88,-0.840,1.930,-0.555,194.444,116.667,116.667,572.222,338.889,V
89,-0.610,1.135,-0.415,138.889,55.556,347.222,1322.222,750.000,N
90,-0.485,2.060,0.575,197.222,116.667,116.667,525.000,797.222,V
91,-0.485,1.250,-0.330,141.667,52.778,355.556,1363.889,838.889,N
92,-0.450,1.950,-0.475,197.222,116.667,116.667,544.444,819.444,V
93,-0.550,1.250,-0.360,133.333,50.000,347.222,1291.667,747.222,N
94,-0.595,1.095,-0.430,144.444,52.778,327.778,933.333,358.333,N
95,-0.615,1.110,-0.440,163.889,52.778,350.000,866.667,66.667,N
96,-0.695,1.090,-0.445,150.000,50.000,333.333,894.444,27.778,N
97,-0.660,1.100,-0.440,144.444,52.778,327.778,911.111,16.667,N
98,-0.725,1.010,-0.555,166.667,52.778,333.333,886.111,25.000,N
99,-0.795,1.030,-0.505,158.333,55.556,336.111,897.222,11.111,N
100,-0.740,1.020,-0.495,155.556,50.000,316.667,927.778,30.556,N
101,-0.730,1.020,-0.545,166.667,58.333,341.667,911.111,16.667,N
102,-0.780,1.050,-0.465,169.444,50.000,319.444,911.111,0.000,N
103,-0.745,1.050,-0.495,161.111,52.778,341.667,938.889,27.778,N
104,-0.730,1.010,-0.475,166.667,52.778,330.556,952.778,13.889,N
105,-0.770,1.045,-0.445,161.111,52.778,327.778,911.111,41.667,N
106,-0.730,1.000,-0.480,169.444,52.778,350.000,969.444,58.333,N
107,-0.725,1.055,-0.450,169.444,55.556,336.111,941.667,27.778,N
108,-0.670,1.125,-0.385,166.667,52.778,325.000,916.667,25.000,N
109,-0.705,1.050,-0.450,172.222,58.333,341.667,955.556,38.889,N
110,-0.710,1.070,-0.495,166.667,52.778,333.333,911.111,44.444,N
111,-0.755,1.105,-0.420,166.667,52.778,352.778,902.778,8.333,N
112,-0.630,1.125,-0.420,163.889,50.000,330.556,961.111,58.333,N
113,-0.730,1.070,-0.495,163.889,52.778,333.333,905.556,55.556,N
114,-0.755,1.110,-0.470,163.889,55.556,355.556,894.444,11.111,N
115,-0.650,1.175,-0.455,141.667,50.000,325.000,944.444,50.000,N
116,-0.730,1.040,-0.550,161.111,50.000,316.667,902.778,41.667,N
117,-0.755,1.070,-0.490,163.889,58.333,344.444,883.333,19.444,N
118,-0.700,1.070,-0.455,163.889,52.778,338.889,905.556,22.222,N
119,-0.690,1.055,-0.550,166.667,50.000,325.000,877.778,27.778,N
120,-0.780,1.055,-0.520,150.000,55.556,344.444,908.333,30.556,N
121,-0.695,1.100,-0.485,158.333,52.778,344.444,902.778,5.556,N
122,-0.750,0.965,-0.590,158.333,55.556,341.667,905.556,2.778,N
123,-0.800,1.045,-0.560,163.889,52.778,333.333,916.667,11.111,N
124,-0.750,1.035,-0.520,152.778,52.778,338.889,911.111,5.556,N
125,-0.635,1.765,-0.295,197.222,116.667,116.667,527.778,383.333,V
126,-0.660,1.145,-0.465,138.889,55.556,352.778,1302.778,775.000,N
127,-0.615,1.170,-0.475,161.111,52.778,336.111,922.222,380.556,N
128,-0.680,1.010,-0.545,155.556,52.778,336.111,894.444,27.778,N
129,-0.730,1.055,-0.460,161.111,52.778,336.111,869.444,25.000,N
130,-0.630,1.105,-0.395,155.556,50.000,336.111,886.111,16.667,N
131,-0.645,1.040,-0.445,155.556,52.778,322.222,902.778,16.667,N
132,-0.665,1.040,-0.395,147.222,52.778,344.444,863.889,38.889,N
133,-0.600,1.140,-0.350,152.778,50.000,336.111,880.556,16.667,N
134,-0.595,1.905,-0.175,197.222,116.667,116.667,541.667,338.889,V
135,-0.585,1.210,-0.400,144.444,52.778,363.889,1286.111,744.444,N
136,-0.505,1.255,-0.350,163.889,58.333,338.889,944.444,341.667,N
137,-0.560,1.175,-0.360,138.889,55.556,327.778,911.111,33.333,N
138,-0.545,1.235,-0.310,158.333,52.778,333.333,891.667,19.444,N
139,-0.540,1.155,-0.320,163.889,55.556,338.889,925.000,33.333,N
140,-0.590,1.165,-0.355,166.667,55.556,330.556,883.333,41.667,N
141,-0.560,1.945,0.480,197.222,116.667,116.667,536.111,347.222,V
142,-0.555,1.165,-0.385,136.111,50.000,347.222,1305.556,769.444,N
143,-0.510,2.015,-0.080,197.222,116.667,116.667,544.444,761.111,V
144,-0.500,1.295,-0.290,144.444,52.778,366.667,1311.111,766.667,N
145,-0.705,1.830,-0.420,177.778,116.667,116.667,655.556,655.556,V
146,-0.510,1.240,-0.340,130.556,52.778,355.556,1247.222,591.667,N
147,-0.515,1.160,-0.410,150.000,52.778,338.889,950.000,297.222,N
148,-0.610,1.160,-0.390,158.333,52.778,333.333,880.556,69.444,N
149,-0.610,1.945,-0.105,197.222,116.667,116.667,544.444,336.111,V
150,-0.660,1.145,-0.560,133.333,50.000,358.333,1291.667,747.222,N
151,-0.735,1.085,-0.535,150.000,50.000,344.444,908.333,383.333,N
152,-0.600,1.865,0.270,197.222,113.889,113.889,527.778,380.556,V
153,-0.645,1.065,-0.530,125.000,52.778,352.778,1319.444,791.667,N
154,-0.640,1.165,-0.415,155.556,52.778,330.556,911.111,408.333,N
155,-0.605,1.150,-0.395,161.111,58.333,341.667,908.333,2.778,N
156,-0.580,1.140,-0.400,158.333,55.556,341.667,886.111,22.222,N
157,-0.615,1.180,-0.385,152.778,50.000,333.333,869.444,16.667,N
158,-0.700,2.000,-0.305,197.222,113.889,113.889,538.889,330.556,V
159,-0.615,1.135,-0.500,133.333,55.556,350.000,1294.444,755.556,N
160,-0.610,1.100,-0.380,150.000,52.778,344.444,958.333,336.111,N
161,-0.570,1.175,-0.425,152.778,52.778,338.889,908.333,50.000,N
162,-0.675,1.020,-0.415,158.333,80.556,355.556,877.778,30.556,N
163,-0.635,1.175,-0.420,158.333,58.333,347.222,919.444,41.667,N
164,-0.660,1.190,-0.435,166.667,52.778,344.444,891.667,27.778,N
165,-0.615,1.270,-0.350,152.778,50.000,322.222,886.111,5.556,N
166,-0.570,1.250,-0.395,152.778,52.778,336.111,922.222,36.111,N
167,-0.565,1.335,-0.325,158.333,55.556,327.778,891.667,30.556,N
168,-0.555,1.320,-0.320,158.333,55.556,341.667,883.333,8.333,N
169,-0.575,1.235,-0.385,163.889,52.778,333.333,930.556,47.222,N
170,-0.595,1.215,-0.405,161.111,50.000,333.333,872.222,58.333,N
171,-0.515,1.980,-0.035,197.222,116.667,116.667,519.444,352.778,V
172,-0.555,1.245,-0.425,141.667,52.778,352.778,1330.556,811.111,N
173,-0.620,1.205,-0.480,155.556,47.222,313.889,886.111,444.444,N
174,-0.595,1.950,0.830,197.222,111.111,111.111,513.889,372.222,V
175,-0.565,1.215,-0.520,138.889,55.556,355.556,1300.000,786.111,N
176,-0.655,1.245,-0.420,161.111,52.778,338.889,886.111,413.889,N
177,-0.615,1.825,2.400,197.222,-164211.111,-133469.444,536.111,350.000,V
178,-0.740,1.125,-0.545,130.556,52.778,336.111,1263.889,727.778,N
179,-0.715,2.015,0.445,197.222,111.111,111.111,552.778,711.111,V
180,-0.665,1.155,-0.525,136.111,50.000,352.778,1297.222,744.444,N
181,-0.680,1.130,-0.505,147.222,52.778,319.444,869.444,427.778,N
182,-0.600,1.880,0.205,197.222,113.889,113.889,508.333,361.111,V
183,-0.555,1.215,-0.445,141.667,55.556,350.000,1263.889,755.556,N
184,-0.625,1.190,-0.435,138.889,50.000,322.222,858.333,405.556,N
185,-0.655,1.150,-0.360,147.222,55.556,344.444,911.111,52.778,N
186,-0.585,1.190,-0.420,161.111,52.778,330.556,911.111,0.000,N
187,-0.720,1.105,-0.445,147.222,52.778,319.444,886.111,25.000,N
188,-0.805,1.805,0.395,197.222,113.889,113.889,544.444,341.667,V
189,-0.640,1.110,-0.445,138.889,55.556,341.667,1405.556,861.111,N
190,-0.610,1.155,-0.400,166.667,52.778,338.889,902.778,502.778,N
191,-0.605,1.925,0.155,197.222,113.889,113.889,547.222,355.556,V
192,-0.475,1.275,-0.410,147.222,55.556,347.222,1380.556,833.333,N
193,-0.545,1.205,-0.325,161.111,55.556,352.778,986.111,394.444,N
194,-0.480,1.970,0.615,197.222,111.111,111.111,536.111,450.000,V
195,-0.535,1.280,-0.390,133.333,50.000,363.889,1355.556,819.444,N
196,-0.560,1.180,-0.355,150.000,50.000,330.556,936.111,419.444,N
197,-0.480,1.970,0.255,197.222,113.889,113.889,527.778,408.333,V
198,-0.575,1.120,-0.500,141.667,55.556,350.000,1322.222,794.444,N
199,-0.570,1.145,-0.400,144.444,52.778,341.667,927.778,394.444,N
200,-0.685,1.840,-0.070,197.222,116.667,116.667,544.444,383.333,V
201,-0.675,1.100,-0.485,122.222,58.333,352.778,1333.333,788.889,N
202,-0.550,1.990,0.535,197.222,108.333,108.333,544.444,788.889,V
203,-0.610,1.110,-0.460,138.889,55.556,375.000,1325.000,780.556,N
204,-0.615,1.120,-0.430,158.333,52.778,325.000,916.667,408.333,N
205,-0.595,1.930,0.005,197.222,111.111,111.111,527.778,388.889,V
206,-0.610,1.150,-0.455,138.889,55.556,363.889,1277.778,750.000,N
207,-0.625,2.025,-0.380,197.222,116.667,116.667,566.667,711.111,V
208,-0.590,1.150,-0.445,133.333,52.778,355.556,1288.889,722.222,N
209,-0.675,2.005,-0.010,197.222,108.333,108.333,566.667,722.222,V
210,-0.490,1.300,-0.275,119.444,52.778,344.444,1286.111,719.444,N
211,-0.625,1.860,0.380,147.222,116.667,116.667,633.333,652.778,V
212,-0.430,1.400,-0.260,138.889,52.778,344.444,1258.333,625.000,N
213,-0.315,2.185,0.695,197.222,111.111,111.111,530.556,727.778,V
214,-0.480,1.305,-0.280,125.000,50.000,366.667,1322.222,791.667,N
215,-0.405,2.075,0.250,197.222,116.667,116.667,558.333,763.889,V
216,-0.480,1.360,-0.275,144.444,52.778,352.778,1300.000,741.667,N
217,-0.470,1.255,-0.295,155.556,58.333,347.222,938.889,361.111,N
218,-0.540,1.270,-0.340,158.333,55.556,336.111,897.222,41.667,N
219,-0.580,1.285,-0.360,147.222,52.778,330.556,894.444,2.778,N
220,-0.545,1.230,-0.320,163.889,50.000,325.000,955.556,61.111,N
221,-0.570,1.275,-0.340,166.667,52.778,338.889,913.889,41.667,N
222,-0.390,2.040,-0.600,197.222,108.333,108.333,519.444,394.444,V
223,-0.550,1.240,-0.375,133.333,50.000,350.000,1347.222,827.778,N
224,-0.685,1.970,0.185,197.222,116.667,116.667,566.667,780.556,V
225,-0.550,1.195,-0.450,147.222,52.778,355.556,1338.889,772.222,N
226,-0.675,1.090,-0.490,136.111,52.778,333.333,922.222,416.667,N
227,-0.620,1.140,-0.415,152.778,52.778,336.111,886.111,36.111,N
228,-0.780,1.820,0.725,197.222,116.667,116.667,552.778,333.333,V
229,-0.710,1.105,-0.510,141.667,50.000,352.778,1336.111,783.333,N
230,-0.590,2.075,-0.285,197.222,116.667,116.667,541.667,794.444,V
231,-0.570,1.240,-0.420,141.667,55.556,352.778,1333.333,791.667,N
232,-0.565,2.020,-0.230,197.222,111.111,111.111,547.222,786.111,V
233,-0.500,1.305,-0.350,136.111,55.556,358.333,1311.111,763.889,N
234,-0.560,1.230,-0.400,138.889,55.556,336.111,933.333,377.778,N
235,-0.595,1.215,-0.370,144.444,52.778,325.000,872.222,61.111,N
236,-0.600,1.250,-0.390,163.889,55.556,333.333,930.556,58.333,N
237,-0.605,1.200,-0.390,163.889,52.778,330.556,927.778,2.778,N
238,-0.645,1.190,-0.415,144.444,50.000,344.444,875.000,52.778,N
239,-0.660,1.200,-0.415,163.889,50.000,327.778,927.778,52.778,N
240,-0.625,1.225,-0.420,147.222,50.000,341.667,941.667,13.889,N
241,-0.650,1.150,-0.395,172.222,55.556,350.000,938.889,2.778,N
242,-0.590,1.225,-0.375,161.111,55.556,341.667,941.667,2.778,N
243,-0.655,1.215,-0.425,152.778,50.000,341.667,961.111,19.444,N
244,-0.625,1.200,-0.385,158.333,52.778,336.111,966.667,5.556,N
245,-0.540,2.000,0.335,197.222,116.667,116.667,525.000,441.667,V
246,-0.565,1.300,-0.395,125.000,55.556,361.111,1319.444,794.444,N
247,-0.640,1.180,-0.465,152.778,52.778,319.444,952.778,366.667,N
248,-0.645,1.250,-0.415,161.111,50.000,333.333,886.111,66.667,N
249,-0.615,1.945,0.570,197.222,116.667,116.667,536.111,350.000,V
250,-0.625,1.265,-0.445,130.556,52.778,347.222,1325.000,788.889,N
251,-0.485,2.055,-0.480,197.222,113.889,113.889,541.667,783.333,V
252,-0.485,1.415,-0.365,141.667,55.556,358.333,1333.333,791.667,N
253,-0.550,1.240,-0.430,144.444,52.778,333.333,913.889,419.444,N
254,-0.620,1.250,-0.360,158.333,52.778,344.444,847.222,66.667,N
255,-0.585,2.090,-0.025,197.222,116.667,116.667,550.000,297.222,V
256,-0.575,1.345,-0.430,138.889,52.778,361.111,1294.444,744.444,N
257,-0.550,2.170,0.390,197.222,116.667,116.667,541.667,752.778,V
258,-0.610,1.280,-0.505,119.444,52.778,355.556,1316.667,775.000,N
259,-0.670,1.210,-0.435,141.667,52.778,333.333,875.000,441.667,N
260,-0.685,1.945,0.935,197.222,113.889,113.889,544.444,330.556,V
261,-0.545,1.295,-0.405,144.444,55.556,352.778,1305.556,761.111,N
262,-0.550,1.365,-0.370,155.556,50.000,333.333,886.111,419.444,N
263,-0.585,2.110,0.340,197.222,116.667,116.667,547.222,338.889,V
264,-0.565,1.330,-0.490,141.667,52.778,361.111,1302.778,755.556,N
265,-0.580,1.305,-0.335,144.444,52.778,350.000,930.556,372.222,N
266,-0.500,2.085,0.140,194.444,111.111,111.111,538.889,391.667,V
267,-0.535,1.365,-0.385,136.111,52.778,363.889,1313.889,775.000,N
268,-0.755,1.915,-0.215,58.333,116.667,116.667,727.778,586.111,V
269,-0.535,1.315,-0.420,133.333,52.778,336.111,1238.889,511.111,N
270,-0.545,1.330,-0.290,161.111,52.778,352.778,880.556,358.333,N
271,-0.425,2.145,0.330,197.222,113.889,113.889,536.111,344.444,V
272,-0.435,1.440,-0.305,136.111,52.778,358.333,1327.778,791.667,N
273,-0.440,1.415,-0.295,138.889,52.778,327.778,966.667,361.111,N
274,-0.525,1.365,-0.355,152.778,52.778,333.333,894.444,72.222,N
275,-0.560,1.330,-0.360,155.556,55.556,338.889,866.667,27.778,N
276,-0.545,1.305,-0.345,152.778,55.556,341.667,950.000,83.333,N
277,-0.535,2.030,-0.075,197.222,116.667,116.667,527.778,422.222,V
278,-0.460,1.445,-0.340,144.444,55.556,369.444,1302.778,775.000,N
279,-0.505,1.370,-0.345,152.778,52.778,333.333,955.556,347.222,N
280,-0.555,1.260,-0.380,155.556,52.778,344.444,913.889,41.667,N
281,-0.595,1.260,-0.380,161.111,55.556,344.444,908.333,5.556,N
282,-0.540,1.285,-0.320,155.556,52.778,336.111,891.667,16.667,N
283,-0.455,2.070,-0.085,197.222,113.889,113.889,527.778,363.889,V
284,-0.515,1.330,-0.375,133.333,52.778,355.556,1327.778,800.000,N
285,-0.600,1.215,-0.445,155.556,52.778,327.778,936.111,391.667,N
286,-0.630,1.175,-0.495,163.889,55.556,341.667,891.667,44.444,N
287,-0.720,1.230,-0.475,155.556,55.556,330.556,875.000,16.667,N
288,-0.600,1.305,-0.340,155.556,52.778,327.778,900.000,25.000,N
289,-0.575,2.015,0.275,197.222,116.667,116.667,541.667,358.333,V
290,-0.520,1.345,-0.375,136.111,50.000,358.333,1327.778,786.111,N
291,-0.535,1.370,-0.355,150.000,55.556,338.889,933.333,394.444,N
292,-0.555,1.295,-0.300,155.556,52.778,327.778,936.111,2.778,N
293,-0.440,1.370,-0.220,158.333,55.556,344.444,891.667,44.444,N
294,-0.390,2.170,0.410,197.222,116.667,116.667,530.556,361.111,V
295,-0.475,1.360,-0.255,133.333,55.556,344.444,1305.556,775.000,N
296,-0.340,2.185,0.155,197.222,113.889,113.889,530.556,775.000,V
297,-0.460,1.340,-0.305,138.889,52.778,352.778,1325.000,794.444,N
298,-0.465,1.370,-0.270,150.000,52.778,330.556,916.667,408.333,N
299,-0.485,1.345,-0.205,138.889,52.778,325.000,875.000,41.667,N
300,-0.425,2.115,0.575,197.222,111.111,111.111,530.556,344.444,V
301,-0.475,1.370,-0.320,122.222,52.778,363.889,1316.667,786.111,N
302,-0.500,1.350,-0.300,147.222,55.556,350.000,891.667,425.000,N
303,-0.555,1.230,-0.335,152.778,52.778,330.556,886.111,5.556,N
304,-0.575,2.035,-0.245,197.222,113.889,113.889,533.333,352.778,V
305,-0.510,1.320,-0.335,130.556,58.333,361.111,1302.778,769.444,N
306,-0.525,2.070,-0.250,197.222,116.667,116.667,550.000,752.778,V
307,-0.535,1.310,-0.375,130.556,52.778,344.444,1280.556,730.556,N
308,-0.565,2.065,-0.555,58.333,116.667,116.667,591.667,688.889,V
309,-0.550,1.315,-0.350,141.667,52.778,355.556,1294.444,702.778,N
310,-0.495,1.400,-0.220,130.556,50.000,330.556,883.333,411.111,N
311,-0.450,2.130,0.540,197.222,111.111,111.111,530.556,352.778,V
312,-0.425,1.400,-0.330,122.222,52.778,355.556,1258.333,727.778,N
313,-0.450,1.320,-0.250,152.778,52.778,336.111,872.222,386.111,N
314,-0.490,2.080,0.440,197.222,108.333,108.333,541.667,330.556,V
315,-0.635,1.460,-0.360,130.556,55.556,361.111,1241.667,700.000,N
316,-0.680,1.415,-0.225,147.222,52.778,344.444,875.000,366.667,N
317,-0.665,2.145,-0.645,58.333,116.667,116.667,588.889,286.111,V
318,-0.625,1.435,-0.270,138.889,52.778,344.444,1216.667,627.778,N
319,-0.350,2.220,0.215,197.222,113.889,113.889,522.222,694.444,V
320,-0.610,1.410,-0.270,133.333,55.556,361.111,1330.556,808.333,N
321,-0.365,2.260,-0.455,197.222,116.667,116.667,538.889,791.667,V
322,-0.530,1.455,-0.180,141.667,55.556,355.556,1302.778,763.889,N
323,-0.515,2.200,-0.710,58.333,116.667,116.667,588.889,713.889,V
324,-0.530,1.390,-0.310,144.444,52.778,347.222,1255.556,666.667,N
325,-0.515,1.310,-0.295,147.222,55.556,344.444,930.556,325.000,N
326,-0.485,2.070,0.060,197.222,116.667,116.667,533.333,397.222,V
327,-0.495,1.375,-0.315,147.222,52.778,363.889,1283.333,750.000,N
328,-0.485,1.295,-0.325,150.000,55.556,333.333,900.000,383.333,N
329,-0.485,2.075,-0.250,197.222,111.111,111.111,530.556,369.444,V
330,-0.415,1.420,-0.295,122.222,55.556,352.778,1294.444,763.889,N
331,-0.455,1.405,-0.220,155.556,52.778,327.778,888.889,405.556,N
332,-0.380,2.135,0.390,197.222,111.111,111.111,525.000,363.889,V
333,-0.465,1.420,-0.295,136.111,50.000,333.333,1300.000,775.000,N
334,-0.450,1.350,-0.285,158.333,55.556,333.333,905.556,394.444,N
335,-0.350,2.060,-0.120,197.222,108.333,108.333,522.222,383.333,V
336,-0.490,1.320,-0.330,119.444,55.556,344.444,1294.444,772.222,N
337,-0.455,1.365,-0.165,152.778,55.556,338.889,902.778,391.667,N
338,-0.375,2.160,0.715,197.222,116.667,116.667,533.333,369.444,V
339,-0.420,1.415,-0.230,136.111,52.778,350.000,1294.444,761.111,N
340,-0.285,2.320,0.735,197.222,116.667,116.667,527.778,766.667,V
341,-0.395,1.495,-0.135,147.222,58.333,350.000,1311.111,783.333,N
342,-0.450,1.460,-0.205,150.000,52.778,325.000,858.333,452.778,N
343,-0.540,1.505,-0.130,147.222,52.778,319.444,838.889,19.444,N
344,-0.565,1.425,-0.185,152.778,55.556,341.667,875.000,36.111,N
345,-0.560,1.430,-0.225,147.222,52.778,330.556,844.444,30.556,N
346,-0.560,1.325,-0.265,155.556,52.778,338.889,886.111,41.667,N
347,-0.635,1.295,-0.235,158.333,52.778,327.778,913.889,27.778,N
348,-0.465,1.325,-0.225,155.556,52.778,330.556,863.889,50.000,N
349,-0.435,2.075,0.515,197.222,116.667,116.667,522.222,341.667,V
350,-0.430,1.435,-0.160,141.667,55.556,347.222,1338.889,816.667,N
351,-0.295,2.270,0.395,197.222,113.889,113.889,544.444,794.444,V
352,-0.330,1.520,-0.080,144.444,52.778,347.222,1283.333,738.889,N
353,-0.290,1.440,-0.185,147.222,52.778,338.889,902.778,380.556,N
354,-0.425,1.480,-0.165,144.444,55.556,336.111,861.111,41.667,N
355,-0.410,2.260,0.930,197.222,116.667,116.667,541.667,319.444,V
356,-0.445,1.405,-0.275,138.889,52.778,347.222,1294.444,752.778,N
357,-0.440,1.485,-0.225,152.778,55.556,347.222,880.556,413.889,N
358,-0.520,2.160,0.980,197.222,116.667,116.667,558.333,322.222,V
359,-0.375,1.485,-0.240,127.778,52.778,336.111,1280.556,722.222,N
360,-0.315,1.590,-0.150,158.333,55.556,338.889,875.000,405.556,N
361,-0.300,2.260,2.400,197.222,-333000.000,-302258.333,536.111,338.889,V
362,-0.335,1.490,-0.190,136.111,50.000,355.556,1263.889,727.778,N
363,-0.290,1.585,-0.090,158.333,55.556,341.667,888.889,375.000,N
364,-0.300,2.245,0.555,197.222,111.111,111.111,536.111,352.778,V
365,-0.300,1.595,-0.125,116.667,52.778,366.667,1230.556,694.444,N
366,-0.255,1.625,-0.065,152.778,55.556,336.111,908.333,322.222,N
367,-0.235,2.275,0.820,197.222,116.667,116.667,522.222,386.111,V
368,-0.300,1.520,-0.170,127.778,50.000,361.111,1227.778,705.556,N
369,-0.250,1.605,-0.070,127.778,50.000,333.333,880.556,347.222,N
370,-0.245,2.265,0.980,197.222,116.667,116.667,525.000,355.556,V
371,-0.400,1.405,-0.325,122.222,55.556,355.556,1269.444,744.444,N
372,-0.405,1.510,-0.195,130.556,50.000,333.333,908.333,361.111,N
373,-0.395,1.385,-0.265,152.778,52.778,344.444,886.111,22.222,N
374,-0.480,1.350,-0.245,158.333,55.556,344.444,872.222,13.889,N
375,-0.450,2.135,-0.095,197.222,116.667,116.667,533.333,338.889,V
376,-0.410,1.395,-0.210,116.667,52.778,347.222,1263.889,730.556,N
377,-0.385,2.155,0.335,197.222,116.667,116.667,544.444,719.444,V
378,-0.470,1.330,-0.285,136.111,50.000,347.222,1252.778,708.333,N
379,-0.410,1.385,-0.240,152.778,55.556,330.556,888.889,363.889,N
380,-0.465,1.330,-0.290,144.444,52.778,336.111,855.556,33.333,N
381,-0.475,1.370,-0.285,152.778,52.778,322.222,861.111,5.556,N
382,-0.455,1.310,-0.250,163.889,55.556,336.111,880.556,19.444,N
383,-0.460,1.360,-0.285,152.778,55.556,341.667,855.556,25.000,N
384,-0.525,1.390,-0.320,152.778,55.556,316.667,877.778,22.222,N
385,-0.515,1.280,-0.320,150.000,52.778,327.778,888.889,11.111,N
386,-0.570,1.250,-0.425,161.111,52.778,330.556,855.556,33.333,N
387,-0.645,1.245,-0.380,155.556,55.556,338.889,883.333,27.778,N
388,-0.595,1.195,-0.405,147.222,55.556,327.778,930.556,47.222,N
389,-0.560,1.290,-0.350,163.889,55.556,325.000,869.444,61.111,N
390,-0.520,1.370,-0.315,163.889,55.556,341.667,883.333,13.889,N
391,-0.555,1.240,-0.425,155.556,52.778,330.556,925.000,41.667,N
392,-0.575,1.290,-0.325,163.889,52.778,338.889,869.444,55.556,N
393,-0.385,2.100,0.155,197.222,113.889,113.889,513.889,355.556,V
394,-0.540,1.305,-0.380,127.778,55.556,341.667,1288.889,775.000,N
395,-0.450,2.075,-0.060,197.222,108.333,108.333,536.111,752.778,V
396,-0.475,1.425,-0.315,130.556,52.778,352.778,1302.778,766.667,N
397,-0.515,1.385,-0.355,152.778,50.000,330.556,905.556,397.222,N
398,-0.480,1.440,-0.220,152.778,58.333,344.444,852.778,52.778,N
399,-0.735,2.095,0.570,80.556,116.667,116.667,563.889,288.889,V
400,-0.500,1.395,-0.405,133.333,52.778,363.889,1280.556,716.667,N
401,-0.415,2.255,0.130,197.222,116.667,116.667,536.111,744.444,V
402,-0.525,1.350,-0.390,116.667,52.778,350.000,1286.111,750.000,N
403,-0.550,1.310,-0.355,150.000,55.556,338.889,872.222,413.889,N
404,-0.495,2.095,0.830,197.222,116.667,116.667,525.000,347.222,V
405,-0.410,1.425,-0.305,125.000,52.778,344.444,1275.000,750.000,N
406,-0.475,1.435,-0.290,150.000,55.556,336.111,875.000,400.000,N
407,-0.455,2.110,0.965,197.222,116.667,116.667,513.889,361.111,V
408,-0.460,1.425,-0.360,122.222,55.556,352.778,1280.556,766.667,N
409,-0.475,1.415,-0.270,133.333,52.778,319.444,875.000,405.556,N
410,-0.525,2.140,0.715,197.222,116.667,116.667,519.444,355.556,V
411,-0.465,1.460,-0.330,119.444,52.778,344.444,1272.222,752.778,N
412,-0.525,1.400,-0.330,138.889,50.000,325.000,886.111,386.111,N
413,-0.635,2.100,0.230,197.222,116.667,116.667,544.444,341.667,V
414,-0.475,1.390,-0.405,136.111,50.000,336.111,1283.333,738.889,N
415,-0.505,1.275,-0.340,150.000,52.778,350.000,880.556,402.778,N
416,-0.545,2.065,0.425,197.222,111.111,111.111,550.000,330.556,V
417,-0.555,1.255,-0.415,119.444,52.778,341.667,1294.444,744.444,N
418,-0.590,1.215,-0.440,155.556,55.556,325.000,855.556,438.889,N
419,-0.520,1.990,0.350,197.222,113.889,113.889,519.444,336.111,V
420,-0.640,1.205,-0.515,127.778,52.778,344.444,1258.333,738.889,N
421,-0.660,1.145,-0.540,161.111,52.778,322.222,888.889,369.444,N
422,-0.735,1.155,-0.500,152.778,52.778,336.111,875.000,13.889,N
423,-0.690,1.075,-0.515,144.444,50.000,341.667,891.667,16.667,N
424,-0.735,1.140,-0.490,161.111,52.778,327.778,927.778,36.111,N
425,-0.705,1.205,-0.425,163.889,52.778,333.333,897.222,30.556,N
426,-0.675,1.125,-0.385,161.111,52.778,344.444,911.111,13.889,N
427,-0.595,1.210,-0.440,155.556,52.778,327.778,902.778,8.333,N
428,-0.710,1.170,-0.425,163.889,50.000,319.444,897.222,5.556,N
429,-0.655,1.125,-0.405,161.111,52.778,352.778,930.556,33.333,N
430,-0.640,1.855,-0.485,197.222,116.667,116.667,547.222,383.333,V
431,-0.715,1.155,-0.480,122.222,55.556,347.222,1302.778,755.556,N
432,-0.655,1.115,-0.450,144.444,52.778,341.667,961.111,341.667,N
433,-0.670,1.110,-0.450,141.667,52.778,330.556,888.889,72.222,N
434,-0.705,1.110,-0.460,152.778,52.778,336.111,850.000,38.889,N
435,-0.625,1.195,-0.395,155.556,52.778,330.556,911.111,61.111,N
436,-0.640,1.190,-0.415,155.556,55.556,333.333,866.667,44.444,N
437,-0.680,1.170,-0.415,147.222,55.556,344.444,886.111,19.444,N
438,-0.575,1.180,-0.380,152.778,52.778,336.111,911.111,25.000,N
439,-0.640,1.100,-0.505,155.556,58.333,336.111,866.667,44.444,N
440,-0.745,1.140,-0.465,169.444,55.556,344.444,897.222,30.556,N
441,-0.670,1.150,-0.490,166.667,55.556,327.778,925.000,27.778,N
442,-0.720,1.040,-0.525,161.111,50.000,305.556,880.556,44.444,N
443,-0.760,1.125,-0.495,166.667,52.778,336.111,877.778,2.778,N
444,-0.710,1.060,-0.550,150.000,55.556,333.333,913.889,36.111,N
445,-0.795,1.050,-0.610,166.667,52.778,325.000,894.444,19.444,N
446,-0.815,1.040,-0.550,169.444,52.778,316.667,908.333,13.889,N
447,-0.765,1.035,-0.575,155.556,52.778,333.333,894.444,13.889,N
448,-0.795,0.955,-0.640,163.889,52.778,341.667,880.556,13.889,N
449,-0.845,1.035,-0.610,161.111,52.778,330.556,902.778,22.222,N
450,-0.760,1.055,-0.570,155.556,52.778,336.111,891.667,11.111,N
451,-0.825,1.015,-0.615,147.222,55.556,350.000,861.111,30.556,N
452,-0.815,1.095,-0.590,161.111,50.000,325.000,888.889,27.778,N
453,-0.750,1.080,-0.570,163.889,52.778,350.000,911.111,22.222,N
454,-0.765,0.980,-0.610,166.667,55.556,336.111,891.667,19.444,N
455,-0.800,1.025,-0.555,138.889,50.000,330.556,869.444,22.222,N
456,-0.745,1.125,-0.535,138.889,52.778,336.111,902.778,33.333,N
457,-0.745,1.110,-0.580,169.444,52.778,336.111,911.111,8.333,N
458,-0.760,1.130,-0.595,158.333,52.778,336.111,838.889,72.222,N
459,-0.770,1.110,-0.510,150.000,50.000,333.333,869.444,30.556,N
460,-0.745,1.905,-0.125,197.222,116.667,116.667,530.556,338.889,V
461,-0.740,1.200,-0.565,144.444,52.778,344.444,1269.444,738.889,N
462,-0.685,1.160,-0.520,158.333,55.556,341.667,936.111,333.333,N
463,-0.720,1.145,-0.500,158.333,52.778,330.556,905.556,30.556,N
464,-0.670,1.220,-0.470,158.333,50.000,330.556,855.556,50.000,N
465,-0.700,1.210,-0.445,150.000,58.333,347.222,902.778,47.222,N
466,-0.700,1.915,-0.055,197.222,113.889,113.889,550.000,352.778,V
467,-0.630,1.305,-0.430,136.111,50.000,336.111,1291.667,741.667,N
468,-0.605,1.235,-0.460,158.333,50.000,336.111,933.333,358.333,N
469,-0.665,1.180,-0.480,161.111,52.778,336.111,866.667,66.667,N
470,-0.715,1.250,-0.500,169.444,55.556,344.444,894.444,27.778,N
471,-0.720,1.135,-0.500,163.889,52.778,327.778,922.222,27.778,N
472,-0.725,1.165,-0.520,163.889,50.000,327.778,866.667,55.556,N
473,-0.745,1.185,-0.505,166.667,55.556,344.444,919.444,52.778,N
474,-0.680,1.155,-0.545,163.889,50.000,333.333,944.444,25.000,N
475,-0.730,1.180,-0.520,161.111,55.556,322.222,891.667,52.778,N
476,-0.615,1.935,0.355,197.222,113.889,113.889,511.111,380.556,V
477,-0.575,1.265,-0.415,141.667,55.556,358.333,1333.333,822.222,N
478,-0.570,1.300,-0.420,163.889,52.778,344.444,908.333,425.000,N
479,-0.660,2.060,0.560,197.222,113.889,113.889,547.222,361.111,V
480,-0.515,1.340,-0.425,141.667,55.556,352.778,1325.000,777.778,N
481,-0.535,1.320,-0.370,155.556,55.556,352.778,897.222,427.778,N
482,-0.565,2.105,2.400,197.222,-441466.667,-410725.000,555.556,341.667,V
483,-0.515,1.345,-0.440,141.667,52.778,333.333,1330.556,775.000,N
484,-0.545,1.325,-0.345,155.556,55.556,344.444,880.556,450.000,N
485,-0.520,2.160,-0.135,197.222,116.667,116.667,533.333,347.222,V
486,-0.450,1.425,-0.430,138.889,52.778,352.778,1269.444,736.111,N
487,-0.530,1.385,-0.315,138.889,52.778,327.778,894.444,375.000,N
488,-0.470,2.160,0.005,197.222,108.333,108.333,525.000,369.444,V
489,-0.545,1.295,-0.450,116.667,52.778,355.556,1252.778,727.778,N
490,-0.595,2.090,0.295,197.222,116.667,116.667,558.333,694.444,V
491,-0.555,1.280,-0.425,119.444,55.556,341.667,1277.778,719.444,N
492,-0.590,1.265,-0.430,155.556,55.556,338.889,883.333,394.444,N
493,-0.635,1.255,-0.360,152.778,55.556,344.444,844.444,38.889,N
494,-0.505,2.155,0.395,197.222,116.667,116.667,527.778,316.667,V
495,-0.555,1.350,-0.420,130.556,52.778,347.222,1325.000,797.222,N
496,-0.585,1.255,-0.440,152.778,55.556,338.889,886.111,438.889,N
497,-0.585,1.300,-0.375,152.778,52.778,341.667,905.556,19.444,N
498,-0.605,1.300,-0.385,155.556,47.222,325.000,947.222,41.667,N
499,-0.615,1.260,-0.365,150.000,55.556,336.111,886.111,61.111,N
500,-0.565,1.335,-0.315,163.889,52.778,347.222,888.889,2.778,N
501,-0.590,1.290,-0.370,161.111,55.556,333.333,930.556,41.667,N
502,-0.625,1.220,-0.385,158.333,50.000,338.889,886.111,44.444,N
503,-0.540,1.950,0.480,197.222,111.111,111.111,527.778,358.333,V
504,-0.530,1.335,-0.340,125.000,52.778,341.667,1341.667,813.889,N
505,-0.450,2.090,-0.630,197.222,116.667,116.667,536.111,805.556,V
506,-0.515,1.320,-0.355,138.889,52.778,347.222,1327.778,791.667,N
507,-0.515,1.390,-0.355,150.000,52.778,338.889,941.667,386.111,N
508,-0.565,1.300,-0.380,155.556,58.333,344.444,861.111,80.556,N
509,-0.595,2.080,-0.440,197.222,113.889,113.889,547.222,313.889,V
510,-0.535,1.295,-0.410,136.111,52.778,355.556,1302.778,755.556,N
511,-0.575,2.090,0.135,197.222,116.667,116.667,550.000,752.778,V
512,-0.535,1.350,-0.380,138.889,52.778,355.556,1313.889,763.889,N
513,-0.535,2.125,-0.385,197.222,113.889,113.889,547.222,766.667,V
514,-0.630,1.260,-0.540,122.222,55.556,350.000,1308.333,761.111,N
515,-0.530,1.280,-0.430,150.000,55.556,338.889,927.778,380.556,N
516,-0.630,1.210,-0.510,155.556,52.778,338.889,850.000,77.778,N
517,-0.705,1.175,-0.565,150.000,50.000,325.000,880.556,30.556,N
518,-0.700,1.175,-0.500,158.333,50.000,336.111,894.444,13.889,N
519,-0.630,1.960,-0.070,197.222,116.667,116.667,530.556,363.889,V
520,-0.715,1.160,-0.610,116.667,55.556,350.000,1316.667,786.111,N
521,-0.655,1.165,-0.450,147.222,52.778,336.111,938.889,377.778,N
522,-0.575,1.170,-0.500,161.111,55.556,341.667,933.333,5.556,N
523,-0.690,1.245,-0.440,166.667,52.778,333.333,880.556,52.778,N
524,-0.630,1.185,-0.450,155.556,52.778,338.889,891.667,11.111,N
525,-0.735,1.940,-0.080,197.222,113.889,113.889,547.222,344.444,V
526,-0.645,1.255,-0.480,133.333,50.000,355.556,1300.000,752.778,N
527,-0.595,1.305,-0.430,150.000,52.778,352.778,972.222,327.778,N
528,-0.645,1.155,-0.545,155.556,55.556,325.000,911.111,61.111,N
529,-0.695,1.225,-0.490,155.556,52.778,336.111,875.000,36.111,N
530,-0.700,1.175,-0.520,163.889,55.556,336.111,938.889,63.889,N
531,-0.715,1.040,-0.555,163.889,52.778,341.667,880.556,58.333,N
532,-0.715,1.215,-0.490,158.333,52.778,336.111,880.556,0.000,N
533,-0.680,1.175,-0.530,161.111,52.778,327.778,936.111,55.556,N
534,-0.755,1.115,-0.570,163.889,50.000,330.556,875.000,61.111,N
535,-0.750,1.130,-0.565,161.111,55.556,361.111,894.444,19.444,N
536,-0.685,1.225,-0.450,155.556,47.222,322.222,941.667,47.222,N
537,-0.700,1.095,-0.595,163.889,55.556,327.778,905.556,36.111,N
538,-0.745,1.160,-0.495,169.444,55.556,355.556,897.222,8.333,N
539,-0.710,1.200,-0.505,155.556,52.778,330.556,927.778,30.556,N
540,-0.720,1.090,-0.550,155.556,52.778,325.000,897.222,30.556,N
541,-0.740,1.095,-0.600,166.667,52.778,322.222,877.778,19.444,N
542,-0.790,1.155,-0.525,141.667,52.778,330.556,900.000,22.222,N
543,-0.750,1.035,-0.635,163.889,50.000,338.889,902.778,2.778,N
544,-0.820,1.115,-0.595,166.667,52.778,330.556,900.000,2.778,N
545,-0.760,1.130,-0.590,155.556,50.000,333.333,888.889,11.111,N
546,-0.825,0.955,-0.650,147.222,55.556,355.556,883.333,5.556,N
547,-0.860,1.035,-0.680,158.333,52.778,330.556,891.667,8.333,N
548,-0.900,1.010,-0.710,163.889,52.778,325.000,900.000,8.333,N
549,-0.885,0.975,-0.690,163.889,50.000,344.444,877.778,22.222,N
550,-0.830,1.100,-0.615,152.778,52.778,338.889,866.667,11.111,N
551,-0.780,1.140,-0.620,158.333,52.778,338.889,902.778,36.111,N
552,-0.800,0.990,-0.615,169.444,55.556,338.889,900.000,2.778,N
553,-0.755,1.145,-0.575,166.667,55.556,336.111,875.000,25.000,N
554,-0.745,1.115,-0.590,158.333,52.778,336.111,902.778,27.778,N
555,-0.820,1.045,-0.630,155.556,52.778,336.111,897.222,5.556,N
556,-0.840,1.085,-0.580,172.222,55.556,341.667,900.000,2.778,N
557,-0.785,1.070,-0.600,158.333,55.556,338.889,911.111,11.111,N
558,-0.800,1.075,-0.560,163.889,52.778,336.111,894.444,16.667,N
559,-0.750,1.205,-0.535,163.889,52.778,350.000,883.333,11.111,N
560,-0.770,1.070,-0.610,169.444,52.778,338.889,930.556,47.222,N
561,-0.855,1.020,-0.640,161.111,52.778,333.333,891.667,38.889,N
562,-0.820,1.140,-0.565,161.111,55.556,336.111,900.000,8.333,N
563,-0.810,1.025,-0.570,152.778,52.778,344.444,925.000,25.000,N
564,-0.770,1.075,-0.600,163.889,52.778,327.778,883.333,41.667,N
565,-0.790,1.185,-0.565,155.556,50.000,327.778,897.222,13.889,N
566,-0.755,1.135,-0.550,163.889,50.000,330.556,900.000,2.778,N
567,-0.765,1.085,-0.600,166.667,55.556,325.000,875.000,25.000,N
568,-0.770,1.150,-0.505,163.889,50.000,336.111,886.111,11.111,N
569,-0.705,1.135,-0.505,155.556,52.778,338.889,927.778,41.667,N
570,-0.745,1.130,-0.565,161.111,52.778,336.111,908.333,19.444,N
571,-0.755,1.145,-0.520,163.889,55.556,341.667,869.444,38.889,N
572,-0.670,1.270,-0.470,163.889,50.000,336.111,947.222,77.778,N
573,-0.695,1.195,-0.540,172.222,50.000,322.222,930.556,16.667,N
574,-0.730,1.220,-0.555,169.444,52.778,338.889,863.889,66.667,N
575,-0.740,1.180,-0.495,161.111,52.778,347.222,913.889,50.000,N
576,-0.680,1.250,-0.485,169.444,52.778,325.000,897.222,16.667,N
577,-0.650,1.290,-0.420,169.444,52.778,333.333,886.111,11.111,N
578,-0.645,1.280,-0.415,141.667,52.778,330.556,908.333,22.222,N
579,-0.605,1.170,-0.435,152.778,52.778,338.889,883.333,25.000,N
580,-0.630,1.245,-0.435,163.889,55.556,341.667,900.000,16.667,N
581,-0.560,1.380,-0.345,163.889,50.000,327.778,913.889,13.889,N
582,-0.565,1.315,-0.410,163.889,50.000,344.444,880.556,33.333,N
583,-0.585,1.360,-0.430,163.889,55.556,338.889,883.333,2.778,N
584,-0.615,1.290,-0.450,158.333,52.778,336.111,900.000,16.667,N
585,-0.630,1.230,-0.485,163.889,55.556,338.889,900.000,0.000,N
586,-0.610,1.340,-0.430,163.889,55.556,336.111,902.778,2.778,N
587,-0.580,1.340,-0.445,158.333,52.778,336.111,902.778,0.000,N
588,-0.570,1.295,-0.485,169.444,52.778,333.333,902.778,0.000,N
589,-0.655,1.280,-0.495,169.444,52.778,347.222,877.778,25.000,N
590,-0.680,1.205,-0.540,144.444,52.778,347.222,866.667,11.111,N
591,-0.740,1.185,-0.555,158.333,50.000,325.000,863.889,2.778,N
592,-0.670,1.260,-0.525,163.889,55.556,327.778,858.333,5.556,N
593,-0.700,1.210,-0.545,158.333,50.000,352.778,875.000,16.667,N
594,-0.740,1.160,-0.560,158.333,50.000,330.556,891.667,16.667,N
595,-0.695,1.270,-0.510,158.333,52.778,327.778,855.556,36.111,N
596,-0.680,1.230,-0.515,166.667,55.556,350.000,905.556,50.000,N
597,-0.805,2.050,-0.450,197.222,116.667,116.667,555.556,350.000,V
598,-0.570,1.385,-0.390,136.111,52.778,347.222,1291.667,736.111,N
599,-0.495,1.375,-0.325,155.556,52.778,344.444,944.444,347.222,N
600,-0.485,1.350,-0.375,158.333,52.778,336.111,908.333,36.111,N
601,-0.515,1.410,-0.305,163.889,55.556,338.889,875.000,33.333,N
602,-0.465,1.435,-0.265,161.111,55.556,336.111,933.333,58.333,N
603,-0.350,2.200,0.595,197.222,116.667,116.667,516.667,416.667,V
604,-0.465,1.505,-0.295,127.778,55.556,366.667,1319.444,802.778,N
605,-0.410,1.490,-0.300,152.778,52.778,338.889,969.444,350.000,N
606,-0.430,1.410,-0.330,147.222,52.778,308.333,922.222,47.222,N
607,-0.520,1.360,-0.380,150.000,52.778,319.444,897.222,25.000,N
608,-0.530,1.375,-0.305,152.778,55.556,338.889,908.333,11.111,N
609,-0.425,2.160,0.400,197.222,116.667,116.667,525.000,383.333,V
610,-0.540,1.390,-0.455,136.111,52.778,355.556,1350.000,825.000,N
611,-0.540,1.335,-0.405,155.556,52.778,338.889,952.778,397.222,N
612,-0.500,1.375,-0.395,163.889,58.333,363.889,913.889,38.889,N
613,-0.545,1.400,-0.325,158.333,50.000,336.111,900.000,13.889,N
614,-0.505,1.395,-0.300,150.000,50.000,330.556,908.333,8.333,N
615,-0.415,2.075,0.920,197.222,116.667,116.667,516.667,391.667,V
616,-0.500,1.385,-0.400,138.889,52.778,347.222,1322.222,805.556,N
617,-0.465,1.400,-0.340,155.556,55.556,344.444,952.778,369.444,N
618,-0.550,1.300,-0.415,138.889,50.000,327.778,908.333,44.444,N
619,-0.600,1.330,-0.415,155.556,52.778,333.333,858.333,50.000,N
620,-0.605,1.285,-0.435,169.444,55.556,336.111,908.333,50.000,N
621,-0.660,1.270,-0.435,163.889,50.000,338.889,880.556,27.778,N
622,-0.615,2.080,0.565,197.222,116.667,116.667,533.333,347.222,V
623,-0.490,1.345,-0.355,141.667,55.556,347.222,1330.556,797.222,N
624,-0.545,1.325,-0.345,161.111,52.778,330.556,894.444,436.111,N
625,-0.510,2.145,0.340,197.222,116.667,116.667,530.556,363.889,V
626,-0.425,1.415,-0.345,138.889,52.778,358.333,1372.222,841.667,N
627,-0.450,1.365,-0.310,152.778,55.556,341.667,911.111,461.111,N
628,-0.390,2.130,0.065,197.222,116.667,116.667,525.000,386.111,V
629,-0.495,1.335,-0.445,133.333,52.778,363.889,1352.778,827.778,N
630,-0.490,1.365,-0.365,150.000,55.556,316.667,927.778,425.000,N
631,-0.480,2.070,0.590,197.222,113.889,113.889,522.222,405.556,V
632,-0.625,1.210,-0.535,119.444,52.778,350.000,1311.111,788.889,N
633,-0.630,1.215,-0.445,158.333,55.556,347.222,930.556,380.556,N
634,-0.630,1.960,0.240,197.222,116.667,116.667,538.889,391.667,V
635,-0.670,1.180,-0.600,141.667,52.778,344.444,1311.111,772.222,N
636,-0.630,1.270,-0.470,161.111,58.333,344.444,927.778,383.333,N
637,-0.540,1.990,0.345,197.222,116.667,116.667,533.333,394.444,V
638,-0.600,1.260,-0.540,133.333,55.556,355.556,1313.889,780.556,N
639,-0.680,2.095,0.845,197.222,116.667,116.667,552.778,761.111,V
640,-0.570,1.235,-0.470,141.667,52.778,352.778,1325.000,772.222,N
641,-0.590,1.315,-0.425,155.556,52.778,336.111,888.889,436.111,N
642,-0.650,2.015,0.555,197.222,116.667,116.667,547.222,341.667,V
643,-0.560,1.265,-0.480,122.222,50.000,344.444,1275.000,727.778,N
644,-0.565,1.290,-0.400,152.778,58.333,352.778,922.222,352.778,N
645,-0.570,2.020,0.390,197.222,111.111,111.111,547.222,375.000,V
646,-0.590,1.215,-0.535,133.333,52.778,330.556,1283.333,736.111,N
647,-0.590,1.210,-0.420,158.333,52.778,344.444,883.333,400.000,N
648,-0.470,2.040,0.755,194.444,113.889,113.889,516.667,366.667,V
649,-0.550,1.220,-0.520,141.667,55.556,352.778,1277.778,761.111,N
650,-0.580,2.070,0.615,197.222,113.889,113.889,541.667,736.111,V
651,-0.720,1.225,-0.505,133.333,55.556,350.000,1297.222,755.556,N
652,-0.755,1.255,-0.445,144.444,55.556,350.000,858.333,438.889,N
653,-0.675,2.040,0.300,197.222,111.111,111.111,555.556,302.778,V
654,-0.755,1.340,-0.455,136.111,50.000,352.778,1247.222,691.667,N
655,-0.700,1.365,-0.330,144.444,52.778,347.222,861.111,386.111,N
656,-0.460,2.130,0.115,197.222,113.889,113.889,536.111,325.000,V
657,-0.765,1.265,-0.440,133.333,52.778,352.778,1333.333,797.222,N
658,-0.585,1.355,-0.325,163.889,52.778,344.444,941.667,391.667,N
659,-0.420,2.150,0.625,197.222,116.667,116.667,522.222,419.444,V
660,-0.430,1.385,-0.340,133.333,47.222,355.556,1333.333,811.111,N
661,-0.410,1.410,-0.275,155.556,50.000,333.333,925.000,408.333,N
662,-0.480,1.355,-0.280,144.444,55.556,336.111,916.667,8.333,N
663,-0.465,1.290,-0.325,161.111,55.556,338.889,891.667,25.000,N
664,-0.475,1.320,-0.280,158.333,50.000,333.333,891.667,0.000,N
665,-0.505,1.350,-0.290,155.556,52.778,341.667,900.000,8.333,N
666,-0.555,1.195,-0.435,163.889,50.000,341.667,916.667,16.667,N
667,-0.630,1.215,-0.330,161.111,55.556,336.111,880.556,36.111,N
668,-0.720,1.995,-0.095,197.222,113.889,113.889,550.000,330.556,V
669,-0.520,1.310,-0.385,125.000,55.556,350.000,1322.222,772.222,N
670,-0.475,1.380,-0.260,158.333,55.556,338.889,900.000,422.222,N
671,-0.455,2.125,-0.060,197.222,116.667,116.667,533.333,366.667,V
672,-0.520,1.305,-0.415,119.444,52.778,347.222,1300.000,766.667,N
673,-0.440,2.190,0.695,197.222,111.111,111.111,536.111,763.889,V
674,-0.545,1.245,-0.460,147.222,55.556,375.000,1325.000,788.889,N
675,-0.575,1.230,-0.450,138.889,55.556,325.000,888.889,436.111,N
676,-0.585,1.240,-0.420,152.778,52.778,325.000,850.000,38.889,N
677,-0.650,1.215,-0.465,147.222,55.556,352.778,891.667,41.667,N
678,-0.650,1.185,-0.405,155.556,50.000,330.556,886.111,5.556,N
679,-0.610,1.260,-0.395,155.556,50.000,322.222,869.444,16.667,N
680,-0.645,1.230,-0.435,147.222,52.778,330.556,911.111,41.667,N
681,-0.555,1.905,0.175,197.222,113.889,113.889,522.222,388.889,V
682,-0.490,1.405,-0.340,141.667,50.000,352.778,1308.333,786.111,N
683,-0.485,1.335,-0.325,152.778,52.778,319.444,969.444,338.889,N
684,-0.485,1.240,-0.360,152.778,55.556,325.000,875.000,94.444,N
685,-0.580,1.315,-0.365,161.111,58.333,350.000,863.889,11.111,N
686,-0.585,1.315,-0.340,144.444,50.000,336.111,933.333,69.444,N
687,-0.465,1.995,0.755,197.222,111.111,111.111,525.000,408.333,V
688,-0.610,1.305,-0.470,144.444,55.556,350.000,1313.889,788.889,N
689,-0.550,1.350,-0.380,155.556,52.778,330.556,975.000,338.889,N
690,-0.545,1.275,-0.435,158.333,55.556,347.222,911.111,63.889,N
691,-0.595,1.275,-0.450,166.667,52.778,327.778,905.556,5.556,N
692,-0.600,1.335,-0.330,163.889,55.556,336.111,922.222,16.667,N
693,-0.465,2.060,-0.115,197.222,116.667,116.667,519.444,402.778,V
694,-0.540,1.390,-0.360,136.111,55.556,355.556,1363.889,844.444,N
695,-0.505,1.345,-0.380,136.111,52.778,333.333,958.333,405.556,N
696,-0.530,1.260,-0.385,161.111,50.000,333.333,891.667,66.667,N
697,-0.565,1.300,-0.375,158.333,52.778,330.556,863.889,27.778,N
698,-0.560,1.320,-0.345,163.889,52.778,336.111,911.111,47.222,N
699,-0.575,1.225,-0.390,163.889,55.556,322.222,916.667,5.556,N
700,-0.565,1.305,-0.375,158.333,52.778,341.667,866.667,50.000,N
701,-0.565,1.325,-0.335,166.667,52.778,355.556,919.444,52.778,N
702,-0.585,1.205,-0.450,158.333,52.778,316.667,919.444,0.000,N
703,-0.620,1.280,-0.425,161.111,52.778,330.556,869.444,50.000,N
704,-0.610,1.275,-0.390,163.889,52.778,347.222,905.556,36.111,N
705,-0.605,1.225,-0.480,163.889,50.000,327.778,902.778,2.778,N
706,-0.695,1.245,-0.465,175.000,52.778,333.333,886.111,16.667,N
707,-0.680,1.160,-0.505,172.222,55.556,344.444,933.333,47.222,N
708,-0.740,1.100,-0.565,161.111,50.000,333.333,886.111,47.222,N
709,-0.775,1.200,-0.515,150.000,50.000,344.444,880.556,5.556,N
710,-0.735,1.130,-0.570,163.889,52.778,333.333,947.222,66.667,N
711,-0.715,1.190,-0.490,166.667,50.000,330.556,869.444,77.778,N
712,-0.590,2.000,-0.205,197.222,113.889,113.889,511.111,358.333,V
713,-0.580,1.280,-0.470,133.333,52.778,352.778,1322.222,811.111,N
714,-0.560,1.325,-0.355,158.333,55.556,341.667,897.222,425.000,N
715,-0.490,2.120,0.725,197.222,116.667,116.667,530.556,366.667,V
716,-0.485,1.400,-0.410,133.333,50.000,358.333,1313.889,783.333,N
717,-0.560,1.325,-0.445,144.444,52.778,333.333,902.778,411.111,N
718,-0.600,1.370,-0.410,163.889,52.778,327.778,902.778,0.000,N
719,-0.590,1.245,-0.475,166.667,52.778,330.556,897.222,5.556,N
720,-0.640,1.205,-0.460,161.111,52.778,336.111,855.556,41.667,N
721,-0.620,1.310,-0.455,138.889,50.000,325.000,880.556,25.000,N
722,-0.640,1.220,-0.470,152.778,55.556,341.667,913.889,33.333,N
723,-0.660,1.130,-0.475,163.889,52.778,338.889,908.333,5.556,N
724,-0.685,1.205,-0.445,158.333,55.556,333.333,869.444,38.889,N
725,-0.610,1.200,-0.445,161.111,52.778,341.667,927.778,58.333,N
726,-0.655,1.240,-0.425,161.111,55.556,333.333,908.333,19.444,N
727,-0.590,1.320,-0.415,169.444,50.000,330.556,905.556,2.778,N
728,-0.640,1.205,-0.460,152.778,55.556,341.667,913.889,8.333,N
729,-0.665,1.155,-0.485,166.667,52.778,325.000,902.778,11.111,N
730,-0.660,1.255,-0.405,155.556,55.556,338.889,902.778,0.000,N
731,-0.570,1.275,-0.410,172.222,52.778,358.333,947.222,44.444,N
732,-0.590,1.295,-0.400,163.889,55.556,338.889,888.889,58.333,N
733,-0.650,2.040,0.155,197.222,116.667,116.667,533.333,355.556,V
734,-0.465,1.305,-0.360,147.222,55.556,355.556,1358.333,825.000,N
735,-0.495,1.405,-0.335,166.667,55.556,338.889,916.667,441.667,N
736,-0.465,2.160,-0.260,197.222,111.111,111.111,536.111,380.556,V
737,-0.350,1.475,-0.305,130.556,50.000,363.889,1302.778,766.667,N
738,-0.425,1.425,-0.290,163.889,55.556,330.556,905.556,397.222,N
739,-0.435,2.130,0.950,197.222,113.889,113.889,533.333,372.222,V
740,-0.370,1.460,-0.320,136.111,55.556,363.889,1327.778,794.444,N
741,-0.445,1.425,-0.330,150.000,50.000,330.556,883.333,444.444,N
742,-0.415,1.450,-0.275,161.111,52.778,330.556,919.444,36.111,N
743,-0.495,1.310,-0.385,158.333,52.778,341.667,886.111,33.333,N
744,-0.570,1.300,-0.370,152.778,50.000,327.778,850.000,36.111,N
745,-0.600,2.055,0.615,197.222,113.889,113.889,541.667,308.333,V
746,-0.405,1.430,-0.335,138.889,55.556,350.000,1322.222,780.556,N
747,-0.470,1.360,-0.320,155.556,50.000,338.889,905.556,416.667,N
748,-0.455,2.145,0.595,197.222,116.667,116.667,541.667,363.889,V
749,-0.370,1.430,-0.305,125.000,52.778,341.667,1313.889,772.222,N
750,-0.465,1.295,-0.355,147.222,58.333,350.000,894.444,419.444,N
751,-0.505,1.325,-0.365,150.000,50.000,338.889,894.444,0.000,N
752,-0.570,1.220,-0.400,150.000,50.000,333.333,883.333,11.111,N
753,-0.600,1.285,-0.370,166.667,50.000,325.000,883.333,0.000,N
754,-0.545,2.030,-0.110,197.222,111.111,111.111,522.222,361.111,V
755,-0.535,1.275,-0.435,122.222,55.556,363.889,1297.222,775.000,N
756,-0.550,1.360,-0.340,138.889,52.778,322.222,913.889,383.333,N
757,-0.540,2.075,0.555,197.222,116.667,116.667,536.111,377.778,V
758,-0.500,1.370,-0.410,138.889,50.000,361.111,1294.444,758.333,N
759,-0.545,1.300,-0.410,144.444,52.778,330.556,941.667,352.778,N
760,-0.515,1.230,-0.395,152.778,52.778,313.889,911.111,30.556,N
761,-0.575,1.190,-0.470,163.889,58.333,330.556,855.556,55.556,N
762,-0.665,1.175,-0.435,152.778,50.000,338.889,877.778,22.222,N
763,-0.590,1.180,-0.470,155.556,52.778,336.111,900.000,22.222,N
764,-0.665,1.175,-0.515,163.889,52.778,330.556,880.556,19.444,N
765,-0.705,1.185,-0.510,144.444,50.000,322.222,877.778,2.778,N
766,-0.645,1.200,-0.445,161.111,52.778,344.444,900.000,22.222,N
767,-0.635,1.215,-0.490,161.111,52.778,327.778,900.000,0.000,N
768,-0.660,1.270,-0.445,163.889,55.556,330.556,897.222,2.778,N
769,-0.650,1.175,-0.395,163.889,52.778,350.000,875.000,22.222,N
770,-0.620,1.195,-0.480,161.111,52.778,327.778,894.444,19.444,N
771,-0.655,1.205,-0.475,158.333,50.000,341.667,872.222,22.222,N
772,-0.645,1.155,-0.445,163.889,55.556,347.222,916.667,44.444,N
773,-0.600,1.175,-0.460,161.111,52.778,322.222,908.333,8.333,N
774,-0.640,1.215,-0.435,163.889,52.778,336.111,855.556,52.778,N
775,-0.605,1.220,-0.415,169.444,52.778,344.444,922.222,66.667,N
776,-0.530,1.965,0.210,197.222,113.889,113.889,527.778,394.444,V
777,-0.535,1.335,-0.425,136.111,50.000,352.778,1297.222,769.444,N
778,-0.545,1.290,-0.420,152.778,52.778,341.667,947.222,350.000,N
779,-0.530,1.230,-0.470,158.333,52.778,330.556,880.556,66.667,N
780,-0.620,1.285,-0.480,161.111,52.778,338.889,902.778,22.222,N
781,-0.580,1.265,-0.380,155.556,52.778,338.889,922.222,19.444,N
782,-0.435,2.050,0.400,197.222,116.667,116.667,519.444,402.778,V
783,-0.570,1.325,-0.455,130.556,58.333,369.444,1325.000,805.556,N
784,-0.535,1.260,-0.465,161.111,55.556,347.222,952.778,372.222,N
785,-0.595,1.145,-0.530,147.222,50.000,336.111,875.000,77.778,N
786,-0.625,1.235,-0.475,163.889,52.778,333.333,875.000,0.000,N
787,-0.650,1.240,-0.395,158.333,52.778,336.111,869.444,5.556,N
788,-0.615,2.075,-0.585,197.222,113.889,113.889,533.333,336.111,V
789,-0.580,1.320,-0.515,136.111,52.778,336.111,1302.778,769.444,N
790,-0.570,1.265,-0.440,152.778,52.778,336.111,919.444,383.333,N
791,-0.540,1.285,-0.425,163.889,55.556,352.778,891.667,27.778,N
792,-0.560,1.360,-0.405,163.889,50.000,330.556,886.111,5.556,N
793,-0.565,1.310,-0.345,161.111,50.000,319.444,913.889,27.778,N
794,-0.440,2.055,0.585,197.222,116.667,116.667,511.111,402.778,V
795,-0.480,1.430,-0.305,119.444,52.778,347.222,1333.333,822.222,N
796,-0.435,1.325,-0.350,161.111,50.000,344.444,963.889,369.444,N
797,-0.475,1.350,-0.365,163.889,55.556,327.778,922.222,41.667,N
798,-0.515,1.365,-0.335,166.667,52.778,333.333,902.778,19.444,N
799,-0.510,1.235,-0.395,166.667,55.556,352.778,938.889,36.111,N
800,-0.575,1.275,-0.375,163.889,50.000,319.444,897.222,41.667,N
801,-0.550,2.055,0.220,197.222,116.667,116.667,527.778,369.444,V
802,-0.510,1.275,-0.445,133.333,52.778,358.333,1333.333,805.556,N
803,-0.535,1.315,-0.385,155.556,55.556,330.556,905.556,427.778,N
804,-0.470,2.115,0.350,197.222,111.111,111.111,525.000,380.556,V
805,-0.495,1.310,-0.430,141.667,50.000,347.222,1350.000,825.000,N
806,-0.470,1.370,-0.280,158.333,52.778,338.889,905.556,444.444,N
807,-0.410,2.165,-0.120,197.222,116.667,116.667,525.000,380.556,V
808,-0.465,1.360,-0.440,136.111,52.778,355.556,1336.111,811.111,N
809,-0.555,2.180,0.650,194.444,111.111,111.111,550.000,786.111,V
810,-0.435,1.315,-0.410,147.222,55.556,341.667,1363.889,813.889,N
811,-0.500,1.300,-0.440,158.333,55.556,341.667,902.778,461.111,N
812,-0.545,1.285,-0.375,161.111,52.778,350.000,925.000,22.222,N
813,-0.555,1.205,-0.445,158.333,55.556,333.333,938.889,13.889,N
814,-0.565,1.280,-0.430,163.889,52.778,333.333,877.778,61.111,N
815,-0.560,1.965,0.575,197.222,116.667,116.667,522.222,355.556,V
816,-0.520,1.245,-0.410,141.667,55.556,352.778,1336.111,813.889,N
817,-0.470,2.120,0.090,197.222,116.667,116.667,544.444,791.667,V
818,-0.445,1.335,-0.330,141.667,50.000,347.222,1311.111,766.667,N
819,-0.480,1.240,-0.410,158.333,52.778,333.333,922.222,388.889,N
820,-0.550,1.305,-0.385,163.889,52.778,330.556,872.222,50.000,N
821,-0.555,2.060,0.525,197.222,116.667,116.667,536.111,336.111,V
822,-0.500,1.255,-0.445,141.667,52.778,350.000,1308.333,772.222,N
823,-0.580,2.040,-0.350,197.222,116.667,116.667,541.667,766.667,V
824,-0.660,1.215,-0.520,122.222,52.778,347.222,1330.556,788.889,N
825,-0.610,1.155,-0.540,150.000,50.000,308.333,941.667,388.889,N
826,-0.665,1.150,-0.500,155.556,55.556,341.667,863.889,77.778,N
827,-0.630,1.210,-0.470,158.333,52.778,333.333,902.778,38.889,N
828,-0.680,1.120,-0.580,163.889,52.778,333.333,919.444,16.667,N
829,-0.740,1.080,-0.550,158.333,55.556,330.556,891.667,27.778,N
830,-0.710,1.845,-0.280,197.222,116.667,116.667,525.000,366.667,V
831,-0.720,1.065,-0.605,141.667,55.556,355.556,1316.667,791.667,N
832,-0.700,1.160,-0.500,155.556,52.778,338.889,919.444,397.222,N
833,-0.650,1.920,0.600,197.222,113.889,113.889,533.333,386.111,V
834,-0.585,1.265,-0.495,141.667,52.778,355.556,1311.111,777.778,N
835,-0.580,1.260,-0.395,161.111,52.778,333.333,897.222,413.889,N
836,-0.490,2.030,0.090,197.222,116.667,116.667,527.778,369.444,V
837,-0.510,1.255,-0.470,138.889,52.778,347.222,1319.444,791.667,N
838,-0.560,1.280,-0.425,158.333,52.778,336.111,916.667,402.778,N
839,-0.495,1.930,0.610,194.444,116.667,116.667,516.667,400.000,V
840,-0.655,1.155,-0.600,136.111,52.778,361.111,1319.444,802.778,N
841,-0.730,1.970,0.255,197.222,116.667,116.667,558.333,761.111,V
842,-0.570,1.230,-0.495,138.889,55.556,355.556,1319.444,761.111,N
843,-0.575,2.050,-0.710,197.222,116.667,116.667,541.667,777.778,V
844,-0.615,1.245,-0.465,130.556,50.000,361.111,1286.111,744.444,N
845,-0.580,1.155,-0.495,155.556,55.556,336.111,927.778,358.333,N
846,-0.635,1.155,-0.495,155.556,52.778,319.444,858.333,69.444,N
847,-0.655,1.895,0.560,197.222,116.667,116.667,527.778,330.556,V
848,-0.585,1.235,-0.495,136.111,52.778,366.667,1319.444,791.667,N
849,-0.600,1.225,-0.490,150.000,52.778,319.444,919.444,400.000,N
850,-0.630,1.970,0.575,197.222,113.889,113.889,513.889,405.556,V
851,-0.625,1.175,-0.570,125.000,55.556,361.111,1330.556,816.667,N
852,-0.640,1.200,-0.475,152.778,55.556,341.667,902.778,427.778,N
853,-0.630,2.030,0.370,197.222,113.889,113.889,538.889,363.889,V
854,-0.560,1.260,-0.490,136.111,55.556,350.000,1330.556,791.667,N
855,-0.535,1.320,-0.390,161.111,58.333,341.667,900.000,430.556,N
856,-0.480,2.065,0.645,197.222,116.667,116.667,544.444,355.556,V
857,-0.520,1.320,-0.500,130.556,50.000,333.333,1297.222,752.778,N
858,-0.595,1.295,-0.475,161.111,55.556,333.333,902.778,394.444,N
859,-0.570,1.945,0.125,197.222,111.111,111.111,527.778,375.000,V
860,-0.585,1.245,-0.540,138.889,52.778,350.000,1283.333,755.556,N
861,-0.650,2.035,-0.275,191.667,113.889,113.889,544.444,738.889,V
862,-0.640,1.125,-0.575,130.556,52.778,350.000,1286.111,741.667,N
863,-0.700,2.000,-0.750,197.222,116.667,116.667,550.000,736.111,V
864,-0.625,1.235,-0.515,130.556,55.556,350.000,1300.000,750.000,N
865,-0.815,1.785,-0.050,155.556,116.667,116.667,663.889,636.111,V
866,-0.580,1.260,-0.465,144.444,55.556,344.444,1233.333,569.444,N
867,-0.565,1.240,-0.450,147.222,50.000,344.444,955.556,277.778,N
868,-0.610,1.135,-0.455,152.778,52.778,325.000,900.000,55.556,N
869,-0.595,1.235,-0.420,161.111,55.556,325.000,900.000,0.000,N
870,-0.635,1.170,-0.405,144.444,50.000,316.667,905.556,5.556,N
871,-0.480,1.980,-0.380,197.222,111.111,111.111,513.889,391.667,V
872,-0.510,1.315,-0.390,136.111,50.000,355.556,1344.444,830.556,N
873,-0.490,1.280,-0.380,152.778,55.556,327.778,958.333,386.111,N
874,-0.515,1.260,-0.405,163.889,52.778,338.889,897.222,61.111,N
875,-0.640,1.200,-0.495,158.333,55.556,347.222,891.667,5.556,N
876,-0.620,1.185,-0.445,169.444,50.000,341.667,927.778,36.111,N
877,-0.685,1.100,-0.555,166.667,52.778,336.111,916.667,11.111,N
878,-0.730,1.190,-0.520,158.333,52.778,333.333,872.222,44.444,N
879,-0.685,1.135,-0.535,163.889,52.778,347.222,908.333,36.111,N
880,-0.655,1.145,-0.495,158.333,52.778,341.667,913.889,5.556,N
881,-0.635,1.215,-0.495,158.333,50.000,330.556,908.333,5.556,N
882,-0.655,1.125,-0.535,161.111,55.556,341.667,900.000,8.333,N
883,-0.695,1.175,-0.495,161.111,55.556,322.222,886.111,13.889,N
884,-0.650,1.255,-0.470,161.111,50.000,336.111,880.556,5.556,N
885,-0.640,1.240,-0.455,155.556,52.778,341.667,925.000,44.444,N
886,-0.590,1.325,-0.415,161.111,52.778,322.222,861.111,63.889,N
887,-0.600,1.375,-0.415,141.667,52.778,327.778,869.444,8.333,N
888,-0.605,1.260,-0.465,166.667,52.778,325.000,927.778,58.333,N
889,-0.690,1.215,-0.465,144.444,52.778,350.000,875.000,52.778,N
890,-0.645,1.295,-0.460,152.778,50.000,319.444,866.667,8.333,N
891,-0.605,1.240,-0.435,158.333,50.000,327.778,916.667,50.000,N
892,-0.620,1.215,-0.430,163.889,55.556,341.667,863.889,52.778,N
893,-0.615,1.325,-0.395,166.667,52.778,338.889,897.222,33.333,N
894,-0.560,1.345,-0.330,161.111,50.000,325.000,916.667,19.444,N
895,-0.440,2.065,0.285,197.222,116.667,116.667,513.889,402.778,V
896,-0.540,1.395,-0.315,144.444,55.556,369.444,1305.556,791.667,N
897,-0.430,1.425,-0.355,141.667,50.000,341.667,952.778,352.778,N
898,-0.490,1.350,-0.370,155.556,50.000,325.000,886.111,66.667,N
899,-0.505,1.380,-0.390,166.667,55.556,333.333,902.778,16.667,N
900,-0.590,1.250,-0.490,161.111,52.778,336.111,900.000,2.778,N
901,-0.710,1.200,-0.540,169.444,52.778,350.000,883.333,16.667,N
902,-0.750,1.910,0.480,197.222,116.667,116.667,538.889,344.444,V
903,-0.670,1.170,-0.575,130.556,55.556,358.333,1350.000,811.111,N
904,-0.615,1.940,-0.100,197.222,111.111,111.111,536.111,813.889,V
905,-0.645,1.200,-0.555,141.667,50.000,355.556,1338.889,802.778,N
906,-0.745,1.070,-0.705,152.778,52.778,322.222,944.444,394.444,N
907,-0.820,1.035,-0.620,161.111,55.556,333.333,880.556,63.889,N
908,-0.720,1.810,-0.240,197.222,116.667,116.667,516.667,363.889,V
909,-0.790,1.090,-0.675,138.889,52.778,361.111,1352.778,836.111,N
910,-0.815,1.840,-0.575,197.222,116.667,116.667,552.778,800.000,V
911,-0.750,1.100,-0.640,125.000,52.778,361.111,1313.889,761.111,N
912,-0.700,1.110,-0.595,161.111,52.778,341.667,933.333,380.556,N
913,-0.700,1.115,-0.500,155.556,52.778,336.111,897.222,36.111,N
914,-0.645,1.875,0.250,197.222,116.667,116.667,527.778,369.444,V
915,-0.625,1.170,-0.525,144.444,55.556,352.778,1327.778,800.000,N
916,-0.640,1.195,-0.470,166.667,52.778,338.889,944.444,383.333,N
917,-0.575,1.945,0.510,197.222,116.667,116.667,525.000,419.444,V
918,-0.600,1.245,-0.515,141.667,52.778,344.444,1350.000,825.000,N
919,-0.550,2.150,-0.735,197.222,113.889,113.889,536.111,813.889,V
920,-0.590,1.175,-0.535,147.222,52.778,361.111,1333.333,797.222,N
921,-0.675,1.105,-0.575,161.111,52.778,327.778,908.333,425.000,N
922,-0.715,1.130,-0.530,152.778,52.778,319.444,877.778,30.556,N
923,-0.710,1.080,-0.560,163.889,52.778,330.556,883.333,5.556,N
924,-0.720,1.050,-0.580,161.111,52.778,325.000,872.222,11.111,N
925,-0.735,1.075,-0.510,158.333,50.000,330.556,866.667,5.556,N
926,-0.715,1.090,-0.520,166.667,50.000,327.778,927.778,61.111,N
927,-0.715,0.965,-0.615,166.667,52.778,333.333,902.778,25.000,N
928,-0.755,1.065,-0.490,152.778,55.556,344.444,891.667,11.111,N
929,-0.725,1.065,-0.535,147.222,55.556,341.667,963.889,72.222,N
930,-0.735,1.005,-0.570,175.000,50.000,316.667,927.778,36.111,N
931,-0.745,1.115,-0.560,169.444,52.778,350.000,891.667,36.111,N
932,-0.695,1.085,-0.520,172.222,55.556,325.000,938.889,47.222,N
933,-0.735,1.050,-0.580,166.667,52.778,322.222,905.556,33.333,N
934,-0.755,1.105,-0.510,166.667,55.556,336.111,916.667,11.111,N
935,-0.640,1.170,-0.425,161.111,50.000,325.000,911.111,5.556,N
936,-0.695,1.125,-0.515,169.444,52.778,347.222,877.778,33.333,N
937,-0.745,1.895,0.215,197.222,113.889,113.889,541.667,336.111,V
938,-0.640,1.190,-0.550,144.444,52.778,338.889,1350.000,808.333,N
939,-0.670,1.155,-0.550,172.222,55.556,336.111,897.222,452.778,N
940,-0.680,1.225,-0.475,166.667,55.556,344.444,916.667,19.444,N
941,-0.585,1.255,-0.400,163.889,50.000,330.556,919.444,2.778,N
942,-0.565,1.185,-0.490,169.444,55.556,330.556,900.000,19.444,N
943,-0.630,1.265,-0.410,155.556,52.778,341.667,880.556,19.444,N
944,-0.585,1.205,-0.470,158.333,55.556,350.000,886.111,5.556,N
945,-0.645,1.150,-0.465,166.667,50.000,325.000,902.778,16.667,N
946,-0.685,1.140,-0.490,163.889,52.778,327.778,863.889,38.889,N
947,-0.680,1.205,-0.505,161.111,52.778,347.222,866.667,2.778,N
948,-0.695,1.110,-0.550,163.889,52.778,322.222,875.000,8.333,N
949,-0.745,1.165,-0.515,163.889,50.000,322.222,869.444,5.556,N
950,-0.705,1.125,-0.475,169.444,55.556,341.667,916.667,47.222,N
951,-0.655,1.240,-0.420,172.222,52.778,330.556,875.000,41.667,N
952,-0.610,2.000,0.155,197.222,113.889,113.889,522.222,352.778,V
953,-0.590,1.240,-0.500,150.000,52.778,352.778,1322.222,800.000,N
954,-0.665,1.175,-0.505,166.667,52.778,341.667,908.333,413.889,N
955,-0.670,1.945,0.150,197.222,113.889,113.889,530.556,377.778,V
956,-0.660,1.210,-0.545,119.444,52.778,358.333,1313.889,783.333,N
957,-0.670,1.145,-0.530,152.778,52.778,322.222,888.889,425.000,N
958,-0.625,1.235,-0.480,166.667,55.556,344.444,922.222,33.333,N
959,-0.670,1.165,-0.510,161.111,52.778,322.222,911.111,11.111,N
960,-0.730,1.065,-0.540,158.333,50.000,319.444,861.111,50.000,N
961,-0.735,1.165,-0.495,166.667,52.778,333.333,908.333,47.222,N
962,-0.625,1.160,-0.460,163.889,52.778,330.556,916.667,8.333,N
963,-0.685,1.140,-0.500,158.333,52.778,341.667,855.556,61.111,N
964,-0.690,1.250,-0.420,163.889,52.778,330.556,911.111,55.556,N
965,-0.645,1.210,-0.445,163.889,52.778,327.778,913.889,2.778,N
966,-0.665,1.155,-0.430,155.556,55.556,344.444,911.111,2.778,N
967,-0.670,1.265,-0.410,147.222,52.778,333.333,894.444,16.667,N
968,-0.605,1.245,-0.420,161.111,50.000,330.556,916.667,22.222,N
969,-0.590,1.960,0.465,197.222,113.889,113.889,527.778,388.889,V
970,-0.665,1.180,-0.495,130.556,55.556,350.000,1338.889,811.111,N
971,-0.595,1.335,-0.450,152.778,50.000,327.778,938.889,400.000,N
972,-0.640,1.250,-0.475,161.111,52.778,330.556,936.111,2.778,N
973,-0.710,1.195,-0.565,158.333,52.778,336.111,883.333,52.778,N
974,-0.715,1.160,-0.540,172.222,50.000,350.000,922.222,38.889,N
975,-0.670,1.895,-0.015,197.222,113.889,113.889,536.111,386.111,V
976,-0.775,1.150,-0.620,144.444,50.000,347.222,1305.556,769.444,N
977,-0.690,1.190,-0.540,144.444,55.556,347.222,969.444,336.111,N
978,-0.685,1.140,-0.535,155.556,55.556,341.667,902.778,66.667,N
979,-0.705,1.270,-0.485,158.333,50.000,327.778,883.333,19.444,N
980,-0.635,1.280,-0.465,166.667,50.000,325.000,936.111,52.778,N
981,-0.650,1.155,-0.440,158.333,55.556,341.667,888.889,47.222,N
982,-0.635,1.250,-0.410,163.889,55.556,347.222,897.222,8.333,N
983,-0.595,1.240,-0.455,161.111,52.778,327.778,938.889,41.667,N
984,-0.630,1.265,-0.400,169.444,52.778,327.778,875.000,63.889,N
985,-0.565,2.075,0.690,197.222,116.667,116.667,519.444,355.556,V
986,-0.515,1.380,-0.400,150.000,52.778,350.000,1372.222,852.778,N
987,-0.460,2.190,-0.370,197.222,113.889,113.889,541.667,830.556,V
988,-0.440,1.470,-0.270,113.889,50.000,347.222,1319.444,777.778,N
989,-0.440,1.385,-0.385,158.333,52.778,333.333,919.444,400.000,N
990,-0.565,1.325,-0.335,147.222,55.556,347.222,883.333,36.111,N
991,-0.525,2.140,0.415,197.222,111.111,111.111,544.444,338.889,V
992,-0.490,1.385,-0.440,133.333,47.222,358.333,1305.556,761.111,N
993,-0.540,1.315,-0.385,169.444,55.556,352.778,913.889,391.667,N
994,-0.500,1.310,-0.340,150.000,52.778,341.667,902.778,11.111,N
995,-0.640,2.060,0.015,197.222,113.889,113.889,555.556,347.222,V
996,-0.530,1.435,-0.350,147.222,52.778,344.444,1283.333,727.778,N
997,-0.485,1.405,-0.340,150.000,52.778,341.667,922.222,361.111,N
998,-0.485,1.400,-0.325,163.889,55.556,347.222,911.111,11.111,N
999,-0.520,1.410,-0.320,166.667,52.778,322.222,888.889,22.222,N
1000,-0.755,2.125,0.490,83.333,116.667,116.667,547.222,341.667,V
1001,-0.465,1.400,-0.320,144.444,50.000,358.333,1319.444,772.222,N
1002,-0.405,1.520,-0.250,144.444,52.778,325.000,905.556,413.889,N
1003,-0.380,1.495,-0.210,161.111,52.778,327.778,916.667,11.111,N
1004,-0.360,1.525,-0.235,166.667,50.000,330.556,908.333,8.333,N
1005,-0.495,1.340,-0.360,163.889,55.556,336.111,916.667,8.333,N
1006,-0.510,1.420,-0.320,163.889,52.778,333.333,883.333,33.333,N
1007,-0.465,1.435,-0.330,158.333,52.778,338.889,927.778,44.444,N
1008,-0.450,1.425,-0.315,166.667,47.222,322.222,911.111,16.667,N
1009,-0.510,1.385,-0.340,158.333,52.778,344.444,866.667,44.444,N
1010,-0.745,2.140,2.400,197.222,-922000.000,-891258.333,569.444,297.222,V
1011,-0.475,1.400,-0.365,141.667,52.778,347.222,1311.111,741.667,N
1012,-0.490,1.350,-0.425,166.667,52.778,330.556,883.333,427.778,N
1013,-0.520,1.495,-0.350,155.556,50.000,325.000,875.000,8.333,N
1014,-0.520,1.325,-0.385,152.778,55.556,341.667,880.556,5.556,N
1015,-0.550,1.295,-0.450,166.667,52.778,344.444,888.889,8.333,N
1016,-0.575,1.365,-0.430,161.111,61.111,338.889,855.556,33.333,N
1017,-0.625,1.290,-0.450,152.778,55.556,330.556,891.667,36.111,N
1018,-0.675,2.040,0.600,197.222,116.667,116.667,527.778,363.889,V
1019,-0.545,1.490,-0.405,127.778,55.556,363.889,1319.444,791.667,N
1020,-0.500,1.420,-0.320,150.000,55.556,347.222,944.444,375.000,N
1021,-0.470,1.385,-0.365,166.667,52.778,322.222,933.333,11.111,N
1022,-0.545,1.425,-0.305,169.444,52.778,338.889,875.000,58.333,N
1023,-0.475,1.435,-0.270,163.889,52.778,341.667,938.889,63.889,N
1024,-0.470,1.400,-0.290,158.333,52.778,327.778,927.778,11.111,N
1025,-0.470,1.525,-0.290,166.667,52.778,325.000,883.333,44.444,N
1026,-0.510,1.390,-0.340,169.444,52.778,333.333,936.111,52.778,N
1027,-0.545,1.290,-0.435,166.667,52.778,336.111,908.333,27.778,N
1028,-0.585,1.410,-0.310,158.333,52.778,336.111,886.111,22.222,N
1029,-0.460,1.390,-0.360,166.667,52.778,327.778,944.444,58.333,N
1030,-0.620,1.295,-0.490,166.667,50.000,333.333,922.222,22.222,N
1031,-0.665,1.285,-0.470,172.222,55.556,352.778,913.889,8.333,N
1032,-0.635,1.270,-0.490,163.889,55.556,336.111,958.333,44.444,N
1033,-0.675,1.260,-0.465,161.111,47.222,330.556,905.556,52.778,N
1034,-0.635,1.330,-0.450,172.222,58.333,341.667,933.333,27.778,N
1035,-0.650,1.185,-0.565,169.444,55.556,338.889,922.222,11.111,N
1036,-0.760,1.065,-0.600,155.556,52.778,338.889,869.444,52.778,N
1037,-0.825,1.920,0.320,197.222,113.889,113.889,536.111,333.333,V
1038,-0.645,1.175,-0.545,141.667,55.556,352.778,1322.222,786.111,N
1039,-0.610,1.350,-0.470,166.667,52.778,341.667,922.222,400.000,N
1040,-0.715,2.090,0.275,197.222,116.667,116.667,555.556,366.667,V
1041,-0.555,1.315,-0.480,138.889,50.000,347.222,1291.667,736.111,N
1042,-0.575,1.365,-0.435,166.667,52.778,333.333,930.556,361.111,N
1043,-0.545,2.070,0.505,197.222,116.667,116.667,527.778,402.778,V
1044,-0.545,1.335,-0.520,119.444,58.333,358.333,1280.556,752.778,N
1045,-0.560,1.380,-0.390,158.333,52.778,327.778,919.444,361.111,N
1046,-0.540,2.150,-0.060,197.222,116.667,116.667,527.778,391.667,V
1047,-0.560,1.315,-0.505,133.333,55.556,369.444,1305.556,777.778,N
1048,-0.490,1.345,-0.355,155.556,55.556,336.111,930.556,375.000,N
1049,-0.525,2.130,-0.385,197.222,116.667,116.667,530.556,400.000,V
1050,-0.490,1.310,-0.455,147.222,55.556,361.111,1316.667,786.111,N
1051,-0.480,1.395,-0.330,147.222,52.778,344.444,905.556,411.111,N
1052,-0.435,2.090,-0.035,197.222,113.889,113.889,530.556,375.000,V
1053,-0.530,1.230,-0.490,133.333,50.000,347.222,1269.444,738.889,N
1054,-0.515,1.290,-0.395,155.556,55.556,336.111,877.778,391.667,N
1055,-0.560,2.050,0.185,197.222,116.667,116.667,527.778,350.000,V
1056,-0.565,1.220,-0.515,130.556,55.556,344.444,1305.556,777.778,N
1057,-0.590,1.210,-0.485,158.333,52.778,333.333,869.444,436.111,N
1058,-0.635,1.920,0.760,197.222,116.667,116.667,522.222,347.222,V
1059,-0.655,1.140,-0.590,136.111,55.556,358.333,1294.444,772.222,N
1060,-0.740,2.010,-0.305,197.222,113.889,113.889,558.333,736.111,V
1061,-0.570,1.225,-0.450,136.111,52.778,347.222,1294.444,736.111,N
1062,-0.535,2.020,-0.075,197.222,111.111,111.111,533.333,761.111,V
1063,-0.590,1.245,-0.475,138.889,61.111,369.444,1277.778,744.444,N
1064,-0.560,1.210,-0.430,144.444,52.778,338.889,925.000,352.778,N
1065,-0.565,1.160,-0.430,147.222,55.556,327.778,863.889,61.111,N
1066,-0.620,1.210,-0.460,144.444,55.556,333.333,855.556,8.333,N
1067,-0.565,1.235,-0.380,161.111,52.778,336.111,886.111,30.556,N
1068,-0.685,1.975,0.410,197.222,111.111,111.111,541.667,344.444,V
1069,-0.640,1.245,-0.535,136.111,52.778,350.000,1275.000,733.333,N
1070,-0.585,1.305,-0.380,150.000,52.778,333.333,922.222,352.778,N
1071,-0.555,1.245,-0.430,147.222,55.556,341.667,888.889,33.333,N
1072,-0.645,1.090,-0.510,155.556,50.000,325.000,880.556,8.333,N
1073,-0.745,1.905,-0.640,197.222,113.889,113.889,533.333,347.222,V
1074,-0.565,1.170,-0.460,152.778,55.556,358.333,1313.889,780.556,N
1075,-0.745,1.955,-0.900,197.222,113.889,113.889,569.444,744.444,V
1076,-0.625,1.225,-0.420,116.667,52.778,347.222,1302.778,733.333,N
1077,-0.565,1.145,-0.555,152.778,55.556,327.778,933.333,369.444,N
1078,-0.710,1.085,-0.540,155.556,52.778,338.889,872.222,61.111,N
1079,-0.725,1.780,0.330,197.222,116.667,116.667,525.000,347.222,V
1080,-0.670,1.140,-0.555,119.444,52.778,344.444,1308.333,783.333,N
1081,-0.700,1.930,-0.230,197.222,116.667,116.667,538.889,769.444,V
1082,-0.640,1.175,-0.485,141.667,55.556,363.889,1286.111,747.222,N
1083,-0.635,1.090,-0.575,150.000,52.778,336.111,916.667,369.444,N
1084,-0.735,1.030,-0.580,152.778,55.556,311.111,866.667,50.000,N
1085,-0.710,1.070,-0.460,163.889,58.333,338.889,900.000,33.333,N
1086,-0.630,1.045,-0.485,158.333,52.778,336.111,900.000,0.000,N
1087,-0.675,1.165,-0.430,163.889,55.556,333.333,875.000,25.000,N
1088,-0.620,1.170,-0.425,163.889,55.556,330.556,933.333,58.333,N
1089,-0.650,1.095,-0.450,163.889,47.222,322.222,880.556,52.778,N
1090,-0.610,1.990,-0.455,197.222,116.667,116.667,525.000,355.556,V
1091,-0.595,1.245,-0.415,138.889,50.000,327.778,1366.667,841.667,N
1092,-0.725,1.905,0.230,72.222,113.889,113.889,572.222,794.444,V
1093,-0.530,1.300,-0.385,141.667,50.000,347.222,1308.333,736.111,N
1094,-0.575,1.140,-0.535,155.556,55.556,322.222,936.111,372.222,N
1095,-0.680,1.115,-0.490,161.111,55.556,341.667,875.000,61.111,N
1096,-0.645,1.180,-0.485,161.111,50.000,330.556,905.556,30.556,N
1097,-0.665,1.065,-0.570,161.111,55.556,338.889,894.444,11.111,N
1098,-0.740,1.085,-0.610,166.667,52.778,333.333,883.333,11.111,N
1099,-0.715,1.100,-0.535,155.556,52.778,330.556,897.222,13.889,N
1100,-0.735,1.075,-0.590,166.667,55.556,338.889,922.222,25.000,N
1101,-0.765,1.085,-0.540,169.444,52.778,338.889,869.444,52.778,N
1102,-0.695,1.215,-0.470,141.667,52.778,330.556,880.556,11.111,N
1103,-0.610,1.170,-0.500,166.667,52.778,327.778,905.556,25.000,N
1104,-0.650,1.075,-0.525,169.444,55.556,338.889,883.333,22.222,N
1105,-0.685,1.225,-0.505,163.889,52.778,325.000,886.111,2.778,N
1106,-0.655,1.165,-0.445,161.111,47.222,322.222,891.667,5.556,N
1107,-0.585,1.185,-0.470,163.889,55.556,336.111,894.444,2.778,N
1108,-0.610,1.250,-0.395,161.111,52.778,336.111,900.000,5.556,N
1109,-0.515,1.275,-0.435,155.556,55.556,341.667,902.778,2.778,N
1110,-0.625,1.125,-0.550,150.000,55.556,333.333,888.889,13.889,N
1111,-0.655,1.230,-0.445,163.889,52.778,338.889,875.000,13.889,N
1112,-0.590,1.260,-0.430,163.889,55.556,341.667,911.111,36.111,N
1113,-0.610,1.230,-0.480,161.111,52.778,325.000,908.333,2.778,N
1114,-0.640,1.215,-0.475,158.333,52.778,341.667,875.000,33.333,N
1115,-0.575,1.265,-0.450,166.667,52.778,347.222,925.000,50.000,N
1116,-0.580,1.970,-0.455,197.222,113.889,113.889,533.333,391.667,V
1117,-0.600,1.270,-0.520,116.667,50.000,347.222,1305.556,772.222,N
1118,-0.575,1.250,-0.475,147.222,58.333,327.778,933.333,372.222,N
1119,-0.545,1.185,-0.480,155.556,52.778,333.333,883.333,50.000,N
1120,-0.615,1.145,-0.485,158.333,52.778,322.222,858.333,25.000,N
1121,-0.675,1.915,0.440,197.222,116.667,116.667,530.556,327.778,V
1122,-0.525,1.295,-0.415,136.111,50.000,336.111,1286.111,755.556,N
1123,-0.665,2.050,-0.670,197.222,116.667,116.667,552.778,733.333,V
1124,-0.500,1.420,-0.385,122.222,50.000,347.222,1305.556,752.778,N
1125,-0.450,1.390,-0.310,155.556,52.778,327.778,944.444,361.111,N
1126,-0.470,1.310,-0.375,166.667,52.778,344.444,880.556,63.889,N
1127,-0.570,1.285,-0.345,161.111,55.556,333.333,880.556,0.000,N
1128,-0.490,1.305,-0.280,161.111,52.778,333.333,930.556,50.000,N
1129,-0.490,1.265,-0.350,172.222,52.778,322.222,919.444,11.111,N
1130,-0.510,1.390,-0.295,169.444,50.000,319.444,897.222,22.222,N
1131,-0.470,1.335,-0.280,169.444,52.778,344.444,902.778,5.556,N
1132,-0.475,1.295,-0.330,158.333,52.778,336.111,916.667,13.889,N
1133,-0.500,1.290,-0.285,163.889,52.778,322.222,891.667,25.000,N
1134,-0.480,1.240,-0.305,166.667,55.556,344.444,894.444,2.778,N
1135,-0.460,1.320,-0.325,163.889,52.778,330.556,894.444,0.000,N
1136,-0.540,1.280,-0.345,163.889,52.778,319.444,877.778,16.667,N
1137,-0.490,1.280,-0.345,155.556,52.778,344.444,941.667,63.889,N
1138,-0.545,1.160,-0.390,166.667,52.778,327.778,902.778,38.889,N
1139,-0.540,1.295,-0.365,161.111,50.000,330.556,880.556,22.222,N
1140,-0.505,1.335,-0.360,175.000,52.778,325.000,969.444,88.889,N
1141,-0.470,1.315,-0.340,172.222,52.778,325.000,936.111,33.333,N
1142,-0.520,1.270,-0.335,163.889,55.556,347.222,883.333,52.778,N
1143,-0.470,1.330,-0.335,163.889,52.778,322.222,950.000,66.667,N
1144,-0.515,1.285,-0.370,169.444,55.556,336.111,919.444,30.556,N
1145,-0.485,2.070,0.175,197.222,116.667,116.667,522.222,397.222,V
1146,-0.430,1.330,-0.340,127.778,52.778,333.333,1350.000,827.778,N
1147,-0.375,2.145,0.190,194.444,116.667,116.667,525.000,825.000,V
1148,-0.440,1.425,-0.350,127.778,52.778,363.889,1344.444,819.444,N
1149,-0.380,1.425,-0.270,155.556,55.556,330.556,969.444,375.000,N
1150,-0.450,1.320,-0.385,163.889,55.556,344.444,858.333,111.111,N
1151,-0.545,1.335,-0.390,152.778,52.778,333.333,875.000,16.667,N
1152,-0.550,1.240,-0.395,152.778,52.778,327.778,883.333,8.333,N
1153,-0.585,1.165,-0.490,172.222,55.556,347.222,883.333,0.000,N
1154,-0.630,1.250,-0.390,163.889,55.556,333.333,869.444,13.889,N
1155,-0.535,1.215,-0.445,155.556,52.778,316.667,888.889,19.444,N
1156,-0.655,1.120,-0.460,166.667,52.778,330.556,902.778,13.889,N
1157,-0.595,1.250,-0.385,169.444,55.556,333.333,877.778,25.000,N
1158,-0.560,1.190,-0.450,158.333,50.000,330.556,894.444,16.667,N
1159,-0.685,1.135,-0.535,166.667,52.778,325.000,886.111,8.333,N
1160,-0.735,1.110,-0.540,161.111,52.778,333.333,886.111,0.000,N
1161,-0.755,0.955,-0.590,169.444,52.778,344.444,922.222,36.111,N
1162,-0.825,1.005,-0.665,169.444,55.556,319.444,902.778,19.444,N
1163,-0.810,0.995,-0.635,166.667,55.556,341.667,902.778,0.000,N
1164,-0.780,0.975,-0.665,172.222,55.556,336.111,950.000,47.222,N
1165,-0.845,0.970,-0.635,172.222,50.000,325.000,905.556,44.444,N
1166,-0.820,1.780,-0.435,197.222,113.889,113.889,530.556,375.000,V
1167,-0.670,1.140,-0.570,136.111,50.000,355.556,1361.111,830.556,N
1168,-0.745,1.870,0.045,197.222,116.667,116.667,550.000,811.111,V
1169,-0.610,1.220,-0.470,133.333,52.778,363.889,1388.889,838.889,N
1170,-0.550,2.030,-0.020,197.222,111.111,111.111,561.111,827.778,V
1171,-0.580,1.235,-0.495,138.889,52.778,355.556,1377.778,816.667,N
1172,-0.580,1.180,-0.525,161.111,52.778,325.000,997.222,380.556,N
1173,-0.670,1.095,-0.605,169.444,50.000,325.000,941.667,55.556,N
1174,-0.720,1.080,-0.555,172.222,52.778,347.222,938.889,2.778,N
1175,-0.710,1.085,-0.580,150.000,52.778,341.667,936.111,2.778,N
1176,-0.705,1.075,-0.590,169.444,55.556,344.444,930.556,5.556,N
1177,-0.670,1.090,-0.500,169.444,52.778,325.000,958.333,27.778,N
1178,-0.585,1.140,-0.480,169.444,55.556,344.444,947.222,11.111,N
1179,-0.660,1.125,-0.510,172.222,52.778,350.000,952.778,5.556,N
1180,-0.755,1.905,0.170,197.222,113.889,113.889,555.556,397.222,V
1181,-0.680,1.175,-0.640,133.333,50.000,336.111,1375.000,819.444,N
1182,-0.725,1.105,-0.515,141.667,52.778,325.000,980.556,394.444,N
1183,-0.570,1.985,-0.210,197.222,116.667,116.667,519.444,461.111,V
1184,-0.630,1.165,-0.565,138.889,52.778,358.333,1377.778,858.333,N
1185,-0.635,2.025,0.850,197.222,116.667,116.667,561.111,816.667,V
1186,-0.515,1.210,-0.470,147.222,55.556,344.444,1352.778,791.667,N
1187,-0.565,2.000,-0.105,194.444,116.667,116.667,536.111,816.667,V
1188,-0.580,1.230,-0.465,141.667,55.556,350.000,1366.667,830.556,N
1189,-0.540,1.260,-0.460,158.333,50.000,325.000,950.000,416.667,N
1190,-0.570,1.205,-0.380,152.778,52.778,338.889,913.889,36.111,N
1191,-0.475,2.090,-0.145,197.222,116.667,116.667,522.222,391.667,V
1192,-0.530,1.250,-0.440,136.111,52.778,361.111,1369.444,847.222,N
1193,-0.495,1.240,-0.425,158.333,55.556,338.889,955.556,413.889,N
1194,-0.570,1.195,-0.410,169.444,50.000,322.222,916.667,38.889,N
1195,-0.550,1.245,-0.340,166.667,52.778,333.333,952.778,36.111,N
1196,-0.495,1.295,-0.300,172.222,52.778,330.556,938.889,13.889,N
1197,-0.540,1.180,-0.315,166.667,52.778,344.444,919.444,19.444,N
1198,-0.495,2.040,-0.040,197.222,113.889,113.889,536.111,383.333,V
1199,-0.490,1.260,-0.390,144.444,52.778,355.556,1350.000,813.889,N
1200,-0.485,2.055,-0.215,197.222,116.667,116.667,541.667,808.333,V
1201,-0.465,1.255,-0.365,141.667,55.556,347.222,1377.778,836.111,N
1202,-0.495,2.120,-0.275,197.222,113.889,113.889,541.667,836.111,V
1203,-0.570,1.210,-0.555,136.111,50.000,355.556,1341.667,800.000,N
1204,-0.625,1.165,-0.500,158.333,55.556,330.556,1000.000,341.667,N
1205,-0.645,1.045,-0.515,158.333,52.778,347.222,916.667,83.333,N
1206,-0.670,1.050,-0.520,161.111,55.556,330.556,888.889,27.778,N
1207,-0.690,1.035,-0.590,163.889,55.556,330.556,900.000,11.111,N
1208,-0.760,1.030,-0.595,163.889,52.778,341.667,947.222,47.222,N
1209,-0.725,1.000,-0.595,163.889,47.222,333.333,902.778,44.444,N
1210,-0.750,1.025,-0.535,161.111,52.778,330.556,886.111,16.667,N
1211,-0.725,1.735,0.410,197.222,116.667,116.667,538.889,347.222,V
1212,-0.610,1.175,-0.420,144.444,55.556,347.222,1347.222,808.333,N
1213,-0.460,2.035,-0.885,197.222,113.889,113.889,519.444,827.778,V
1214,-0.645,1.070,-0.545,122.222,52.778,338.889,1316.667,797.222,N
1215,-0.680,1.860,-0.500,197.222,116.667,116.667,552.778,763.889,V
1216,-0.630,1.095,-0.600,138.889,52.778,358.333,1330.556,777.778,N
1217,-0.740,1.050,-0.525,155.556,55.556,327.778,930.556,400.000,N
1218,-0.745,1.845,-0.445,197.222,111.111,111.111,536.111,394.444,V
1219,-0.855,1.035,-0.590,136.111,52.778,350.000,1311.111,775.000,N
1220,-0.870,1.060,-0.595,155.556,52.778,325.000,872.222,438.889,N
1221,-0.970,1.130,-0.580,141.667,52.778,336.111,805.556,66.667,N
1222,-0.825,1.245,-0.530,152.778,66.667,344.444,808.333,2.778,N
1223,-0.905,1.545,0.135,197.222,113.889,113.889,536.111,272.222,V
1224,-0.850,1.100,-0.480,119.444,55.556,327.778,983.333,447.222,N
1225,-0.820,1.620,-0.135,197.222,116.667,116.667,544.444,438.889,V
1226,-0.785,1.280,-0.340,136.111,52.778,330.556,908.333,363.889,N
1227,-0.660,2.220,0.420,197.222,113.889,113.889,536.111,372.222,V
1228,-0.510,1.300,-0.315,141.667,58.333,338.889,858.333,322.222,N
1229,-0.560,1.255,-0.470,144.444,52.778,308.333,733.333,125.000,N
1230,-0.625,1.240,-0.360,152.778,50.000,319.444,680.556,52.778,N
1231,-0.710,1.850,-0.265,197.222,111.111,111.111,525.000,155.556,V
1232,-0.615,1.150,-0.380,127.778,50.000,338.889,1227.778,702.778,N
1233,-0.560,1.285,-0.355,125.000,55.556,336.111,833.333,394.444,N
1234,-0.565,1.265,-0.355,144.444,55.556,338.889,847.222,13.889,N
1235,-0.530,1.220,-0.375,144.444,52.778,319.444,866.667,19.444,N
1236,-0.600,1.275,-0.380,141.667,52.778,316.667,844.444,22.222,N
1237,-0.590,1.880,0.165,197.222,111.111,111.111,511.111,333.333,V
1238,-0.525,1.245,-0.405,119.444,52.778,344.444,1327.778,816.667,N
1239,-0.595,1.160,-0.500,141.667,52.778,308.333,863.889,463.889,N
1240,-0.665,1.240,-0.430,152.778,55.556,325.000,858.333,5.556,N
1241,-0.635,1.175,-0.410,141.667,50.000,325.000,897.222,38.889,N
1242,-0.600,1.900,-0.530,197.222,116.667,116.667,522.222,375.000,V
1243,-0.685,1.155,-0.525,122.222,52.778,341.667,1333.333,811.111,N
1244,-0.625,1.955,0.030,197.222,116.667,116.667,522.222,811.111,V
1245,-0.615,1.175,-0.535,138.889,55.556,358.333,1302.778,780.556,N
1246,-0.815,1.860,0.195,194.444,116.667,116.667,580.556,722.222,V
1247,-0.680,1.080,-0.630,125.000,52.778,338.889,1291.667,711.111,N
1248,-0.740,1.930,0.170,197.222,116.667,116.667,525.000,766.667,V
1249,-0.625,1.140,-0.575,136.111,55.556,350.000,1300.000,775.000,N
1250,-0.625,1.865,0.165,197.222,111.111,111.111,527.778,772.222,V
1251,-0.790,1.145,-0.645,138.889,52.778,350.000,1280.556,752.778,N
1252,-0.850,1.115,-0.605,138.889,52.778,322.222,855.556,425.000,N
1253,-0.985,1.035,-0.655,133.333,50.000,330.556,800.000,55.556,N
1254,-0.995,1.105,-0.645,1143655.556,52.778,319.444,858.333,58.333,N
1255,-0.955,1.105,-0.520,138.889,52.778,325.000,844.444,13.889,N
1256,-0.905,1.880,-0.615,197.222,113.889,113.889,541.667,302.778,V
1257,-0.865,1.240,-0.510,130.556,50.000,330.556,1252.778,711.111,N
1258,-0.670,1.955,-0.310,197.222,116.667,116.667,527.778,725.000,V
1259,-0.745,1.345,-0.435,130.556,55.556,369.444,1269.444,741.667,N
1260,-0.630,1.945,0.160,197.222,116.667,116.667,558.333,711.111,V
1261,-0.780,1.350,-0.475,133.333,50.000,327.778,1216.667,658.333,N
1262,-0.755,1.320,-0.430,155.556,55.556,341.667,861.111,355.556,N
1263,-0.805,1.220,-0.475,144.444,47.222,313.889,822.222,38.889,N
1264,-0.865,1.155,-0.555,150.000,52.778,305.556,813.889,8.333,N
1265,-0.990,1.790,-0.220,197.222,116.667,116.667,530.556,283.333,V
1266,-0.835,1.250,-0.465,127.778,50.000,319.444,1152.778,622.222,N
1267,-0.630,2.020,-0.765,197.222,113.889,113.889,522.222,630.556,V
1268,-0.860,1.260,-0.525,133.333,55.556,338.889,1172.222,650.000,N
1269,-0.815,1.850,-0.820,58.333,116.667,116.667,600.000,572.222,V
1270,-0.895,1.225,-0.545,136.111,52.778,333.333,1066.667,466.667,N
1271,-0.775,1.925,0.720,197.222,116.667,116.667,536.111,530.556,V
1272,-0.825,1.270,-0.450,127.778,52.778,336.111,1158.333,622.222,N
1273,-0.815,2.070,-0.535,72.222,116.667,116.667,583.333,575.000,V
1274,-0.680,1.430,-0.340,130.556,50.000,333.333,1041.667,458.333,N
1275,-0.655,1.330,-0.330,138.889,50.000,325.000,752.778,288.889,N
1276,-0.830,1.215,-0.480,133.333,52.778,322.222,752.778,0.000,N
1277,-0.840,1.295,-0.370,138.889,55.556,327.778,780.556,27.778,N
1278,-0.760,1.290,-0.360,138.889,52.778,319.444,808.333,27.778,N
1279,-0.585,1.920,-0.005,197.222,111.111,111.111,519.444,288.889,V
1280,-0.775,1.280,-0.420,130.556,52.778,333.333,1238.889,719.444,N
1281,-0.750,1.310,-0.365,138.889,55.556,327.778,905.556,333.333,N
1282,-0.750,1.270,-0.485,136.111,52.778,308.333,861.111,44.444,N
1283,-0.905,1.165,-0.470,138.889,52.778,316.667,886.111,25.000,N
1284,-0.655,1.230,-0.490,141.667,52.778,316.667,866.667,19.444,N
1285,-0.760,1.725,0.350,197.222,113.889,113.889,527.778,338.889,V
1286,-0.690,1.140,-0.585,113.889,50.000,336.111,1269.444,741.667,N
1287,-0.670,1.160,-0.530,144.444,52.778,325.000,891.667,377.778,N
1288,-0.730,1.720,0.260,197.222,116.667,116.667,519.444,372.222,V
1289,-0.785,1.015,-0.725,125.000,52.778,355.556,1250.000,730.556,N
1290,-0.755,1.060,-0.585,136.111,50.000,308.333,872.222,377.778,N
1291,-0.820,1.725,0.120,197.222,116.667,116.667,508.333,363.889,V
1292,-0.730,1.210,-0.630,133.333,52.778,325.000,1225.000,716.667,N
1293,-0.760,1.175,-0.455,144.444,50.000,325.000,858.333,366.667,N
1294,-0.695,1.850,0.320,197.222,116.667,116.667,525.000,333.333,V
1295,-0.945,1.125,-0.630,133.333,50.000,336.111,1188.889,663.889,N
1296,-0.830,1.245,-0.505,144.444,52.778,316.667,841.667,347.222,N
1297,-0.825,1.805,0.305,197.222,111.111,111.111,538.889,302.778,V
1298,-0.995,1.090,-0.650,125.000,55.556,350.000,1194.444,655.556,N
1299,-0.850,1.830,-0.660,197.222,113.889,113.889,550.000,644.444,V
1300,-0.810,1.255,-0.360,130.556,52.778,338.889,1183.333,633.333,N
1301,-0.685,2.040,-0.165,77.778,116.667,116.667,561.111,622.222,V
1302,-0.685,1.320,-0.345,138.889,55.556,355.556,1191.667,630.556,N
1303,-0.465,2.195,0.180,197.222,113.889,113.889,538.889,652.778,V
1304,-0.635,1.375,-0.335,133.333,52.778,322.222,1169.444,630.556,N
1305,-0.390,2.110,0.885,197.222,108.333,108.333,522.222,647.222,V
1306,-0.700,1.360,-0.295,133.333,50.000,347.222,1175.000,652.778,N
1307,-0.600,1.370,-0.350,136.111,50.000,300.000,825.000,350.000,N
1308,-0.810,1.185,-0.420,138.889,52.778,322.222,802.778,22.222,N
1309,-0.875,1.115,-0.545,138.889,52.778,313.889,797.222,5.556,N
1310,-0.835,1.705,0.110,197.222,111.111,111.111,530.556,266.667,V
1311,-0.965,1.020,-0.560,127.778,58.333,336.111,1197.222,666.667,N
1312,-0.890,1.750,-0.505,197.222,116.667,116.667,544.444,652.778,V
1313,-0.990,1.110,-0.630,130.556,50.000,333.333,1163.889,619.444,N
1314,-0.940,1.135,-0.505,155.556,52.778,330.556,838.889,325.000,N
1315,-0.930,1.030,-0.595,150.000,58.333,330.556,819.444,19.444,N
1316,-0.985,1.010,-0.600,150.000,52.778,308.333,836.111,16.667,N
1317,-0.945,1.715,-0.395,197.222,116.667,116.667,522.222,313.889,V
1318,-0.885,1.155,-0.490,122.222,50.000,327.778,1197.222,675.000,N
1319,-0.860,1.165,-0.510,152.778,52.778,327.778,822.222,375.000,N
1320,-0.915,1.285,-0.380,147.222,58.333,311.111,833.333,11.111,N
1321,-0.755,1.220,-0.360,147.222,55.556,316.667,819.444,13.889,N
1322,-0.665,1.925,0.460,197.222,116.667,116.667,516.667,302.778,V
1323,-0.745,1.215,-0.305,127.778,50.000,330.556,1166.667,650.000,N
1324,-0.490,1.935,-0.450,197.222,116.667,116.667,522.222,644.444,V
1325,-0.320,1.855,0.495,119.444,80.556,369.444,1136.111,613.889,N
1326,0.225,2.015,0.365,127.778,50.000,308.333,802.778,333.333,N
1327,-0.005,2.340,0.825,197.222,113.889,113.889,519.444,283.333,V
1328,-0.735,1.035,-0.655,133.333,47.222,327.778,1066.667,547.222,N
1329,-0.795,1.105,-0.495,72.222,83.333,325.000,794.444,272.222,N
1330,-0.995,0.550,-0.895,1208027.778,50.000,319.444,750.000,44.444,N
1331,-0.995,1.375,-0.280,1208552.778,116.667,116.667,525.000,225.000,V
1332,-0.995,0.735,-0.905,1209605.556,55.556,338.889,1052.778,527.778,N
1333,-0.995,0.880,-0.710,1210375.000,52.778,327.778,769.444,283.333,N
1334,-0.855,1.200,-0.475,127.778,50.000,294.444,766.667,2.778,N
1335,-0.735,1.930,-0.460,58.333,116.667,116.667,538.889,227.778,V
1336,-0.705,1.305,-0.345,116.667,55.556,325.000,966.667,427.778,N
1337,-0.720,1.065,-0.455,113.889,50.000,316.667,744.444,222.222,N
1338,-0.780,1.840,-0.820,58.333,116.667,116.667,550.000,194.444,V
1339,-0.875,1.425,-0.410,116.667,52.778,316.667,988.889,438.889,N
1340,-0.700,1.980,-0.985,58.333,116.667,127.778,616.667,372.222,V
1341,-0.560,1.325,-0.370,130.556,52.778,322.222,711.111,94.444,N
1342,-0.620,1.140,-0.510,138.889,52.778,313.889,777.778,66.667,N
1343,-0.555,1.210,-0.425,133.333,55.556,316.667,741.667,36.111,N
1344,-0.650,1.800,0.465,197.222,116.667,116.667,516.667,225.000,V
1345,-0.490,1.270,-0.265,130.556,55.556,330.556,1122.222,605.556,N
1346,-0.435,1.430,-0.175,119.444,52.778,311.111,822.222,300.000,N
1347,-0.435,2.120,0.685,197.222,113.889,113.889,516.667,305.556,V
1348,-0.270,1.485,-0.095,130.556,55.556,338.889,1280.556,763.889,N
1349,-0.290,1.580,0.020,119.444,50.000,313.889,897.222,383.333,N
1350,-0.225,2.405,0.715,197.222,116.667,116.667,516.667,380.556,V
1351,-0.130,1.545,-0.045,119.444,47.222,325.000,1416.667,900.000,N
1352,-0.220,1.530,-0.020,127.778,55.556,313.889,983.333,433.333,N
1353,-0.130,2.380,-0.085,197.222,111.111,111.111,497.222,486.111,V
1354,-0.140,1.590,-0.080,130.556,50.000,327.778,1450.000,952.778,N
1355,-0.260,1.445,-0.130,141.667,50.000,322.222,966.667,483.333,N
1356,-0.365,1.395,-0.170,127.778,55.556,333.333,958.333,8.333,N
1357,-0.400,1.345,-0.220,144.444,50.000,308.333,925.000,33.333,N
1358,-0.400,1.355,-0.150,147.222,55.556,341.667,927.778,2.778,N
1359,-0.475,2.260,-0.415,197.222,116.667,116.667,547.222,380.556,V
1360,-0.285,1.475,-0.160,125.000,47.222,316.667,1383.333,836.111,N
1361,-0.465,2.270,0.285,197.222,116.667,116.667,538.889,844.444,V
1362,-0.525,1.215,-0.445,133.333,52.778,336.111,1352.778,813.889,N
1363,-0.660,2.165,-0.170,197.222,113.889,113.889,538.889,813.889,V
1364,-0.420,1.390,-0.290,127.778,52.778,338.889,1352.778,813.889,N
1365,-0.450,2.345,0.055,197.222,113.889,113.889,536.111,816.667,V
1366,-0.220,1.610,-0.125,125.000,55.556,361.111,1302.778,766.667,N
1367,-0.185,1.585,-0.035,127.778,52.778,333.333,897.222,405.556,N
1368,-0.200,1.575,-0.125,127.778,50.000,302.778,902.778,5.556,N
1369,-0.355,1.460,-0.200,155.556,52.778,319.444,886.111,16.667,N
1370,-0.390,1.395,-0.260,150.000,50.000,319.444,866.667,19.444,N
1371,-0.670,2.045,-0.020,194.444,113.889,113.889,544.444,322.222,V
1372,-0.540,1.270,-0.470,130.556,55.556,333.333,1311.111,766.667,N
1373,-0.640,1.115,-0.555,152.778,50.000,322.222,927.778,383.333,N
1374,-0.695,1.850,0.055,197.222,113.889,113.889,513.889,413.889,V
1375,-0.700,1.080,-0.615,130.556,52.778,336.111,1322.222,808.333,N
1376,-0.790,1.970,-0.085,197.222,113.889,113.889,536.111,786.111,V
1377,-0.585,1.105,-0.600,138.889,52.778,333.333,1305.556,769.444,N
1378,-0.635,1.125,-0.510,141.667,50.000,319.444,877.778,427.778,N
1379,-0.645,1.880,-0.375,197.222,113.889,113.889,516.667,361.111,V
1380,-0.630,1.110,-0.635,141.667,52.778,347.222,1316.667,800.000,N
1381,-0.680,1.125,-0.530,133.333,50.000,319.444,888.889,427.778,N
1382,-0.710,0.985,-0.545,152.778,52.778,338.889,880.556,8.333,N
1383,-0.805,1.840,-0.205,197.222,113.889,113.889,547.222,333.333,V
1384,-0.725,1.110,-0.560,138.889,52.778,333.333,1302.778,755.556,N
1385,-0.595,2.010,0.030,197.222,113.889,113.889,508.333,794.444,V
1386,-0.755,1.295,-0.470,130.556,52.778,350.000,1302.778,794.444,N
1387,-0.560,2.095,-0.030,197.222,116.667,116.667,533.333,769.444,V
1388,-0.765,1.185,-0.530,133.333,52.778,341.667,1352.778,819.444,N
1389,-0.795,1.175,-0.430,144.444,52.778,325.000,908.333,444.444,N
1390,-0.740,1.180,-0.395,155.556,52.778,333.333,930.556,22.222,N
1391,-0.675,1.985,-0.525,197.222,116.667,116.667,547.222,383.333,V
1392,-0.710,1.225,-0.490,122.222,52.778,319.444,1341.667,794.444,N
1393,-0.820,1.125,-0.545,150.000,52.778,319.444,925.000,416.667,N
1394,-0.755,1.100,-0.445,150.000,52.778,325.000,916.667,8.333,N
1395,-0.715,1.880,0.125,197.222,113.889,113.889,533.333,383.333,V
1396,-0.745,1.255,-0.430,125.000,52.778,341.667,1358.333,825.000,N
1397,-0.610,2.040,0.295,197.222,113.889,113.889,536.111,822.222,V
1398,-0.740,1.165,-0.530,138.889,55.556,352.778,1330.556,794.444,N
1399,-0.815,1.085,-0.520,144.444,50.000,319.444,930.556,400.000,N
1400,-0.700,1.880,-0.495,197.222,116.667,116.667,533.333,397.222,V
1401,-0.865,1.080,-0.605,133.333,50.000,327.778,1330.556,797.222,N
1402,-0.765,1.985,-0.105,197.222,116.667,116.667,533.333,797.222,V
1403,-0.895,1.040,-0.630,130.556,52.778,352.778,1347.222,813.889,N
1404,-0.830,1.110,-0.520,141.667,52.778,325.000,944.444,402.778,N
1405,-0.640,1.870,0.065,197.222,116.667,116.667,513.889,430.556,V
1406,-0.810,1.110,-0.615,136.111,52.778,341.667,1352.778,838.889,N
1407,-0.740,1.055,-0.475,150.000,55.556,325.000,947.222,405.556,N
1408,-0.680,1.910,-0.565,197.222,116.667,116.667,530.556,416.667,V
1409,-0.680,1.065,-0.580,130.556,52.778,336.111,1297.222,766.667,N
1410,-0.615,1.135,-0.445,130.556,50.000,330.556,927.778,369.444,N
1411,-0.630,1.890,-0.485,197.222,116.667,116.667,530.556,397.222,V
1412,-0.600,1.135,-0.520,130.556,55.556,347.222,1300.000,769.444,N
1413,-0.570,1.130,-0.440,152.778,52.778,316.667,936.111,363.889,N
1414,-0.735,1.840,0.355,194.444,116.667,116.667,525.000,411.111,V
1415,-0.750,1.170,-0.375,138.889,55.556,347.222,1302.778,777.778,N
1416,-0.590,2.100,-0.430,197.222,116.667,116.667,552.778,750.000,V
1417,-0.765,1.215,-0.410,130.556,52.778,330.556,1225.000,672.222,N
1418,-0.525,2.065,0.055,197.222,116.667,116.667,522.222,702.778,V
1419,-0.740,1.165,-0.460,130.556,55.556,352.778,1266.667,744.444,N
1420,-0.695,1.225,-0.400,147.222,52.778,311.111,866.667,400.000,N
1421,-0.725,1.130,-0.360,152.778,52.778,319.444,863.889,2.778,N
1422,-0.805,1.090,-0.465,183.333,55.556,341.667,902.778,38.889,N
1423,-0.855,1.100,-0.420,183.333,52.778,333.333,947.222,44.444,N
1424,-0.590,1.845,-0.060,197.222,116.667,116.667,525.000,422.222,V
1425,-0.805,1.140,-0.470,133.333,52.778,330.556,1450.000,925.000,N
1426,-0.745,1.905,0.120,197.222,116.667,116.667,550.000,900.000,V
1427,-0.775,1.190,-0.380,127.778,58.333,350.000,1472.222,922.222,N
1428,-0.685,1.840,-0.365,136.111,116.667,116.667,611.111,861.111,V
1429,-0.705,1.300,-0.355,127.778,52.778,352.778,1366.667,755.556,N
1430,-0.505,2.045,-0.155,197.222,116.667,116.667,544.444,822.222,V
1431,-0.630,1.255,-0.395,133.333,52.778,333.333,1441.667,897.222,N
1432,-0.400,2.095,-0.675,197.222,113.889,113.889,508.333,933.333,V
1433,-0.575,1.295,-0.330,136.111,52.778,347.222,1333.333,825.000,N
1434,-0.460,2.150,-0.845,197.222,116.667,116.667,541.667,791.667,V
1435,-0.650,1.340,-0.310,130.556,55.556,347.222,1316.667,775.000,N
1436,-0.500,2.180,-0.525,197.222,111.111,111.111,547.222,769.444,V
1437,-0.565,1.260,-0.315,133.333,55.556,358.333,1311.111,763.889,N
1438,-0.635,1.240,-0.365,144.444,52.778,322.222,908.333,402.778,N
1439,-0.700,1.225,-0.355,155.556,52.778,319.444,919.444,11.111,N
1440,-0.635,1.950,-0.665,197.222,116.667,116.667,519.444,400.000,V
1441,-0.735,1.170,-0.385,133.333,52.778,341.667,1330.556,811.111,N
1442,-0.535,2.055,0.425,197.222,116.667,116.667,530.556,800.000,V
1443,-0.605,1.185,-0.440,138.889,50.000,336.111,1416.667,886.111,N
1444,-0.570,1.060,-0.400,150.000,52.778,319.444,922.222,494.444,N
1445,-0.640,1.025,-0.465,166.667,52.778,344.444,927.778,5.556,N
1446,-0.675,1.115,-0.420,161.111,55.556,330.556,919.444,8.333,N
1447,-0.615,1.105,-0.375,155.556,47.222,308.333,925.000,5.556,N
1448,-0.800,1.860,-0.185,197.222,116.667,116.667,522.222,402.778,V
1449,-0.580,1.215,-0.445,141.667,52.778,347.222,1366.667,844.444,N
1450,-0.570,1.260,-0.255,152.778,55.556,336.111,952.778,413.889,N
1451,-0.525,2.120,0.680,197.222,113.889,113.889,541.667,411.111,V
1452,-0.475,1.315,-0.335,136.111,52.778,327.778,1366.667,825.000,N
1453,-0.485,1.310,-0.225,158.333,55.556,341.667,947.222,419.444,N
1454,-0.470,1.315,-0.200,155.556,55.556,325.000,961.111,13.889,N
1455,-0.435,2.225,-0.240,197.222,116.667,116.667,527.778,433.333,V
1456,-0.360,1.450,-0.110,141.667,52.778,338.889,1316.667,788.889,N
1457,-0.285,2.430,-0.525,197.222,116.667,116.667,533.333,783.333,V
1458,-0.315,1.485,-0.170,138.889,55.556,352.778,1352.778,819.444,N
1459,-0.335,2.390,-0.060,197.222,111.111,111.111,552.778,800.000,V
1460,-0.445,1.415,-0.310,136.111,50.000,336.111,1341.667,788.889,N
1461,-0.465,1.360,-0.245,152.778,58.333,347.222,955.556,386.111,N
1462,-0.445,1.325,-0.195,155.556,52.778,338.889,936.111,19.444,N
1463,-0.410,2.225,-0.235,197.222,113.889,113.889,536.111,400.000,V
1464,-0.550,1.350,-0.320,136.111,52.778,338.889,1336.111,800.000,N
1465,-0.500,2.275,-0.220,197.222,116.667,116.667,536.111,800.000,V
1466,-0.500,1.310,-0.290,125.000,55.556,369.444,1366.667,830.556,N
1467,-0.425,2.370,-0.010,197.222,116.667,116.667,552.778,813.889,V
1468,-0.545,1.320,-0.370,133.333,50.000,327.778,1322.222,769.444,N
1469,-0.495,2.200,0.910,197.222,113.889,113.889,538.889,783.333,V
1470,-0.540,1.245,-0.440,133.333,50.000,355.556,1361.111,822.222,N
1471,-0.535,2.210,-0.830,197.222,116.667,116.667,541.667,819.444,V
1472,-0.535,1.295,-0.370,122.222,52.778,347.222,1319.444,777.778,N
1473,-0.430,2.265,-0.450,197.222,116.667,116.667,530.556,788.889,V
1474,-0.610,1.265,-0.360,133.333,50.000,363.889,1313.889,783.333,N
1475,-0.470,2.260,0.005,197.222,113.889,113.889,558.333,755.556,V
1476,-0.785,1.265,-0.455,127.778,52.778,341.667,1266.667,708.333,N
1477,-0.540,2.140,0.580,197.222,113.889,113.889,538.889,727.778,V
1478,-0.765,1.265,-0.445,130.556,50.000,350.000,1238.889,700.000,N
1479,-0.790,1.190,-0.460,136.111,47.222,319.444,830.556,408.333,N
1480,-0.865,1.145,-0.415,150.000,52.778,330.556,827.778,2.778,N
1481,-0.805,1.155,-0.450,144.444,50.000,325.000,775.000,52.778,N
1482,-0.930,1.100,-0.505,155.556,52.778,327.778,800.000,25.000,N
1483,-0.975,0.990,-0.505,144.444,52.778,322.222,838.889,38.889,N
1484,-0.910,1.020,-0.520,155.556,52.778,330.556,819.444,19.444,N
1485,-0.965,1.020,-0.560,144.444,52.778,316.667,816.667,2.778,N
1486,-0.970,1.010,-0.535,166.667,52.778,327.778,894.444,77.778,N
1487,-0.990,0.965,-0.580,155.556,50.000,325.000,894.444,0.000,N
1488,-0.995,1.030,-0.500,1351669.444,47.222,327.778,872.222,22.222,N
1489,-0.955,1.075,-0.485,144.444,50.000,327.778,933.333,61.111,N
1490,-0.955,1.025,-0.525,150.000,50.000,333.333,950.000,16.667,N
1491,-0.980,0.995,-0.550,147.222,50.000,338.889,927.778,22.222,N
1492,-0.990,1.060,-0.485,141.667,50.000,325.000,958.333,30.556,N
1493,-0.940,0.990,-0.570,144.444,50.000,319.444,977.778,19.444,N
1494,-0.995,0.925,-0.580,1357391.667,55.556,322.222,975.000,2.778,N
1495,-0.945,1.065,-0.515,147.222,52.778,325.000,958.333,16.667,N
1496,-0.785,1.720,-0.530,197.222,116.667,116.667,530.556,427.778,V
1497,-0.775,1.175,-0.435,130.556,52.778,338.889,1422.222,891.667,N
1498,-0.680,1.945,-0.295,197.222,116.667,116.667,550.000,872.222,V
1499,-0.655,1.095,-0.440,141.667,52.778,350.000,1363.889,813.889,N
1500,-0.475,2.040,-0.400,197.222,113.889,113.889,527.778,836.111,V
1501,-0.775,1.160,-0.465,136.111,52.778,363.889,1297.222,769.444,N
1502,-0.790,1.910,0.150,197.222,116.667,116.667,586.111,711.111,V
1503,-0.895,1.100,-0.490,127.778,52.778,341.667,1266.667,680.556,N
1504,-0.875,1.120,-0.360,144.444,58.333,338.889,875.000,391.667,N
1505,-0.505,1.940,-0.430,197.222,116.667,116.667,525.000,350.000,V
1506,-0.850,1.145,-0.510,130.556,55.556,355.556,1213.889,688.889,N
1507,-0.780,1.200,-0.380,144.444,52.778,327.778,877.778,336.111,N
1508,-0.585,1.935,-0.610,197.222,113.889,113.889,527.778,350.000,V
1509,-0.795,1.230,-0.465,133.333,52.778,358.333,1194.444,666.667,N
1510,-0.565,2.020,0.610,197.222,113.889,113.889,544.444,650.000,V
1511,-0.755,1.170,-0.425,136.111,52.778,347.222,1244.444,700.000,N
1512,-0.820,1.150,-0.485,136.111,50.000,325.000,822.222,422.222,N
1513,-0.890,1.150,-0.465,141.667,50.000,327.778,858.333,36.111,N
1514,-0.920,1.075,-0.445,144.444,52.778,327.778,875.000,16.667,N
1515,-0.895,1.105,-0.465,158.333,52.778,336.111,891.667,16.667,N
1516,-0.860,1.130,-0.415,150.000,55.556,333.333,919.444,27.778,N
1517,-0.755,1.850,0.025,197.222,116.667,116.667,536.111,383.333,V
1518,-0.735,1.185,-0.380,130.556,55.556,355.556,1313.889,777.778,N
1519,-0.465,2.130,-0.410,197.222,111.111,111.111,538.889,775.000,V
1520,-0.695,1.205,-0.385,125.000,52.778,336.111,1330.556,791.667,N
1521,-0.550,2.065,-0.070,197.222,116.667,116.667,541.667,788.889,V
1522,-0.625,1.160,-0.405,136.111,58.333,352.778,1316.667,775.000,N
1523,-0.455,2.065,0.310,197.222,111.111,111.111,536.111,780.556,V
1524,-0.585,1.130,-0.400,136.111,52.778,338.889,1336.111,800.000,N
1525,-0.490,2.100,-0.805,197.222,113.889,113.889,541.667,794.444,V
1526,-0.740,1.165,-0.465,141.667,55.556,355.556,1302.778,761.111,N
1527,-0.760,1.150,-0.380,144.444,52.778,347.222,908.333,394.444,N
1528,-0.490,1.950,-0.380,197.222,111.111,111.111,525.000,383.333,V
1529,-0.840,1.190,-0.410,125.000,50.000,336.111,1225.000,700.000,N
1530,-0.685,2.050,0.015,197.222,116.667,116.667,552.778,672.222,V
1531,-0.765,1.185,-0.355,138.889,52.778,355.556,1197.222,644.444,N
1532,-0.730,1.260,-0.295,141.667,52.778,311.111,844.444,352.778,N
1533,-0.715,1.165,-0.315,144.444,52.778,316.667,822.222,22.222,N
1534,-0.510,1.885,0.525,197.222,113.889,113.889,516.667,305.556,V
1535,-0.745,1.250,-0.275,122.222,50.000,330.556,1202.778,686.111,N
1536,-0.510,2.100,0.140,197.222,113.889,113.889,541.667,661.111,V
1537,-0.730,1.215,-0.360,130.556,52.778,350.000,1169.444,627.778,N
1538,-0.770,1.240,-0.305,155.556,50.000,322.222,863.889,305.556,N
1539,-0.570,1.950,-0.095,197.222,113.889,113.889,522.222,341.667,V
1540,-0.705,1.250,-0.330,130.556,52.778,344.444,1266.667,744.444,N
1541,-0.715,1.120,-0.310,147.222,50.000,325.000,894.444,372.222,N
1542,-0.570,1.900,-0.595,197.222,116.667,116.667,527.778,366.667,V
1543,-0.730,1.165,-0.340,130.556,55.556,341.667,1311.111,783.333,N
1544,-0.515,2.100,-0.245,197.222,116.667,116.667,538.889,772.222,V
1545,-0.760,1.215,-0.375,138.889,55.556,361.111,1311.111,772.222,N
1546,-0.465,2.055,-0.285,197.222,111.111,111.111,541.667,769.444,V
1547,-0.770,1.165,-0.410,127.778,50.000,336.111,1419.444,877.778,N
1548,-0.550,2.030,-0.045,197.222,116.667,116.667,544.444,875.000,V
1549,-0.675,1.180,-0.445,133.333,50.000,350.000,1400.000,855.556,N
1550,-0.575,1.165,-0.320,158.333,55.556,341.667,986.111,413.889,N
1551,-0.490,1.980,-0.245,197.222,113.889,113.889,547.222,438.889,V
1552,-0.595,1.215,-0.395,133.333,50.000,327.778,1363.889,816.667,N
1553,-0.495,1.175,-0.375,150.000,52.778,336.111,986.111,377.778,N
1554,-0.560,1.920,0.300,197.222,116.667,116.667,525.000,461.111,V
1555,-0.550,1.255,-0.435,119.444,52.778,363.889,1375.000,850.000,N
1556,-0.625,2.020,0.070,197.222,116.667,116.667,563.889,811.111,V
1557,-0.615,1.145,-0.500,136.111,50.000,341.667,1363.889,800.000,N
1558,-0.575,1.210,-0.345,161.111,50.000,333.333,952.778,411.111,N
1559,-0.505,1.985,-0.075,197.222,111.111,111.111,530.556,422.222,V
1560,-0.600,1.175,-0.470,133.333,55.556,352.778,1350.000,819.444,N
1561,-0.570,1.275,-0.320,147.222,50.000,327.778,950.000,400.000,N
1562,-0.575,1.175,-0.345,147.222,52.778,319.444,916.667,33.333,N
1563,-0.555,1.975,0.315,197.222,116.667,116.667,525.000,391.667,V
1564,-0.625,1.190,-0.385,119.444,52.778,350.000,1347.222,822.222,N
1565,-0.610,2.075,-0.155,197.222,116.667,116.667,547.222,800.000,V
1566,-0.690,1.095,-0.465,122.222,55.556,350.000,1358.333,811.111,N
1567,-0.625,1.150,-0.430,155.556,55.556,344.444,938.889,419.444,N
1568,-0.690,1.085,-0.370,152.778,52.778,341.667,908.333,30.556,N
1569,-0.715,1.930,-0.335,194.444,116.667,116.667,552.778,355.556,V
1570,-0.730,1.060,-0.520,136.111,52.778,347.222,1333.333,780.556,N
1571,-0.720,1.960,0.295,197.222,111.111,111.111,552.778,780.556,V
1572,-0.690,1.055,-0.530,130.556,52.778,347.222,1377.778,825.000,N
1573,-0.765,1.065,-0.505,152.778,55.556,341.667,919.444,458.333,N
1574,-0.780,1.790,0.540,197.222,113.889,113.889,541.667,377.778,V
1575,-0.740,1.010,-0.605,130.556,50.000,333.333,1358.333,816.667,N
1576,-0.715,1.070,-0.490,158.333,52.778,338.889,952.778,405.556,N
1577,-0.750,1.005,-0.510,147.222,50.000,322.222,925.000,27.778,N
1578,-0.720,1.065,-0.440,141.667,52.778,327.778,900.000,25.000,N
1579,-0.675,1.860,0.550,197.222,116.667,116.667,533.333,366.667,V
1580,-0.610,1.140,-0.420,125.000,50.000,350.000,1386.111,852.778,N
1581,-0.650,1.105,-0.480,150.000,55.556,336.111,941.667,444.444,N
1582,-0.690,1.010,-0.495,155.556,52.778,325.000,980.556,38.889,N
1583,-0.715,1.035,-0.445,161.111,52.778,327.778,925.000,55.556,N
1584,-0.680,1.015,-0.400,158.333,58.333,350.000,911.111,13.889,N
1585,-0.830,1.745,0.240,197.222,113.889,113.889,561.111,350.000,V
1586,-0.670,1.090,-0.440,138.889,50.000,350.000,1336.111,775.000,N
1587,-0.765,1.840,0.300,197.222,116.667,116.667,566.667,769.444,V
1588,-0.660,1.065,-0.530,130.556,50.000,347.222,1350.000,783.333,N
1589,-0.690,1.045,-0.430,147.222,50.000,347.222,922.222,427.778,N
1590,-0.695,1.805,0.075,197.222,108.333,108.333,550.000,372.222,V
1591,-0.635,1.130,-0.460,136.111,50.000,341.667,1302.778,752.778,N
1592,-0.605,1.115,-0.365,150.000,55.556,341.667,897.222,405.556,N
1593,-0.580,1.110,-0.410,147.222,52.778,330.556,880.556,16.667,N
1594,-0.675,1.790,-0.150,197.222,116.667,116.667,536.111,344.444,V
1595,-0.740,1.160,-0.320,133.333,55.556,338.889,1286.111,750.000,N
1596,-0.410,2.055,0.165,197.222,113.889,113.889,533.333,752.778,V
1597,-0.855,1.100,-0.470,136.111,52.778,358.333,1211.111,677.778,N
1598,-0.775,1.185,-0.370,147.222,52.778,313.889,883.333,327.778,N
1599,-0.730,1.790,0.070,197.222,113.889,113.889,533.333,350.000,V
1600,-0.790,1.175,-0.380,127.778,55.556,350.000,1200.000,666.667,N
1601,-0.595,1.965,-0.260,197.222,113.889,113.889,555.556,644.444,V
1602,-0.780,1.110,-0.445,127.778,52.778,344.444,1241.667,686.111,N
1603,-0.870,1.065,-0.495,144.444,52.778,347.222,891.667,350.000,N
1604,-0.880,1.070,-0.455,141.667,50.000,325.000,891.667,0.000,N
1605,-0.675,1.790,-0.415,197.222,113.889,113.889,527.778,363.889,V
1606,-0.855,1.045,-0.490,136.111,52.778,352.778,1380.556,852.778,N
1607,-0.675,1.920,-0.215,197.222,116.667,116.667,547.222,833.333,V
1608,-0.920,1.055,-0.510,127.778,55.556,361.111,1330.556,783.333,N
1609,-0.765,1.805,0.200,197.222,116.667,116.667,569.444,761.111,V
1610,-0.930,1.030,-0.520,136.111,52.778,350.000,1294.444,725.000,N
1611,-0.890,1.075,-0.520,150.000,52.778,327.778,930.556,363.889,N
1612,-0.665,1.790,-0.235,197.222,113.889,113.889,527.778,402.778,V
1613,-0.940,0.980,-0.610,122.222,52.778,350.000,1252.778,725.000,N
1614,-0.925,1.050,-0.510,152.778,52.778,330.556,905.556,347.222,N
1615,-0.680,1.725,0.105,197.222,116.667,116.667,519.444,386.111,V
1616,-0.920,1.085,-0.585,122.222,55.556,352.778,1238.889,719.444,N
1617,-0.910,1.035,-0.585,141.667,50.000,322.222,894.444,344.444,N
1618,-0.675,1.760,-0.135,197.222,111.111,111.111,522.222,372.222,V
1619,-0.815,1.125,-0.530,136.111,52.778,358.333,1302.778,780.556,N
1620,-0.885,1.095,-0.450,141.667,52.778,325.000,905.556,397.222,N
1621,-0.640,1.820,0.115,197.222,116.667,116.667,530.556,375.000,V
1622,-0.885,1.035,-0.610,130.556,52.778,363.889,1294.444,763.889,N
1623,-0.900,1.050,-0.440,147.222,55.556,341.667,888.889,405.556,N
1624,-0.670,1.830,-0.460,197.222,113.889,113.889,538.889,350.000,V
1625,-0.850,1.075,-0.500,127.778,50.000,338.889,1238.889,700.000,N
1626,-0.560,1.940,0.320,197.222,108.333,108.333,530.556,708.333,V
1627,-0.855,1.105,-0.460,138.889,52.778,355.556,1280.556,750.000,N
1628,-0.640,1.960,-0.385,197.222,113.889,113.889,552.778,727.778,V
1629,-0.845,1.070,-0.485,130.556,55.556,333.333,1241.667,688.889,N
1630,-0.845,1.125,-0.480,147.222,52.778,333.333,869.444,372.222,N
1631,-0.870,1.130,-0.450,147.222,52.778,338.889,872.222,2.778,N
1632,-0.940,1.020,-0.485,141.667,50.000,319.444,894.444,22.222,N
1633,-0.880,1.045,-0.430,150.000,55.556,336.111,919.444,25.000,N
1634,-0.680,1.765,-0.130,197.222,116.667,116.667,527.778,391.667,V
1635,-0.885,1.050,-0.455,138.889,52.778,352.778,1363.889,836.111,N
1636,-0.740,1.860,0.410,197.222,113.889,113.889,563.889,800.000,V
1637,-0.810,1.135,-0.405,138.889,52.778,341.667,1377.778,813.889,N
1638,-0.535,1.870,0.355,197.222,116.667,116.667,530.556,847.222,V
1639,-0.685,1.195,-0.315,127.778,55.556,344.444,1347.222,816.667,N
1640,-0.685,1.900,-0.810,197.222,113.889,113.889,580.556,766.667,V
1641,-0.625,1.235,-0.290,127.778,52.778,347.222,1288.889,708.333,N
1642,-0.660,1.815,0.120,130.556,116.667,116.667,608.333,680.556,V
1643,-0.660,1.255,-0.295,144.444,58.333,352.778,1244.444,636.111,N
1644,-0.460,1.990,-0.850,197.222,116.667,116.667,547.222,697.222,V
1645,-0.610,1.275,-0.255,125.000,50.000,338.889,1266.667,719.444,N
1646,-0.455,2.020,0.775,197.222,116.667,116.667,558.333,708.333,V
1647,-0.725,1.240,-0.350,141.667,55.556,347.222,1272.222,713.889,N
1648,-0.685,1.195,-0.350,150.000,52.778,341.667,866.667,405.556,N
1649,-0.770,1.115,-0.420,150.000,52.778,338.889,869.444,2.778,N
1650,-0.800,1.135,-0.415,150.000,50.000,325.000,855.556,13.889,N
1651,-0.785,1.125,-0.375,158.333,52.778,330.556,886.111,30.556,N
1652,-0.860,1.065,-0.475,158.333,50.000,327.778,900.000,13.889,N
1653,-0.905,1.035,-0.455,144.444,50.000,322.222,908.333,8.333,N
1654,-0.810,1.130,-0.295,161.111,55.556,336.111,955.556,47.222,N
1655,-0.750,1.150,-0.330,155.556,52.778,333.333,952.778,2.778,N
1656,-0.705,1.235,-0.260,147.222,50.000,338.889,936.111,16.667,N
1657,-0.610,1.315,-0.165,152.778,52.778,338.889,977.778,41.667,N
1658,-0.675,1.215,-0.285,150.000,52.778,336.111,966.667,11.111,N
1659,-0.700,1.245,-0.280,163.889,55.556,333.333,975.000,8.333,N
1660,-0.700,1.205,-0.305,152.778,58.333,338.889,991.667,16.667,N
1661,-0.775,1.175,-0.375,141.667,55.556,341.667,938.889,52.778,N
1662,-0.850,1.080,-0.380,152.778,52.778,322.222,986.111,47.222,N
1663,-0.780,1.095,-0.365,147.222,50.000,319.444,966.667,19.444,N
1664,-0.825,1.190,-0.350,158.333,55.556,333.333,925.000,41.667,N
1665,-0.725,1.240,-0.280,150.000,50.000,327.778,947.222,22.222,N
1666,-0.725,1.235,-0.290,144.444,52.778,325.000,961.111,13.889,N
1667,-0.735,1.210,-0.270,152.778,55.556,327.778,975.000,13.889,N
1668,-0.450,1.920,-0.340,197.222,113.889,113.889,522.222,452.778,V
1669,-0.710,1.250,-0.325,130.556,55.556,375.000,1411.111,888.889,N
1670,-0.475,2.015,-0.455,197.222,116.667,116.667,561.111,850.000,V
1671,-0.440,1.320,-0.240,133.333,50.000,338.889,1358.333,797.222,N
1672,-0.640,1.980,0.455,197.222,116.667,116.667,572.222,786.111,V
1673,-0.530,1.250,-0.320,138.889,50.000,350.000,1333.333,761.111,N
1674,-0.735,1.940,-0.230,83.333,116.667,116.667,575.000,758.333,V
1675,-0.725,1.290,-0.345,127.778,52.778,341.667,1311.111,736.111,N
1676,-0.680,2.045,-0.800,194.444,116.667,116.667,566.667,744.444,V
1677,-0.745,1.250,-0.410,133.333,55.556,372.222,1266.667,700.000,N
1678,-0.760,1.255,-0.290,152.778,50.000,325.000,911.111,355.556,N
1679,-0.440,2.040,0.080,197.222,113.889,113.889,530.556,380.556,V
1680,-0.870,1.115,-0.515,130.556,55.556,338.889,1263.889,733.333,N
1681,-0.815,1.195,-0.400,152.778,52.778,330.556,888.889,375.000,N
1682,-0.790,1.215,-0.325,155.556,55.556,336.111,880.556,8.333,N
1683,-0.675,1.880,0.625,197.222,116.667,116.667,547.222,333.333,V
1684,-0.780,1.295,-0.380,136.111,47.222,361.111,1225.000,677.778,N
1685,-0.605,2.090,0.010,197.222,113.889,113.889,550.000,675.000,V
1686,-0.515,1.505,0.025,133.333,52.778,338.889,1177.778,627.778,N
1687,-0.095,2.340,0.310,197.222,116.667,116.667,530.556,647.222,V
1688,-0.645,1.160,-0.290,122.222,55.556,338.889,1063.889,533.333,N
1689,-0.625,1.250,-0.320,138.889,52.778,313.889,766.667,297.222,N
1690,-0.570,1.815,-0.025,197.222,113.889,113.889,519.444,247.222,V
1691,-0.995,0.950,-0.710,1537880.556,50.000,333.333,961.111,441.667,N
1692,-0.895,0.885,-0.620,133.333,52.778,316.667,750.000,211.111,N
1693,-0.940,0.910,-0.585,138.889,50.000,322.222,722.222,27.778,N
1694,-0.995,0.860,-0.650,136.111,50.000,319.444,711.111,11.111,N
1695,-0.995,1.000,-0.645,1540786.111,50.000,330.556,722.222,11.111,N
1696,-0.935,1.185,0.050,130.556,50.000,325.000,730.556,8.333,N
1697,-0.275,2.170,0.145,77.778,116.667,116.667,544.444,186.111,V
1698,-0.185,1.540,-0.040,119.444,50.000,333.333,947.222,402.778,N
1699,-0.750,1.200,-0.460,113.889,50.000,316.667,775.000,172.222,N
1700,-0.750,1.620,-0.625,197.222,116.667,116.667,525.000,250.000,V
1701,-0.995,0.910,-0.935,1545336.111,52.778,344.444,1027.778,502.778,N
1702,-0.995,1.210,-0.220,1545888.889,113.889,113.889,552.778,475.000,V
1703,-0.995,0.775,-0.935,1546922.222,55.556,338.889,1033.333,480.556,N
1704,-0.995,0.890,-0.795,1547680.556,55.556,313.889,758.333,275.000,N
1705,-0.995,0.810,-0.875,1548430.556,55.556,330.556,750.000,8.333,N
1706,-0.995,1.270,-0.600,1548986.111,116.667,116.667,555.556,194.444,V
1707,-0.995,1.150,-0.520,1550047.222,52.778,330.556,1061.111,505.556,N
1708,-0.990,1.740,-0.485,122.222,116.667,116.667,594.444,466.667,V
1709,-0.995,1.175,-0.550,1551688.889,50.000,333.333,1047.222,452.778,N
1710,-0.995,1.180,-0.480,1552491.667,50.000,327.778,802.778,244.444,N
1711,-0.860,1.285,-0.285,125.000,55.556,336.111,852.778,50.000,N
1712,-0.685,1.865,-0.335,197.222,113.889,113.889,544.444,308.333,V
1713,-0.915,1.235,-0.370,116.667,50.000,344.444,1183.333,638.889,N
1714,-0.795,1.280,-0.270,127.778,55.556,333.333,877.778,305.556,N
1715,-0.770,1.215,-0.300,138.889,55.556,336.111,897.222,19.444,N
1716,-0.685,1.865,-0.950,197.222,113.889,113.889,544.444,352.778,V
1717,-0.835,1.295,-0.375,119.444,50.000,333.333,1333.333,788.889,N
1718,-0.720,1.370,-0.285,138.889,52.778,330.556,980.556,352.778,N
1719,-0.745,1.225,-0.345,127.778,55.556,341.667,947.222,33.333,N
1720,-0.730,1.360,-0.160,130.556,55.556,333.333,933.333,13.889,N
1721,-0.365,2.090,0.295,197.222,116.667,116.667,527.778,405.556,V
1722,-0.450,1.595,-0.140,122.222,52.778,347.222,1455.556,927.778,N
1723,-0.575,1.430,-0.270,133.333,55.556,336.111,952.778,502.778,N
1724,-0.560,1.530,-0.135,133.333,58.333,341.667,930.556,22.222,N
1725,-0.265,2.120,0.565,197.222,113.889,113.889,527.778,402.778,V
1726,-0.660,1.355,-0.405,133.333,50.000,358.333,1383.333,855.556,N
1727,-0.700,1.385,-0.360,133.333,50.000,336.111,930.556,452.778,N
1728,-0.720,1.245,-0.495,136.111,52.778,327.778,941.667,11.111,N
1729,-0.915,1.085,-0.570,144.444,52.778,352.778,905.556,36.111,N
1730,-0.855,1.185,-0.430,136.111,52.778,330.556,930.556,25.000,N
1731,-0.640,1.175,-0.500,141.667,52.778,319.444,936.111,5.556,N
1732,-0.755,1.010,-0.555,147.222,55.556,333.333,850.000,86.111,N
1733,-0.790,1.115,-0.415,144.444,52.778,327.778,852.778,2.778,N
1734,-0.660,1.735,0.320,197.222,116.667,116.667,527.778,325.000,V
1735,-0.445,1.560,-0.135,138.889,52.778,338.889,1127.778,600.000,N
1736,-0.325,2.295,0.870,197.222,113.889,113.889,541.667,586.111,V
1737,-0.260,1.570,-0.135,127.778,52.778,344.444,1244.444,702.778,N
1738,-0.275,1.620,-0.070,150.000,50.000,319.444,858.333,386.111,N
1739,-0.230,1.675,-0.060,150.000,52.778,330.556,841.667,16.667,N
1740,-0.300,1.930,-0.650,58.333,105.556,116.667,588.889,252.778,V
1741,-0.325,1.640,-0.050,133.333,52.778,336.111,1202.778,613.889,N
1742,-0.275,2.485,0.760,197.222,116.667,116.667,536.111,666.667,V
1743,-0.325,1.480,-0.205,133.333,55.556,344.444,1277.778,741.667,N
1744,-0.385,1.485,-0.220,144.444,52.778,330.556,866.667,411.111,N
1745,-0.375,1.535,-0.140,138.889,50.000,327.778,880.556,13.889,N
1746,-0.490,2.050,0.440,197.222,113.889,113.889,536.111,344.444,V
1747,-0.520,1.535,-0.195,133.333,50.000,338.889,1252.778,716.667,N
1748,-0.385,2.345,-0.480,197.222,116.667,116.667,541.667,711.111,V
1749,-0.595,1.465,-0.170,122.222,52.778,333.333,1155.556,613.889,N
1750,-0.330,1.685,0.105,141.667,55.556,319.444,797.222,358.333,N
1751,-0.300,1.705,0.185,116.667,52.778,319.444,797.222,0.000,N
1752,-0.190,2.290,2.500,197.222,-1589758.333,-8572.222,527.778,269.444,V
1753,-0.545,1.520,-0.160,122.222,55.556,336.111,1144.444,616.667,N
1754,-0.605,1.425,-0.380,133.333,50.000,319.444,794.444,350.000,N
1755,-0.910,1.220,-0.500,138.889,55.556,322.222,797.222,2.778,N
1756,-0.995,1.185,-0.240,1593333.333,55.556,330.556,783.333,13.889,N
1757,-0.495,1.915,0.085,194.444,116.667,116.667,527.778,255.556,V
1758,-0.995,0.760,-0.995,1594955.556,52.778,-1594925.000,1094.444,566.667,N
1759,-0.995,1.810,-0.995,1595522.222,116.667,-1595463.889,566.667,527.778,V
1760,-0.995,1.065,-0.650,1596619.444,52.778,336.111,1097.222,530.556,N
1761,-0.985,1.140,-0.585,141.667,52.778,325.000,825.000,272.222,N
1762,-0.985,1.300,-0.510,138.889,52.778,319.444,805.556,19.444,N
1763,-0.895,2.075,-0.995,58.333,116.667,-1598736.111,544.444,261.111,V
1764,-0.595,1.545,-0.200,125.000,55.556,330.556,1111.111,566.667,N
1765,-0.420,1.555,-0.205,144.444,52.778,322.222,822.222,288.889,N
1766,-0.330,1.570,-0.045,136.111,52.778,319.444,827.778,5.556,N
1767,-0.395,1.465,-0.215,155.556,47.222,311.111,866.667,38.889,N
1768,-0.425,1.455,-0.090,152.778,47.222,313.889,844.444,22.222,N
1769,-0.375,2.240,0.585,197.222,113.889,113.889,522.222,322.222,V
1770,-0.405,1.535,-0.210,127.778,50.000,325.000,1366.667,844.444,N
1771,-0.355,2.320,-0.365,197.222,116.667,116.667,525.000,841.667,V
1772,-0.350,1.365,-0.300,138.889,52.778,347.222,1391.667,866.667,N
1773,-0.485,1.460,-0.165,150.000,55.556,333.333,905.556,486.111,N
1774,-0.410,2.145,0.330,197.222,108.333,108.333,527.778,377.778,V
1775,-0.450,1.410,-0.320,125.000,50.000,344.444,1330.556,802.778,N
1776,-0.430,1.460,-0.215,144.444,50.000,313.889,930.556,400.000,N
1777,-0.390,2.180,0.195,197.222,111.111,111.111,513.889,416.667,V
1778,-0.510,1.290,-0.485,136.111,52.778,338.889,1411.111,897.222,N
1779,-0.535,1.290,-0.325,147.222,55.556,336.111,1019.444,391.667,N
1780,-0.605,2.005,0.540,197.222,113.889,113.889,538.889,480.556,V
1781,-0.505,1.330,-0.340,130.556,55.556,336.111,1433.333,894.444,N
1782,-0.650,2.115,-0.585,77.778,116.667,116.667,558.333,875.000,V
1783,-0.505,1.260,-0.480,130.556,52.778,344.444,1408.333,850.000,N
1784,-0.570,1.275,-0.380,155.556,50.000,330.556,1005.556,402.778,N
1785,-0.680,2.020,0.350,197.222,113.889,113.889,541.667,463.889,V
1786,-0.530,1.265,-0.440,133.333,52.778,344.444,1433.333,891.667,N
1787,-0.475,2.260,-0.170,197.222,108.333,108.333,527.778,905.556,V
1788,-0.420,1.395,-0.310,136.111,55.556,355.556,1469.444,941.667,N
1789,-0.465,1.385,-0.360,141.667,47.222,327.778,955.556,513.889,N
1790,-0.440,1.440,-0.155,144.444,50.000,322.222,922.222,33.333,N
1791,-0.265,1.445,-0.145,152.778,52.778,338.889,944.444,22.222,N
1792,-0.365,1.390,-0.250,161.111,55.556,352.778,922.222,22.222,N
1793,-0.480,1.365,-0.250,147.222,58.333,338.889,913.889,8.333,N
1794,-0.440,2.180,0.150,197.222,113.889,113.889,530.556,383.333,V
1795,-0.325,1.535,-0.225,144.444,55.556,358.333,1411.111,880.556,N
1796,-0.335,2.240,0.025,197.222,113.889,113.889,541.667,869.444,V
1797,-0.545,1.405,-0.400,130.556,52.778,350.000,1313.889,772.222,N
1798,-0.490,1.490,-0.315,141.667,52.778,325.000,969.444,344.444,N
1799,-0.475,1.290,-0.335,150.000,50.000,316.667,894.444,75.000,N
1800,-0.575,1.370,-0.305,150.000,52.778,333.333,861.111,33.333,N
1801,-0.575,2.230,-0.380,197.222,116.667,116.667,538.889,322.222,V
1802,-0.430,1.505,-0.330,136.111,52.778,330.556,1258.333,719.444,N
1803,-0.510,2.220,-0.455,197.222,116.667,116.667,536.111,722.222,V
1804,-0.500,1.535,-0.295,133.333,50.000,347.222,1272.222,736.111,N
1805,-0.460,1.550,-0.200,138.889,50.000,316.667,888.889,383.333,N
1806,-0.505,1.440,-0.210,152.778,52.778,325.000,836.111,52.778,N
1807,-0.680,1.465,-0.225,147.222,52.778,327.778,827.778,8.333,N
1808,-0.710,1.465,-0.220,152.778,55.556,333.333,894.444,66.667,N
1809,-0.610,2.160,0.355,197.222,111.111,111.111,541.667,352.778,V
1810,-0.695,1.475,-0.320,133.333,52.778,347.222,1316.667,775.000,N
1811,-0.610,1.395,-0.280,155.556,52.778,330.556,950.000,366.667,N
1812,-0.565,1.300,-0.300,147.222,50.000,325.000,911.111,38.889,N
1813,-0.615,1.365,-0.360,158.333,58.333,311.111,888.889,22.222,N
1814,-0.620,1.425,-0.290,161.111,52.778,336.111,894.444,5.556,N
1815,-0.535,1.385,-0.300,152.778,55.556,330.556,905.556,11.111,N
1816,-0.645,1.230,-0.385,155.556,50.000,316.667,888.889,16.667,N
1817,-0.665,1.340,-0.290,169.444,52.778,325.000,955.556,66.667,N
1818,-0.525,1.505,-0.255,166.667,52.778,322.222,947.222,8.333,N
1819,-0.550,1.395,-0.305,166.667,52.778,338.889,916.667,30.556,N
1820,-0.535,1.460,-0.220,155.556,52.778,333.333,955.556,38.889,N
1821,-0.475,1.500,-0.245,163.889,52.778,319.444,1002.778,47.222,N
1822,-0.535,1.300,-0.325,161.111,52.778,338.889,963.889,38.889,N
1823,-0.575,1.390,-0.210,161.111,52.778,325.000,911.111,52.778,N
1824,-0.785,2.165,0.275,61.111,116.667,116.667,566.667,344.444,V
1825,-0.465,1.450,-0.310,136.111,52.778,330.556,1372.222,805.556,N
1826,-0.500,1.430,-0.245,152.778,58.333,327.778,925.000,447.222,N
1827,-0.470,2.180,0.910,197.222,116.667,116.667,522.222,402.778,V
1828,-0.385,1.465,-0.330,136.111,52.778,352.778,1352.778,830.556,N
1829,-0.480,1.470,-0.260,144.444,52.778,316.667,902.778,450.000,N
1830,-0.445,1.460,-0.190,155.556,52.778,319.444,883.333,19.444,N
1831,-0.475,1.380,-0.250,155.556,52.778,327.778,913.889,30.556,N
1832,-0.555,1.290,-0.320,158.333,55.556,341.667,919.444,5.556,N
1833,-0.625,1.385,-0.265,169.444,52.778,319.444,961.111,41.667,N
1834,-0.785,2.165,-0.330,197.222,116.667,116.667,552.778,408.333,V
1835,-0.570,1.295,-0.345,144.444,55.556,355.556,1405.556,852.778,N
1836,-0.540,1.410,-0.285,166.667,50.000,333.333,972.222,433.333,N
