id,Pamp,Ramp,Tamp,PR,QRS,QT,RRI,dRRI,label
1,0.170,0.795,-0.040,102.778,77.778,286.111,683.333,108.333,N
2,0.195,0.775,-0.005,122.222,38.889,227.778,836.111,152.778,N
3,0.120,0.855,0.010,127.778,38.889,227.778,802.778,33.333,N
4,0.185,0.750,-0.060,133.333,36.111,236.111,822.222,19.444,N
5,0.150,0.800,0.035,122.222,36.111,236.111,816.667,5.556,N
6,0.255,0.860,0.000,116.667,72.222,241.667,730.556,86.111,N
7,-0.105,0.410,-0.245,119.444,33.333,127.778,858.333,127.778,N
8,-0.250,0.350,-0.270,122.222,72.222,261.111,819.444,38.889,N
9,0.005,0.620,-0.055,125.000,33.333,225.000,700.000,119.444,N
10,0.070,0.710,0.005,125.000,66.667,225.000,913.889,213.889,N
11,0.210,0.465,0.020,133.333,33.333,161.111,863.889,50.000,N
12,0.260,0.780,0.060,125.000,66.667,241.667,772.222,91.667,N
13,0.150,0.650,-0.020,125.000,50.000,191.667,822.222,50.000,N
14,0.095,0.315,-0.105,122.222,33.333,161.111,791.667,30.556,N
15,0.180,0.715,0.020,113.889,116.667,261.111,791.667,0.000,N
16,0.280,0.715,0.045,119.444,33.333,200.000,722.222,69.444,N
17,0.030,0.455,-0.025,130.556,38.889,133.333,933.333,211.111,N
18,-0.065,0.490,-0.055,125.000,72.222,177.778,891.667,41.667,N
19,0.010,0.665,-0.070,116.667,100.000,275.000,836.111,55.556,N
20,-0.115,0.230,-0.175,116.667,38.889,144.444,805.556,30.556,N
21,0.005,0.500,-0.060,116.667,116.667,225.000,813.889,8.333,N
22,0.125,0.555,-0.040,127.778,97.222,258.333,708.333,105.556,N
23,-0.120,0.250,-0.170,108.333,66.667,75.000,833.333,125.000,N
24,0.005,0.395,-0.100,113.889,113.889,258.333,772.222,61.111,N
25,0.115,0.440,-0.025,127.778,97.222,294.444,791.667,19.444,N
26,0.100,0.385,-0.055,127.778,105.556,283.333,850.000,58.333,N
27,0.070,0.350,-0.145,113.889,102.778,261.111,775.000,75.000,N
28,0.025,0.240,-0.235,119.444,72.222,183.333,786.111,11.111,N
29,-0.005,0.285,-0.085,113.889,75.000,258.333,780.556,5.556,N
30,0.135,0.485,-0.050,127.778,100.000,258.333,697.222,83.333,N
31,-0.080,0.280,-0.265,122.222,97.222,122.222,861.111,163.889,N
32,-0.275,0.020,-0.290,125.000,36.111,244.444,866.667,5.556,N
33,-0.030,0.450,-0.105,136.111,116.667,272.222,777.778,88.889,N
34,-0.005,0.475,-0.060,122.222,113.889,269.444,886.111,108.333,N
35,0.055,0.280,-0.125,127.778,33.333,188.889,741.667,144.444,N
36,0.095,0.525,-0.050,119.444,83.333,258.333,805.556,63.889,N
37,0.035,0.235,-0.175,122.222,33.333,208.333,788.889,16.667,N
38,0.125,0.560,-0.050,113.889,116.667,258.333,791.667,2.778,N
39,0.135,0.450,-0.055,125.000,33.333,208.333,741.667,50.000,N
40,-0.115,0.120,-0.175,127.778,36.111,186.111,922.222,180.556,N
41,0.070,0.495,-0.095,130.556,100.000,275.000,852.778,69.444,N
42,0.080,0.360,-0.075,125.000,66.667,241.667,758.333,94.444,N
43,-0.025,0.140,-0.225,119.444,36.111,163.889,844.444,86.111,N
44,0.105,0.565,-0.050,116.667,80.556,241.667,780.556,63.889,N
45,0.135,0.445,-0.050,125.000,69.444,255.556,744.444,36.111,N
46,-0.020,0.205,-0.180,122.222,36.111,158.333,800.000,55.556,N
47,0.100,0.465,-0.050,133.333,113.889,272.222,808.333,8.333,N
48,0.060,0.400,-0.140,133.333,44.444,205.556,830.556,22.222,N
49,-0.125,0.095,-0.255,111.111,36.111,175.000,875.000,44.444,N
50,0.035,0.455,-0.105,116.667,69.444,255.556,752.778,122.222,N
51,0.070,0.410,-0.165,122.222,66.667,241.667,794.444,41.667,N
52,0.020,0.380,-0.120,113.889,36.111,186.111,791.667,2.778,N
53,0.140,0.560,-0.065,113.889,63.889,191.667,702.778,88.889,N
54,-0.010,0.325,-0.150,119.444,66.667,244.444,869.444,166.667,N
55,0.195,0.735,0.040,125.000,77.778,280.556,825.000,44.444,N
56,0.210,0.635,-0.045,127.778,33.333,152.778,800.000,25.000,N
57,0.125,0.565,0.030,111.111,33.333,219.444,800.000,0.000,N
58,0.270,0.865,0.025,122.222,36.111,183.333,741.667,58.333,N
59,0.135,0.610,-0.135,116.667,33.333,127.778,850.000,108.333,N
60,0.105,0.645,-0.030,111.111,33.333,194.444,766.667,83.333,N
61,0.190,0.725,0.135,119.444,36.111,213.889,719.444,47.222,N
62,0.070,0.460,-0.445,125.000,36.111,225.000,886.111,166.667,N
63,-0.140,0.555,-0.165,125.000,38.889,244.444,797.222,88.889,N
64,0.150,0.760,-0.070,122.222,36.111,211.111,813.889,16.667,N
65,0.110,0.720,0.030,122.222,36.111,225.000,786.111,27.778,N
66,0.350,0.965,0.160,122.222,63.889,241.667,763.889,22.222,N
67,0.250,0.825,-0.045,125.000,36.111,127.778,802.778,38.889,N
68,-0.035,0.520,-0.155,122.222,33.333,194.444,780.556,22.222,N
69,0.205,0.925,-0.005,130.556,41.667,255.556,727.778,52.778,N
70,0.285,0.820,-0.005,127.778,38.889,258.333,927.778,200.000,N
71,0.255,0.540,0.030,125.000,33.333,175.000,813.889,113.889,N
72,0.345,1.045,0.120,122.222,75.000,269.444,797.222,16.667,N
73,0.325,0.850,0.065,125.000,36.111,208.333,772.222,25.000,N
74,0.045,0.495,-0.095,119.444,27.778,116.667,852.778,80.556,N
75,0.175,0.835,-0.005,122.222,36.111,208.333,727.778,125.000,N
76,0.205,0.830,0.020,122.222,33.333,213.889,777.778,50.000,N
77,0.020,0.485,-0.070,125.000,33.333,191.667,905.556,127.778,N
78,0.155,0.805,-0.015,133.333,36.111,213.889,811.111,94.444,N
79,0.295,0.830,0.055,125.000,33.333,205.556,755.556,55.556,N
80,0.085,0.600,-0.015,122.222,36.111,144.444,863.889,108.333,N
81,0.240,0.795,0.085,127.778,36.111,219.444,825.000,38.889,N
82,0.355,0.965,0.095,119.444,75.000,241.667,736.111,88.889,N
83,0.220,0.805,0.025,111.111,30.556,205.556,791.667,55.556,N
84,0.160,0.765,-0.095,127.778,36.111,191.667,800.000,8.333,N
85,0.010,0.465,-0.260,130.556,38.889,166.667,825.000,25.000,N
86,-0.020,0.815,-0.050,119.444,41.667,183.333,883.333,58.333,N
87,0.225,0.800,0.010,130.556,36.111,233.333,747.222,136.111,N
88,0.045,0.630,-0.140,122.222,36.111,144.444,891.667,144.444,N
89,0.175,0.800,-0.065,116.667,33.333,197.222,761.111,130.556,N
90,0.075,0.700,-0.185,119.444,69.444,155.556,780.556,19.444,N
91,-0.015,0.420,-0.105,125.000,36.111,252.778,847.222,66.667,N
92,0.290,0.930,0.095,130.556,38.889,238.889,816.667,30.556,N
93,0.255,0.805,0.000,127.778,38.889,177.778,900.000,83.333,N
94,0.080,0.345,-0.160,102.778,30.556,161.111,805.556,94.444,N
95,0.155,0.855,-0.030,122.222,66.667,272.222,822.222,16.667,N
96,0.225,0.690,-0.025,130.556,36.111,200.000,741.667,80.556,N
97,-0.090,0.465,-0.160,113.889,30.556,155.556,863.889,122.222,N
98,0.130,0.780,-0.075,125.000,38.889,225.000,777.778,86.111,N
99,0.205,0.780,0.000,127.778,38.889,244.444,819.444,41.667,N
100,0.035,0.705,-0.070,119.444,36.111,130.556,891.667,72.222,N
101,0.165,0.765,-0.020,122.222,36.111,208.333,805.556,86.111,N
102,0.185,0.780,-0.075,125.000,36.111,227.778,766.667,38.889,N
103,0.000,0.550,-0.150,113.889,36.111,208.333,872.222,105.556,N
104,0.105,0.770,-0.015,122.222,36.111,208.333,780.556,91.667,N
105,0.210,0.770,-0.020,111.111,33.333,205.556,733.333,47.222,N
106,0.005,0.540,-0.140,119.444,33.333,130.556,858.333,125.000,N
107,0.150,0.820,-0.015,122.222,77.778,219.444,819.444,38.889,N
108,0.220,0.725,-0.020,122.222,36.111,211.111,800.000,19.444,N
109,-0.005,0.375,-0.235,122.222,36.111,194.444,816.667,16.667,N
110,0.055,0.715,-0.110,119.444,97.222,255.556,813.889,2.778,N
111,0.185,0.725,-0.030,119.444,33.333,230.556,716.667,97.222,N
112,0.060,0.775,-0.010,108.333,33.333,227.778,836.111,119.444,N
113,0.165,0.635,-0.010,122.222,36.111,230.556,730.556,105.556,N
114,0.145,0.805,-0.095,127.778,38.889,194.444,858.333,127.778,N
115,0.070,0.545,-0.075,127.778,33.333,202.778,819.444,38.889,N
116,0.200,0.795,0.070,119.444,66.667,241.667,825.000,5.556,N
117,0.145,0.675,-0.100,119.444,30.556,41.667,833.333,8.333,N
118,-0.285,0.345,-0.225,122.222,33.333,205.556,852.778,19.444,N
119,-0.035,0.885,-0.045,119.444,66.667,272.222,813.889,38.889,N
120,0.035,0.790,-0.005,122.222,38.889,213.889,813.889,0.000,N
121,0.085,0.735,0.065,122.222,33.333,166.667,880.556,66.667,N
122,0.085,0.660,0.150,127.778,33.333,155.556,891.667,11.111,N
123,0.200,1.010,0.110,122.222,75.000,227.778,866.667,25.000,N
124,0.100,0.740,-0.025,127.778,33.333,47.222,858.333,8.333,N
125,-0.080,0.560,0.010,122.222,30.556,152.778,875.000,16.667,N
126,0.185,0.955,-0.005,119.444,75.000,252.778,725.000,150.000,N
127,0.035,0.885,-0.020,113.889,36.111,208.333,875.000,150.000,N
128,-0.125,0.315,-0.195,130.556,33.333,102.778,902.778,27.778,N
129,-0.005,0.860,-0.115,122.222,69.444,94.444,891.667,11.111,N
130,0.110,0.950,0.105,122.222,36.111,213.889,897.222,5.556,N
131,-0.025,0.525,-0.155,127.778,36.111,86.111,863.889,33.333,N
132,0.085,0.915,0.040,119.444,38.889,236.111,852.778,11.111,N
133,0.180,1.050,0.130,136.111,44.444,88.889,841.667,11.111,N
134,0.030,0.505,-0.055,125.000,33.333,41.667,816.667,25.000,N
135,0.075,0.695,0.195,102.778,75.000,222.222,891.667,75.000,N
136,0.050,0.735,-0.170,122.222,102.778,111.111,902.778,11.111,N
137,-0.255,0.270,-0.245,116.667,69.444,402.778,858.333,44.444,N
138,0.115,0.800,-0.045,133.333,80.556,225.000,738.889,119.444,N
139,-0.050,0.625,-0.150,116.667,83.333,205.556,897.222,158.333,N
140,0.015,0.480,0.095,111.111,36.111,277.778,841.667,55.556,N
141,0.235,0.690,-0.070,88.889,75.000,150.000,772.222,69.444,N
142,-0.035,0.475,-0.130,122.222,61.111,105.556,905.556,133.333,N
143,-0.150,0.420,-0.175,119.444,100.000,391.667,850.000,55.556,N
144,0.155,0.575,0.030,116.667,111.111,255.556,797.222,52.778,N
145,0.030,0.290,-0.055,119.444,66.667,225.000,875.000,77.778,N
146,0.275,0.720,0.140,119.444,113.889,255.556,808.333,66.667,N
147,0.320,0.680,0.105,130.556,102.778,191.667,763.889,44.444,N
148,0.005,0.325,-0.050,102.778,66.667,158.333,838.889,75.000,N
149,0.220,0.630,0.050,122.222,111.111,252.778,816.667,22.222,N
150,0.195,0.530,-0.010,127.778,100.000,241.667,836.111,19.444,N
151,-0.080,0.230,-0.115,130.556,36.111,225.000,888.889,52.778,N
152,0.145,0.590,-0.020,125.000,100.000,258.333,775.000,113.889,N
153,0.135,0.510,-0.065,111.111,100.000,208.333,805.556,30.556,N
154,-0.115,0.235,-0.130,113.889,33.333,188.889,836.111,30.556,N
155,0.115,0.540,-0.035,122.222,100.000,255.556,727.778,108.333,N
156,0.080,0.460,-0.135,127.778,100.000,119.444,786.111,58.333,N
157,-0.060,0.180,-0.200,127.778,36.111,241.667,850.000,63.889,N
158,0.055,0.505,-0.115,122.222,80.556,222.222,825.000,25.000,N
159,0.040,0.335,-0.195,116.667,97.222,225.000,797.222,27.778,N
160,-0.085,0.185,-0.160,122.222,36.111,211.111,788.889,8.333,N
161,0.095,0.490,-0.070,125.000,102.778,258.333,738.889,50.000,N
162,-0.015,0.320,-0.195,116.667,116.667,191.667,788.889,50.000,N
163,0.085,0.550,-0.020,105.556,91.667,263.889,772.222,16.667,N
164,0.215,0.570,0.025,136.111,69.444,241.667,747.222,25.000,N
165,0.010,0.525,-0.065,119.444,100.000,241.667,883.333,136.111,N
166,0.040,0.300,-0.135,127.778,66.667,208.333,758.333,125.000,N
167,-0.060,0.225,-0.135,125.000,36.111,244.444,797.222,38.889,N
168,0.075,0.515,-0.045,127.778,97.222,258.333,788.889,8.333,N
169,0.075,0.360,-0.155,119.444,36.111,41.667,775.000,13.889,N
170,-0.230,0.100,-0.215,108.333,66.667,255.556,836.111,61.111,N
171,-0.005,0.380,-0.140,119.444,113.889,252.778,744.444,91.667,N
172,0.020,0.430,-0.095,130.556,97.222,272.222,841.667,97.222,N
173,0.040,0.245,-0.095,138.889,36.111,211.111,841.667,0.000,N
174,0.175,0.600,0.050,127.778,97.222,258.333,841.667,0.000,N
175,0.255,0.555,0.090,125.000,38.889,208.333,763.889,77.778,N
176,0.080,0.405,-0.025,122.222,36.111,44.444,880.556,116.667,N
177,0.060,0.300,-0.085,116.667,33.333,236.111,772.222,108.333,N
178,0.170,0.585,0.090,116.667,91.667,269.444,752.778,19.444,N
179,0.055,0.565,-0.030,136.111,100.000,205.556,919.444,166.667,N
180,0.130,0.345,-0.005,130.556,41.667,208.333,813.889,105.556,N
181,0.260,0.755,0.095,130.556,111.111,255.556,850.000,36.111,N
182,0.165,0.580,-0.090,116.667,80.556,122.222,800.000,50.000,N
183,-0.235,0.165,-0.230,116.667,30.556,200.000,866.667,66.667,N
184,0.040,0.615,-0.080,127.778,102.778,258.333,727.778,138.889,N
185,0.000,0.585,-0.175,119.444,55.556,113.889,875.000,147.222,N
186,-0.205,0.110,-0.305,122.222,33.333,222.222,819.444,55.556,N
187,0.070,0.600,-0.055,127.778,86.111,258.333,808.333,11.111,N
188,0.075,0.635,-0.065,127.778,69.444,75.000,900.000,91.667,N
189,-0.005,0.265,-0.220,130.556,38.889,225.000,816.667,83.333,N
190,0.125,0.665,-0.015,113.889,97.222,255.556,830.556,13.889,N
191,0.185,0.700,-0.015,111.111,97.222,238.889,797.222,33.333,N
192,-0.030,0.390,-0.165,125.000,36.111,211.111,833.333,36.111,N
193,0.170,0.725,0.005,125.000,38.889,244.444,747.222,86.111,N
194,0.205,0.845,0.005,127.778,63.889,238.889,855.556,108.333,N
195,0.035,0.490,-0.225,125.000,36.111,108.333,863.889,8.333,N
196,0.155,0.815,-0.035,119.444,97.222,255.556,841.667,22.222,N
197,0.225,0.815,-0.035,130.556,38.889,205.556,780.556,61.111,N
198,-0.120,0.455,-0.185,111.111,30.556,175.000,861.111,80.556,N
199,0.140,0.760,-0.050,122.222,44.444,222.222,741.667,119.444,N
200,0.130,0.715,-0.115,125.000,100.000,272.222,816.667,75.000,N
201,0.010,0.355,-0.225,125.000,33.333,208.333,838.889,22.222,N
202,0.110,0.785,-0.080,125.000,36.111,244.444,850.000,11.111,N
203,0.115,0.620,-0.170,125.000,36.111,194.444,766.667,83.333,N
204,-0.010,0.815,-0.115,119.444,36.111,238.889,883.333,116.667,N
205,0.125,0.655,-0.175,125.000,36.111,47.222,747.222,136.111,N
206,0.085,0.780,-0.095,116.667,33.333,219.444,861.111,113.889,N
207,0.190,0.760,-0.050,113.889,33.333,202.778,744.444,116.667,N
208,0.115,0.780,-0.070,122.222,38.889,247.222,825.000,80.556,N
209,0.095,0.665,-0.205,125.000,38.889,180.556,819.444,5.556,N
210,0.085,0.740,-0.155,125.000,41.667,233.333,847.222,27.778,N
211,0.140,0.670,-0.080,125.000,38.889,227.778,805.556,41.667,N
212,-0.060,0.250,-0.235,111.111,36.111,188.889,866.667,61.111,N
213,0.055,0.780,-0.195,111.111,69.444,258.333,786.111,80.556,N
214,0.015,0.545,-0.230,113.889,33.333,136.111,783.333,2.778,N
215,-0.020,0.695,-0.085,122.222,36.111,111.111,858.333,75.000,N
216,0.240,0.905,0.050,138.889,38.889,213.889,802.778,55.556,N
217,0.090,0.800,0.085,127.778,38.889,255.556,922.222,119.444,N
218,0.095,0.690,0.010,111.111,33.333,211.111,861.111,61.111,N
219,-0.030,0.480,-0.105,122.222,30.556,150.000,855.556,5.556,N
220,-0.090,0.455,-0.075,113.889,33.333,188.889,830.556,25.000,N
221,0.020,0.825,-0.035,119.444,80.556,258.333,855.556,25.000,N
222,-0.055,0.470,-0.150,125.000,33.333,141.667,841.667,13.889,N
223,0.030,0.780,-0.065,125.000,80.556,252.778,880.556,38.889,N
224,0.175,0.690,-0.080,141.667,38.889,208.333,805.556,75.000,N
225,-0.050,0.540,-0.185,116.667,33.333,152.778,905.556,100.000,N
226,-0.085,0.620,-0.090,125.000,36.111,147.222,855.556,50.000,N
227,0.135,0.830,-0.030,130.556,33.333,213.889,744.444,111.111,N
228,-0.120,0.460,-0.280,116.667,30.556,44.444,894.444,150.000,N
229,0.090,0.785,-0.130,127.778,77.778,241.667,738.889,155.556,N
230,0.090,0.785,-0.120,130.556,66.667,241.667,850.000,111.111,N
231,0.085,0.670,-0.125,127.778,72.222,250.000,897.222,47.222,N
232,0.140,0.725,-0.090,127.778,77.778,88.889,833.333,63.889,N
233,-0.150,0.240,-0.405,122.222,36.111,47.222,822.222,11.111,N
234,-0.015,0.690,-0.160,116.667,69.444,275.000,822.222,0.000,N
235,0.080,0.660,-0.155,127.778,33.333,208.333,716.667,105.556,N
236,-0.215,0.335,-0.350,102.778,30.556,205.556,863.889,147.222,N
237,-0.070,0.425,-0.180,127.778,36.111,241.667,800.000,63.889,N
238,0.180,0.820,-0.030,136.111,66.667,275.000,830.556,30.556,N
239,0.015,0.535,-0.175,125.000,33.333,188.889,908.333,77.778,N
240,0.180,0.925,0.000,127.778,105.556,261.111,800.000,108.333,N
241,0.240,0.825,-0.035,116.667,36.111,88.889,733.333,66.667,N
242,-0.095,0.360,-0.170,122.222,33.333,127.778,861.111,127.778,N
243,0.105,0.625,-0.050,119.444,63.889,238.889,763.889,97.222,N
244,0.165,0.655,-0.115,130.556,83.333,91.667,791.667,27.778,N
245,-0.110,0.165,-0.240,116.667,77.778,258.333,850.000,58.333,N
246,0.120,0.495,-0.020,116.667,102.778,275.000,816.667,33.333,N
247,0.120,0.335,-0.120,100.000,63.889,241.667,802.778,13.889,N
248,-0.025,0.430,-0.040,119.444,72.222,244.444,872.222,69.444,N
249,0.180,0.610,0.030,119.444,100.000,238.889,727.778,144.444,N
250,0.040,0.365,-0.135,111.111,50.000,175.000,855.556,127.778,N
251,0.020,0.340,-0.120,116.667,100.000,222.222,777.778,77.778,N
252,0.210,0.640,-0.050,133.333,100.000,238.889,747.222,30.556,N
253,-0.010,0.680,-0.140,125.000,83.333,241.667,941.667,194.444,N
254,-0.115,0.475,-0.235,113.889,72.222,172.222,922.222,19.444,N
255,-0.240,0.175,-0.295,127.778,33.333,102.778,833.333,88.889,N
256,0.015,0.565,-0.210,122.222,36.111,177.778,794.444,38.889,N
257,0.095,0.685,-0.120,122.222,38.889,233.333,763.889,30.556,N
258,0.075,0.680,-0.085,102.778,102.778,222.222,797.222,33.333,N
259,0.135,0.690,-0.105,138.889,69.444,227.778,822.222,25.000,N
260,0.095,0.505,-0.180,125.000,36.111,130.556,850.000,27.778,N
261,0.070,0.620,-0.070,125.000,38.889,219.444,858.333,8.333,N
262,0.095,0.585,-0.155,133.333,38.889,216.667,750.000,108.333,N
263,0.105,0.640,-0.200,116.667,116.667,294.444,897.222,147.222,N
264,0.165,0.600,-0.100,127.778,36.111,227.778,763.889,133.333,N
265,0.075,0.585,-0.130,116.667,33.333,147.222,825.000,61.111,N
266,-0.030,0.535,-0.055,122.222,36.111,183.333,880.556,55.556,N
267,0.250,0.685,-0.010,130.556,41.667,236.111,830.556,50.000,N
268,0.035,0.590,-0.070,127.778,41.667,144.444,913.889,83.333,N
269,0.080,0.415,-0.115,130.556,36.111,172.222,766.667,147.222,N
270,-0.125,0.225,-0.275,122.222,27.778,41.667,908.333,141.667,N
271,0.125,0.755,-0.055,113.889,36.111,138.889,791.667,116.667,N
272,0.260,0.820,-0.030,127.778,36.111,138.889,766.667,25.000,N
273,-0.110,0.295,-0.185,125.000,30.556,233.333,866.667,100.000,N
274,0.135,0.840,-0.035,127.778,38.889,158.333,780.556,86.111,N
275,0.100,0.915,0.035,130.556,94.444,152.778,941.667,161.111,N
276,0.070,0.575,-0.350,116.667,55.556,63.889,850.000,91.667,N
277,-0.315,0.125,-0.375,122.222,33.333,172.222,825.000,25.000,N
278,0.005,0.790,-0.095,119.444,75.000,233.333,725.000,100.000,N
279,-0.015,0.665,-0.225,116.667,63.889,202.778,880.556,155.556,N
280,-0.250,0.260,-0.205,122.222,33.333,227.778,822.222,58.333,N
281,0.160,1.020,-0.045,136.111,77.778,255.556,863.889,41.667,N
282,0.045,0.570,-0.285,130.556,38.889,47.222,858.333,5.556,N
283,-0.225,0.490,-0.145,122.222,33.333,225.000,863.889,5.556,N
284,0.100,0.760,-0.090,116.667,63.889,205.556,725.000,138.889,N
285,-0.030,0.615,-0.160,116.667,105.556,272.222,877.778,152.778,N
286,0.065,0.580,-0.125,127.778,63.889,222.222,750.000,127.778,N
287,-0.085,0.245,-0.315,111.111,33.333,105.556,830.556,80.556,N
288,0.030,0.535,-0.105,127.778,66.667,225.000,836.111,5.556,N
289,0.120,0.520,-0.050,125.000,100.000,258.333,761.111,75.000,N
290,-0.205,0.080,-0.325,122.222,66.667,108.333,930.556,169.444,N
291,-0.055,0.420,-0.170,125.000,97.222,272.222,808.333,122.222,N
292,0.070,0.465,-0.060,116.667,97.222,238.889,769.444,38.889,N
293,-0.095,0.230,-0.155,119.444,63.889,194.444,872.222,102.778,N
294,0.165,0.570,-0.025,119.444,111.111,236.111,747.222,125.000,N
295,0.075,0.420,-0.115,127.778,97.222,255.556,797.222,50.000,N
296,-0.170,0.055,-0.265,122.222,36.111,180.556,905.556,108.333,N
297,0.010,0.425,-0.145,127.778,97.222,272.222,838.889,66.667,N
298,0.055,0.370,-0.145,136.111,113.889,272.222,741.667,97.222,N
299,-0.225,0.100,-0.285,116.667,94.444,158.333,891.667,150.000,N
300,-0.145,0.310,-0.155,111.111,97.222,238.889,836.111,55.556,N
301,0.040,0.290,-0.140,133.333,97.222,222.222,738.889,97.222,N
302,-0.270,-0.030,-0.350,122.222,63.889,152.778,852.778,113.889,N
303,-0.050,0.270,-0.135,133.333,113.889,286.111,844.444,8.333,N
304,-0.005,0.305,-0.170,127.778,97.222,255.556,847.222,2.778,N
305,-0.215,0.130,-0.270,113.889,77.778,172.222,869.444,22.222,N
306,-0.055,0.260,-0.105,119.444,111.111,238.889,783.333,86.111,N
307,0.105,0.405,-0.080,127.778,100.000,277.778,744.444,38.889,N
308,-0.100,0.270,-0.205,116.667,100.000,191.667,875.000,130.556,N
309,-0.100,0.080,-0.205,113.889,69.444,241.667,758.333,116.667,N
310,0.020,0.420,-0.155,119.444,100.000,288.889,822.222,63.889,N
311,-0.030,0.225,-0.215,125.000,91.667,125.000,838.889,16.667,N
312,-0.135,-0.005,-0.335,125.000,33.333,194.444,833.333,5.556,N
313,0.005,0.425,-0.100,119.444,113.889,255.556,794.444,38.889,N
314,0.075,0.315,-0.100,125.000,102.778,244.444,738.889,55.556,N
315,-0.145,0.135,-0.195,113.889,77.778,238.889,858.333,119.444,N
316,0.100,0.440,-0.045,119.444,66.667,230.556,738.889,119.444,N
317,0.035,0.355,-0.195,119.444,116.667,241.667,794.444,55.556,N
318,-0.140,0.075,-0.230,122.222,116.667,275.000,833.333,38.889,N
319,0.080,0.480,0.015,125.000,102.778,261.111,788.889,44.444,N
320,0.015,0.305,-0.175,108.333,97.222,205.556,863.889,75.000,N
321,0.035,0.410,-0.095,108.333,100.000,244.444,802.778,61.111,N
322,0.090,0.375,-0.105,122.222,97.222,255.556,766.667,36.111,N
323,0.085,0.390,-0.035,116.667,100.000,241.667,780.556,13.889,N
324,0.160,0.445,-0.060,133.333,83.333,244.444,744.444,36.111,N
325,0.025,0.340,-0.150,133.333,111.111,222.222,836.111,91.667,N
326,0.015,0.370,-0.080,113.889,100.000,258.333,830.556,5.556,N
327,0.145,0.465,0.010,138.889,100.000,258.333,758.333,72.222,N
328,-0.070,0.225,-0.210,116.667,116.667,175.000,875.000,116.667,N
329,-0.135,0.185,-0.185,125.000,97.222,236.111,813.889,61.111,N
330,0.060,0.405,-0.110,119.444,111.111,255.556,738.889,75.000,N
331,-0.075,0.335,-0.190,116.667,100.000,222.222,866.667,127.778,N
332,-0.065,0.095,-0.155,125.000,33.333,258.333,755.556,111.111,N
333,0.135,0.575,-0.010,119.444,116.667,258.333,844.444,88.889,N
334,0.110,0.510,-0.100,133.333,100.000,125.000,847.222,2.778,N
335,-0.040,0.240,-0.190,130.556,33.333,188.889,830.556,16.667,N
336,0.210,0.705,0.020,133.333,66.667,238.889,772.222,58.333,N
337,0.155,0.685,-0.095,111.111,36.111,188.889,811.111,38.889,N
338,-0.035,0.365,-0.155,119.444,33.333,200.000,805.556,5.556,N
339,0.195,0.835,-0.065,133.333,38.889,236.111,716.667,88.889,N
340,0.090,0.750,-0.200,133.333,61.111,238.889,916.667,200.000,N
341,-0.100,0.245,-0.275,116.667,38.889,216.667,863.889,52.778,N
342,0.135,0.855,-0.090,130.556,77.778,258.333,783.333,80.556,N
343,0.050,0.685,-0.165,127.778,66.667,255.556,813.889,30.556,N
344,0.025,0.560,-0.220,119.444,61.111,216.667,788.889,25.000,N
345,-0.010,0.525,-0.205,116.667,38.889,191.667,777.778,11.111,N
346,-0.075,0.295,-0.345,116.667,33.333,177.778,791.667,13.889,N
347,0.065,0.725,-0.125,130.556,38.889,241.667,825.000,33.333,N
348,0.120,0.725,-0.105,127.778,38.889,241.667,830.556,5.556,N
349,-0.170,0.370,-0.245,127.778,36.111,208.333,916.667,86.111,N
350,0.100,0.850,-0.125,130.556,38.889,238.889,738.889,177.778,N
351,0.105,0.790,-0.150,122.222,72.222,263.889,886.111,147.222,N
352,0.115,0.610,0.000,122.222,30.556,197.222,800.000,86.111,N
353,0.245,0.865,0.015,127.778,36.111,222.222,794.444,5.556,N
354,0.065,0.440,-0.050,125.000,33.333,152.778,877.778,83.333,N
355,0.185,0.770,0.000,133.333,80.556,272.222,844.444,33.333,N
356,0.230,0.680,-0.045,130.556,38.889,208.333,808.333,36.111,N
357,-0.050,0.425,-0.165,125.000,33.333,175.000,900.000,91.667,N
358,0.025,0.465,-0.110,116.667,36.111,163.889,838.889,61.111,N
359,0.135,0.710,-0.050,125.000,36.111,211.111,738.889,100.000,N
360,-0.095,0.420,-0.245,113.889,33.333,72.222,872.222,133.333,N
361,0.110,0.810,-0.080,133.333,44.444,222.222,825.000,47.222,N
362,0.155,0.705,-0.080,133.333,36.111,250.000,833.333,8.333,N
363,-0.210,0.225,-0.320,125.000,33.333,172.222,922.222,88.889,N
364,0.095,0.615,-0.105,111.111,33.333,238.889,750.000,172.222,N
365,0.135,0.810,-0.115,116.667,61.111,138.889,822.222,72.222,N
366,-0.125,0.285,-0.230,111.111,30.556,205.556,863.889,41.667,N
367,0.140,0.745,-0.075,119.444,38.889,219.444,738.889,125.000,N
368,0.005,0.480,-0.285,122.222,41.667,83.333,850.000,111.111,N
369,0.000,0.580,-0.165,125.000,36.111,244.444,838.889,11.111,N
370,0.145,0.665,-0.105,127.778,36.111,244.444,769.444,69.444,N
371,-0.185,0.275,-0.270,108.333,33.333,188.889,897.222,127.778,N
372,0.090,0.700,-0.125,125.000,38.889,241.667,802.778,94.444,N
373,0.070,0.580,-0.250,113.889,33.333,50.000,802.778,0.000,N
374,-0.125,0.400,-0.260,122.222,33.333,177.778,794.444,8.333,N
375,0.070,0.660,-0.175,113.889,36.111,222.222,705.556,88.889,N
376,-0.130,0.325,-0.330,122.222,33.333,227.778,875.000,169.444,N
377,0.075,0.790,-0.135,119.444,41.667,241.667,825.000,50.000,N
378,0.110,0.745,-0.130,130.556,38.889,236.111,819.444,5.556,N
379,-0.075,0.435,-0.335,125.000,36.111,225.000,825.000,5.556,N
380,0.075,0.795,-0.135,122.222,69.444,227.778,800.000,25.000,N
381,0.125,0.800,-0.150,116.667,33.333,188.889,775.000,25.000,N
382,-0.105,0.365,-0.325,122.222,33.333,205.556,791.667,16.667,N
383,0.085,0.885,-0.135,125.000,72.222,227.778,800.000,8.333,N
384,0.130,0.705,-0.135,125.000,36.111,241.667,780.556,19.444,N
385,-0.190,0.365,-0.320,122.222,36.111,144.444,930.556,150.000,N
386,0.095,0.700,-0.095,122.222,36.111,227.778,786.111,144.444,N
387,-0.025,0.690,-0.225,127.778,63.889,211.111,822.222,36.111,N
388,-0.045,0.505,-0.405,113.889,33.333,230.556,802.778,19.444,N
389,-0.085,0.605,-0.170,122.222,36.111,213.889,805.556,2.778,N
390,0.120,0.820,-0.065,111.111,63.889,225.000,722.222,83.333,N
391,0.020,0.560,-0.375,125.000,69.444,91.667,950.000,227.778,N
392,-0.165,0.590,-0.275,125.000,36.111,227.778,913.889,36.111,N
393,-0.160,0.520,-0.295,125.000,36.111,91.667,886.111,27.778,N
394,-0.265,0.335,-0.265,130.556,33.333,202.778,886.111,0.000,N
395,0.025,0.935,-0.030,116.667,77.778,261.111,869.444,16.667,N
396,0.070,0.760,-0.045,113.889,33.333,219.444,830.556,38.889,N
397,0.025,0.445,-0.200,119.444,33.333,47.222,805.556,25.000,N
398,0.135,0.780,-0.115,119.444,69.444,177.778,866.667,61.111,N
399,0.185,0.855,-0.025,138.889,38.889,266.667,786.111,80.556,N
400,-0.080,0.435,-0.225,125.000,33.333,169.444,955.556,169.444,N
401,0.055,0.930,-0.065,116.667,83.333,88.889,888.889,66.667,N
402,0.090,0.890,0.000,116.667,36.111,197.222,833.333,55.556,N
403,-0.050,0.550,-0.250,116.667,36.111,47.222,813.889,19.444,N
404,-0.180,0.520,-0.100,122.222,33.333,183.333,819.444,5.556,N
405,0.015,0.860,-0.065,125.000,66.667,225.000,916.667,97.222,N
406,-0.125,0.575,-0.255,125.000,33.333,102.778,880.556,36.111,N
407,-0.170,0.560,-0.060,116.667,36.111,197.222,852.778,27.778,N
408,0.180,0.805,-0.050,130.556,38.889,202.778,730.556,122.222,N
409,-0.050,0.605,-0.220,119.444,33.333,86.111,880.556,150.000,N
410,-0.195,0.425,-0.100,116.667,33.333,216.667,852.778,27.778,N
411,0.150,0.780,-0.035,122.222,33.333,225.000,725.000,127.778,N
412,0.015,0.620,-0.185,122.222,36.111,44.444,883.333,158.333,N
413,-0.015,0.625,-0.100,122.222,36.111,230.556,847.222,36.111,N
414,0.125,0.700,-0.105,127.778,36.111,241.667,822.222,25.000,N
415,-0.240,0.325,-0.400,125.000,36.111,47.222,880.556,58.333,N
416,0.000,0.775,-0.160,116.667,36.111,238.889,822.222,58.333,N
417,0.070,0.660,-0.175,116.667,30.556,219.444,733.333,88.889,N
418,-0.265,0.275,-0.245,113.889,30.556,225.000,858.333,125.000,N
419,0.060,0.765,-0.130,136.111,41.667,250.000,747.222,111.111,N
420,-0.065,0.730,-0.215,122.222,100.000,191.667,947.222,200.000,N
421,-0.145,0.310,-0.280,127.778,33.333,250.000,797.222,150.000,N
422,0.100,0.915,-0.060,119.444,97.222,255.556,900.000,102.778,N
423,0.150,0.745,-0.070,125.000,36.111,211.111,758.333,141.667,N
424,-0.030,0.520,-0.210,108.333,30.556,222.222,852.778,94.444,N
425,0.175,0.770,-0.045,125.000,38.889,213.889,750.000,102.778,N
426,0.150,0.845,-0.100,127.778,69.444,163.889,816.667,66.667,N
427,0.065,0.555,-0.155,127.778,33.333,208.333,850.000,33.333,N
428,0.175,0.760,-0.085,130.556,77.778,236.111,788.889,61.111,N
429,0.065,0.615,-0.175,119.444,33.333,44.444,838.889,50.000,N
430,-0.075,0.410,-0.175,127.778,38.889,238.889,791.667,47.222,N
431,0.125,0.730,-0.105,119.444,61.111,238.889,738.889,52.778,N
432,-0.030,0.630,-0.230,113.889,36.111,172.222,861.111,122.222,N
433,-0.045,0.455,-0.145,116.667,38.889,233.333,738.889,122.222,N
434,0.090,0.650,-0.095,125.000,36.111,241.667,822.222,83.333,N
435,0.050,0.480,-0.140,127.778,36.111,238.889,819.444,2.778,N
436,0.025,0.500,-0.110,125.000,36.111,213.889,811.111,8.333,N
437,-0.005,0.435,-0.270,130.556,36.111,175.000,805.556,5.556,N
438,0.120,0.715,-0.070,122.222,33.333,244.444,791.667,13.889,N
439,0.125,0.695,-0.120,127.778,36.111,202.778,727.778,63.889,N
440,-0.255,0.310,-0.260,116.667,33.333,222.222,861.111,133.333,N
441,0.045,0.695,-0.150,127.778,36.111,238.889,719.444,141.667,N
442,0.040,0.670,-0.105,130.556,38.889,241.667,850.000,130.556,N
443,0.005,0.490,-0.235,130.556,36.111,222.222,836.111,13.889,N
444,0.170,0.805,-0.030,125.000,36.111,227.778,825.000,11.111,N
445,0.130,0.650,-0.085,133.333,36.111,236.111,725.000,100.000,N
446,-0.150,0.345,-0.265,116.667,33.333,194.444,886.111,161.111,N
447,-0.050,0.510,-0.195,122.222,36.111,247.222,769.444,116.667,N
448,0.040,0.605,-0.115,116.667,30.556,250.000,711.111,58.333,N
449,-0.130,0.400,-0.180,122.222,77.778,241.667,919.444,208.333,N
450,0.035,0.535,-0.095,122.222,38.889,230.556,819.444,100.000,N
451,0.095,0.575,-0.050,127.778,63.889,238.889,758.333,61.111,N
452,-0.030,0.415,-0.140,127.778,38.889,222.222,883.333,125.000,N
453,-0.045,0.315,-0.095,116.667,36.111,219.444,769.444,113.889,N
454,0.140,0.555,-0.020,125.000,97.222,255.556,741.667,27.778,N
455,-0.025,0.395,-0.140,122.222,100.000,241.667,866.667,125.000,N
456,-0.150,0.130,-0.230,125.000,36.111,244.444,766.667,100.000,N
457,0.090,0.535,-0.045,127.778,94.444,272.222,833.333,66.667,N
458,0.080,0.390,-0.070,119.444,94.444,252.778,811.111,22.222,N
459,-0.080,0.135,-0.245,113.889,116.667,277.778,813.889,2.778,N
460,0.120,0.525,-0.010,122.222,100.000,258.333,819.444,5.556,N
461,0.070,0.390,-0.150,119.444,111.111,172.222,797.222,22.222,N
462,-0.195,0.065,-0.215,119.444,69.444,244.444,819.444,22.222,N
463,0.080,0.460,-0.050,125.000,102.778,261.111,719.444,100.000,N
464,0.065,0.405,-0.120,116.667,100.000,241.667,844.444,125.000,N
465,-0.145,0.005,-0.260,127.778,38.889,261.111,841.667,2.778,N
466,0.090,0.415,-0.040,133.333,100.000,255.556,791.667,50.000,N
467,-0.035,0.185,-0.225,113.889,63.889,122.222,827.778,36.111,N
468,0.075,0.450,-0.065,111.111,105.556,258.333,797.222,30.556,N
469,0.070,0.235,-0.185,116.667,97.222,222.222,722.222,75.000,N
470,-0.110,0.265,-0.075,108.333,97.222,258.333,875.000,152.778,N
471,0.065,0.335,-0.120,133.333,102.778,275.000,758.333,116.667,N
472,-0.050,0.235,-0.140,125.000,100.000,258.333,913.889,155.556,N
473,0.055,0.325,-0.075,119.444,100.000,255.556,772.222,141.667,N
474,0.070,0.340,-0.115,116.667,116.667,255.556,813.889,41.667,N
475,0.050,0.290,-0.135,119.444,83.333,222.222,800.000,13.889,N
476,0.015,0.230,-0.155,119.444,86.111,222.222,786.111,13.889,N
477,0.010,0.235,-0.060,116.667,100.000,258.333,794.444,8.333,N
478,0.150,0.445,-0.030,127.778,100.000,275.000,711.111,83.333,N
479,-0.085,0.215,-0.200,138.889,113.889,136.111,927.778,216.667,N
480,-0.090,0.165,-0.160,125.000,52.778,208.333,855.556,72.222,N
481,0.115,0.350,-0.030,125.000,102.778,258.333,783.333,72.222,N
482,0.025,0.335,-0.070,125.000,102.778,191.667,880.556,97.222,N
483,-0.040,0.125,-0.105,119.444,30.556,191.667,813.889,66.667,N
484,0.175,0.445,0.035,122.222,100.000,275.000,736.111,77.778,N
485,0.020,0.425,-0.010,105.556,97.222,258.333,830.556,94.444,N
486,-0.020,0.200,-0.180,119.444,83.333,88.889,827.778,2.778,N
487,-0.005,0.355,-0.045,119.444,97.222,272.222,886.111,58.333,N
488,0.160,0.455,-0.005,130.556,97.222,258.333,777.778,108.333,N
489,0.020,0.385,-0.070,116.667,86.111,161.111,883.333,105.556,N
490,-0.040,0.175,-0.165,111.111,36.111,211.111,797.222,86.111,N
491,0.175,0.550,0.020,113.889,97.222,275.000,786.111,11.111,N
492,0.170,0.490,-0.010,125.000,97.222,241.667,763.889,22.222,N
493,-0.160,0.115,-0.270,130.556,33.333,188.889,886.111,122.222,N
494,0.105,0.525,-0.040,127.778,100.000,275.000,813.889,72.222,N
495,0.190,0.535,-0.045,127.778,86.111,244.444,830.556,16.667,N
496,-0.065,0.330,-0.210,116.667,36.111,72.222,869.444,38.889,N
497,0.170,0.555,0.025,122.222,100.000,258.333,775.000,94.444,N
498,0.200,0.670,0.020,119.444,97.222,238.889,813.889,38.889,N
499,-0.085,0.255,-0.220,111.111,33.333,138.889,841.667,27.778,N
500,0.090,0.585,-0.110,130.556,66.667,211.111,752.778,88.889,N
501,0.075,0.585,-0.105,127.778,36.111,241.667,830.556,77.778,N
502,-0.120,0.405,-0.220,119.444,36.111,150.000,905.556,75.000,N
503,0.085,0.745,-0.130,119.444,94.444,272.222,836.111,69.444,N
504,0.140,0.720,-0.040,125.000,38.889,241.667,758.333,77.778,N
505,-0.060,0.515,-0.195,125.000,36.111,144.444,863.889,105.556,N
506,0.115,0.845,-0.080,125.000,36.111,230.556,783.333,80.556,N
507,0.150,0.695,-0.075,111.111,33.333,202.778,719.444,63.889,N
508,-0.070,0.645,-0.105,127.778,36.111,172.222,916.667,197.222,N
509,0.145,0.790,-0.045,133.333,41.667,236.111,786.111,130.556,N
510,0.150,0.780,-0.095,122.222,36.111,138.889,913.889,127.778,N
511,0.140,0.600,-0.080,122.222,33.333,213.889,772.222,141.667,N
512,0.075,0.720,-0.160,125.000,38.889,236.111,813.889,41.667,N
513,-0.005,0.515,-0.130,119.444,36.111,183.333,800.000,13.889,N
514,0.210,0.790,-0.050,122.222,36.111,197.222,738.889,61.111,N
515,-0.090,0.475,-0.300,125.000,36.111,44.444,919.444,180.556,N
516,-0.255,0.470,-0.255,122.222,33.333,119.444,905.556,13.889,N
517,-0.005,0.975,0.135,127.778,72.222,291.667,863.889,41.667,N
518,0.125,0.865,0.005,125.000,36.111,125.000,844.444,19.444,N
519,0.020,0.630,-0.070,130.556,33.333,136.111,858.333,13.889,N
520,-0.055,0.360,-0.195,119.444,30.556,83.333,847.222,11.111,N
521,-0.030,0.815,-0.145,119.444,94.444,169.444,858.333,11.111,N
522,-0.105,0.565,-0.255,122.222,36.111,191.667,852.778,5.556,N
523,-0.025,0.365,-0.210,144.444,33.333,147.222,855.556,2.778,N
524,0.175,0.900,0.025,133.333,80.556,272.222,888.889,33.333,N
525,0.300,0.855,0.075,130.556,38.889,222.222,761.111,127.778,N
526,0.080,0.785,-0.025,125.000,33.333,141.667,930.556,169.444,N
527,-0.010,0.460,-0.115,125.000,33.333,111.111,897.222,33.333,N
528,0.130,1.005,0.045,116.667,36.111,177.778,830.556,66.667,N
529,0.155,0.950,0.040,122.222,66.667,175.000,883.333,52.778,N
530,0.035,0.530,-0.080,125.000,33.333,111.111,902.778,19.444,N
531,0.115,0.985,0.020,127.778,83.333,177.778,888.889,13.889,N
532,0.080,0.820,-0.025,122.222,36.111,130.556,841.667,47.222,N
533,0.040,0.480,-0.165,125.000,36.111,222.222,808.333,33.333,N
534,0.105,0.715,-0.060,116.667,38.889,213.889,819.444,11.111,N
535,0.195,0.685,-0.105,122.222,33.333,213.889,736.111,83.333,N
536,-0.080,0.470,-0.105,127.778,33.333,216.667,891.667,155.556,N
537,0.070,0.950,0.030,127.778,80.556,191.667,930.556,38.889,N
538,-0.010,0.510,-0.155,122.222,33.333,122.222,863.889,66.667,N
539,0.000,0.780,-0.040,125.000,75.000,277.778,841.667,22.222,N
540,0.135,0.715,-0.100,133.333,36.111,225.000,758.333,83.333,N
541,-0.110,0.475,-0.195,113.889,33.333,233.333,875.000,116.667,N
542,0.015,0.655,-0.140,116.667,33.333,202.778,730.556,144.444,N
543,0.030,0.665,-0.170,119.444,80.556,244.444,869.444,138.889,N
544,0.000,0.470,-0.270,133.333,36.111,50.000,800.000,69.444,N
545,0.115,0.855,-0.140,122.222,63.889,258.333,936.111,136.111,N
546,0.075,0.630,-0.220,125.000,30.556,219.444,761.111,175.000,N
547,-0.020,0.440,-0.210,119.444,33.333,225.000,875.000,113.889,N
548,0.140,0.880,-0.035,119.444,38.889,219.444,761.111,113.889,N
549,0.115,0.710,-0.170,113.889,36.111,44.444,797.222,36.111,N
550,0.080,0.895,-0.080,122.222,61.111,255.556,788.889,8.333,N
551,0.210,0.855,0.010,133.333,38.889,219.444,780.556,8.333,N
552,0.000,0.540,-0.160,125.000,30.556,69.444,927.778,147.222,N
553,0.055,0.680,-0.160,122.222,33.333,222.222,786.111,141.667,N
554,0.020,0.490,-0.190,122.222,36.111,244.444,772.222,13.889,N
555,0.110,0.860,-0.020,116.667,38.889,222.222,877.778,105.556,N
556,0.065,0.630,-0.120,113.889,36.111,236.111,800.000,77.778,N
557,-0.080,0.525,-0.135,105.556,27.778,155.556,830.556,30.556,N
558,0.035,0.395,-0.205,122.222,33.333,236.111,777.778,52.778,N
559,0.090,0.775,-0.135,127.778,38.889,244.444,855.556,77.778,N
560,0.070,0.585,-0.180,130.556,36.111,188.889,800.000,55.556,N
561,-0.100,0.615,-0.225,119.444,36.111,166.667,891.667,91.667,N
562,-0.070,0.505,-0.230,125.000,36.111,211.111,755.556,136.111,N
563,-0.130,0.355,-0.260,119.444,30.556,211.111,911.111,155.556,N
564,0.000,0.735,-0.145,111.111,33.333,225.000,722.222,188.889,N
565,-0.090,0.460,-0.180,122.222,33.333,230.556,891.667,169.444,N
566,0.080,0.875,-0.065,130.556,63.889,255.556,794.444,97.222,N
567,-0.030,0.750,-0.135,127.778,36.111,211.111,997.222,202.778,N
568,-0.130,0.535,-0.140,127.778,33.333,241.667,883.333,113.889,N
569,0.035,0.530,-0.220,125.000,36.111,211.111,780.556,102.778,N
570,0.005,0.710,-0.160,125.000,36.111,222.222,822.222,41.667,N
571,0.090,0.630,-0.170,122.222,33.333,191.667,727.778,94.444,N
572,-0.120,0.355,-0.260,122.222,33.333,194.444,913.889,186.111,N
573,0.015,0.785,-0.235,130.556,80.556,272.222,797.222,116.667,N
574,0.020,0.705,-0.200,130.556,72.222,219.444,927.778,130.556,N
575,-0.005,0.425,-0.230,113.889,33.333,188.889,816.667,111.111,N
576,0.200,0.910,0.025,127.778,69.444,275.000,813.889,2.778,N
577,0.290,0.900,0.025,130.556,36.111,219.444,805.556,8.333,N
578,0.015,0.455,-0.095,119.444,30.556,141.667,855.556,50.000,N
579,0.195,0.895,0.025,130.556,38.889,225.000,738.889,116.667,N
580,0.125,0.570,-0.175,125.000,33.333,141.667,861.111,122.222,N
581,0.220,0.870,-0.020,125.000,38.889,247.222,866.667,5.556,N
582,0.230,0.795,-0.035,130.556,36.111,238.889,758.333,108.333,N
583,-0.110,0.445,-0.100,119.444,36.111,233.333,902.778,144.444,N
584,0.125,0.750,-0.100,119.444,36.111,216.667,750.000,152.778,N
585,0.035,0.450,-0.225,116.667,33.333,47.222,850.000,100.000,N
586,-0.010,0.575,-0.155,113.889,38.889,216.667,769.444,80.556,N
587,0.130,0.700,-0.130,130.556,36.111,238.889,758.333,11.111,N
588,-0.160,0.430,-0.275,119.444,33.333,113.889,938.889,180.556,N
589,-0.005,0.530,-0.185,133.333,36.111,216.667,813.889,125.000,N
590,0.065,0.740,-0.150,122.222,38.889,233.333,752.778,61.111,N
591,-0.115,0.340,-0.370,122.222,36.111,141.667,825.000,72.222,N
592,-0.005,0.645,-0.210,113.889,36.111,205.556,786.111,38.889,N
593,0.060,0.680,-0.150,122.222,36.111,213.889,708.333,77.778,N
594,-0.185,0.415,-0.265,130.556,36.111,122.222,875.000,166.667,N
595,0.075,0.665,-0.115,125.000,33.333,225.000,797.222,77.778,N
596,0.075,0.730,-0.150,133.333,38.889,166.667,825.000,27.778,N
597,-0.065,0.365,-0.250,116.667,27.778,227.778,800.000,25.000,N
598,0.135,0.735,-0.060,122.222,36.111,211.111,752.778,47.222,N
599,0.125,0.720,-0.045,119.444,36.111,233.333,813.889,61.111,N
600,0.100,0.565,-0.080,119.444,36.111,211.111,719.444,94.444,N
601,0.035,0.520,-0.180,105.556,27.778,208.333,783.333,63.889,N
602,0.020,0.425,-0.170,130.556,36.111,236.111,791.667,8.333,N
603,0.120,0.680,-0.070,136.111,38.889,247.222,825.000,33.333,N
604,0.035,0.540,-0.200,125.000,38.889,222.222,841.667,16.667,N
605,-0.105,0.290,-0.240,122.222,30.556,244.444,808.333,33.333,N
606,0.165,0.745,-0.005,133.333,33.333,238.889,758.333,50.000,N
607,0.125,0.620,-0.005,113.889,33.333,208.333,861.111,102.778,N
608,0.080,0.425,-0.055,122.222,33.333,213.889,744.444,116.667,N
609,0.240,0.740,0.045,125.000,66.667,263.889,736.111,8.333,N
610,0.095,0.670,-0.080,130.556,36.111,100.000,944.444,208.333,N
611,-0.045,0.295,-0.280,133.333,36.111,222.222,797.222,147.222,N
612,0.070,0.605,-0.145,116.667,30.556,200.000,836.111,38.889,N
613,-0.015,0.415,-0.225,119.444,36.111,216.667,736.111,100.000,N
614,-0.315,0.065,-0.360,125.000,30.556,191.667,888.889,152.778,N
615,-0.035,0.440,-0.180,119.444,36.111,211.111,730.556,158.333,N
616,-0.010,0.370,-0.170,116.667,36.111,230.556,780.556,50.000,N
617,-0.145,0.115,-0.380,127.778,38.889,225.000,861.111,80.556,N
618,-0.040,0.405,-0.220,127.778,100.000,272.222,830.556,30.556,N
619,-0.035,0.285,-0.205,130.556,97.222,255.556,752.778,77.778,N
620,-0.250,0.060,-0.315,130.556,36.111,238.889,880.556,127.778,N
621,-0.010,0.370,-0.125,125.000,100.000,275.000,780.556,100.000,N
622,0.045,0.465,-0.105,113.889,100.000,241.667,786.111,5.556,N
623,-0.145,0.075,-0.335,113.889,63.889,169.444,786.111,0.000,N
624,0.005,0.470,-0.060,116.667,100.000,258.333,783.333,2.778,N
625,0.135,0.420,-0.030,133.333,66.667,244.444,766.667,16.667,N
626,-0.115,0.160,-0.160,127.778,63.889,222.222,913.889,147.222,N
627,0.120,0.480,0.010,111.111,100.000,255.556,766.667,147.222,N
628,0.115,0.435,-0.060,127.778,66.667,191.667,833.333,66.667,N
629,-0.010,0.160,-0.175,119.444,75.000,269.444,788.889,44.444,N
630,0.125,0.505,-0.025,127.778,105.556,247.222,725.000,63.889,N
631,0.125,0.465,0.015,122.222,100.000,275.000,797.222,72.222,N
632,0.110,0.395,-0.090,130.556,69.444,225.000,838.889,41.667,N
633,0.025,0.310,-0.135,119.444,41.667,50.000,855.556,16.667,N
634,0.050,0.385,-0.090,119.444,97.222,241.667,766.667,88.889,N
635,-0.020,0.190,-0.205,111.111,94.444,255.556,875.000,108.333,N
636,0.020,0.340,-0.140,125.000,102.778,261.111,763.889,111.111,N
637,0.010,0.270,-0.180,122.222,80.556,236.111,780.556,16.667,N
638,-0.020,0.270,-0.165,119.444,86.111,227.778,813.889,33.333,N
639,0.035,0.370,-0.175,127.778,97.222,258.333,758.333,55.556,N
640,-0.130,0.185,-0.255,122.222,100.000,269.444,908.333,150.000,N
641,-0.090,0.140,-0.170,119.444,36.111,230.556,786.111,122.222,N
642,-0.010,0.220,-0.150,116.667,61.111,236.111,791.667,5.556,N
643,-0.130,0.080,-0.340,138.889,61.111,230.556,825.000,33.333,N
644,-0.080,0.320,-0.225,119.444,97.222,269.444,813.889,11.111,N
645,-0.020,0.295,-0.155,119.444,69.444,227.778,716.667,97.222,N
646,-0.320,-0.080,-0.415,122.222,33.333,175.000,872.222,155.556,N
647,-0.255,0.285,-0.240,116.667,77.778,266.667,911.111,38.889,N
648,-0.155,0.260,-0.250,138.889,66.667,258.333,869.444,41.667,N
649,-0.125,0.355,0.005,116.667,50.000,291.667,850.000,19.444,N
650,0.005,0.765,-0.060,191.667,91.667,158.333,452.778,397.222,A
651,0.080,0.685,0.090,116.667,80.556,255.556,1061.111,608.333,N
652,-0.085,0.115,-0.180,122.222,30.556,88.889,669.444,391.667,N
653,-0.215,0.340,-0.230,130.556,80.556,272.222,1161.111,491.667,N
654,-0.125,0.165,-0.095,119.444,30.556,283.333,1000.000,161.111,N
655,-0.130,0.880,0.005,63.889,116.667,405.556,480.556,519.444,A
656,0.175,0.765,0.220,116.667,100.000,288.889,1102.778,622.222,N
657,0.000,0.390,-0.120,194.444,72.222,80.556,472.222,630.556,A
658,-0.030,0.580,0.130,122.222,69.444,291.667,966.667,494.444,N
659,0.055,0.690,-0.025,188.889,80.556,86.111,463.889,502.778,A
660,-0.160,0.350,-0.215,125.000,69.444,272.222,1022.222,558.333,N
661,-0.320,0.220,-0.210,197.222,36.111,194.444,469.444,552.778,A
662,-0.015,0.675,-0.040,122.222,66.667,294.444,991.667,522.222,N
663,-0.110,0.480,-0.060,194.444,72.222,80.556,472.222,519.444,N
664,-0.145,0.520,-0.070,58.333,111.111,238.889,558.333,86.111,N
665,-0.260,0.265,-0.215,197.222,36.111,47.222,477.778,80.556,N
666,-0.465,0.130,-0.335,197.222,77.778,261.111,519.444,41.667,N
667,-0.360,0.255,-0.105,33.333,36.111,205.556,516.667,2.778,N
668,-0.150,0.505,-0.005,66.667,61.111,183.333,533.333,16.667,N
669,-0.140,0.490,-0.135,194.444,69.444,177.778,425.000,108.333,N
670,-0.325,0.355,-0.265,161.111,52.778,241.667,1052.778,627.778,j
671,-0.210,0.530,-0.150,47.222,66.667,261.111,1102.778,50.000,j
672,-0.135,0.860,0.045,36.111,66.667,158.333,1122.222,19.444,j
673,-0.315,0.455,-0.260,38.889,72.222,261.111,1072.222,50.000,j
674,-0.025,1.025,-0.030,33.333,80.556,208.333,1038.889,33.333,j
675,-0.210,0.830,-0.275,197.222,113.889,191.667,1033.333,5.556,j
676,-0.080,0.300,-0.145,119.444,36.111,213.889,972.222,61.111,N
677,0.250,1.015,0.145,130.556,75.000,272.222,861.111,111.111,N
678,0.185,0.530,-0.145,127.778,36.111,47.222,827.778,33.333,N
679,0.115,0.840,-0.020,119.444,63.889,225.000,861.111,33.333,N
680,0.275,0.825,0.145,125.000,36.111,230.556,738.889,122.222,N
681,0.285,0.745,0.070,122.222,33.333,308.333,833.333,94.444,N
682,0.255,0.595,0.085,130.556,33.333,302.778,738.889,94.444,N
683,0.085,0.740,0.020,177.778,33.333,177.778,461.111,277.778,A
684,0.115,0.925,-0.015,130.556,116.667,308.333,1191.667,730.556,N
685,-0.175,0.160,-0.045,122.222,30.556,191.667,1019.444,172.222,N
686,0.055,0.785,-0.125,113.889,83.333,291.667,975.000,44.444,N
687,0.025,0.680,-0.100,111.111,36.111,225.000,880.556,94.444,N
688,0.095,0.735,0.015,113.889,33.333,169.444,869.444,11.111,N
689,0.315,0.695,0.070,130.556,30.556,213.889,719.444,150.000,N
690,0.250,0.750,0.125,116.667,30.556,44.444,786.111,66.667,N
691,0.345,0.975,0.035,130.556,36.111,241.667,727.778,58.333,N
692,0.065,0.715,-0.020,133.333,41.667,286.111,1369.444,641.667,N
693,-0.250,0.325,-0.140,72.222,36.111,183.333,538.889,830.556,A
694,-0.190,0.385,-0.155,119.444,33.333,252.778,1061.111,522.222,N
695,-0.255,0.550,-0.205,188.889,75.000,369.444,455.556,605.556,A
696,0.010,0.925,0.130,113.889,97.222,291.667,925.000,469.444,N
697,0.050,0.915,0.050,194.444,55.556,75.000,463.889,461.111,N
698,0.080,0.925,0.145,27.778,66.667,186.111,536.111,72.222,N
699,-0.075,0.775,0.035,108.333,75.000,147.222,461.111,75.000,N
700,0.010,0.820,0.025,41.667,36.111,188.889,836.111,375.000,N
701,-0.075,0.890,0.855,52.778,80.556,363.889,475.000,361.111,N
702,-0.095,0.855,-0.040,141.667,58.333,366.667,338.889,136.111,N
703,-0.015,0.815,0.165,72.222,58.333,216.667,477.778,138.889,N
704,-0.005,0.620,0.160,108.333,36.111,177.778,522.222,44.444,N
705,0.015,0.715,0.075,33.333,33.333,177.778,641.667,119.444,N
706,-0.080,0.485,0.025,77.778,30.556,188.889,575.000,66.667,N
707,0.025,0.830,0.165,66.667,61.111,186.111,488.889,86.111,N
708,0.070,0.910,0.240,83.333,33.333,186.111,502.778,13.889,N
709,0.095,0.580,0.250,91.667,30.556,155.556,508.333,5.556,N
710,0.045,0.950,0.175,180.556,61.111,213.889,522.222,13.889,N
711,0.090,0.595,0.060,188.889,33.333,188.889,461.111,61.111,N
712,-0.080,0.600,-0.030,150.000,36.111,122.222,552.778,91.667,N
713,-0.055,0.960,0.100,138.889,66.667,211.111,541.667,11.111,N
714,-0.010,0.850,0.170,130.556,38.889,175.000,508.333,33.333,N
715,0.075,0.875,0.180,63.889,116.667,275.000,919.444,411.111,N
716,0.050,0.740,0.185,88.889,52.778,194.444,541.667,377.778,N
717,0.035,0.815,0.160,47.222,77.778,202.778,441.667,100.000,N
718,0.055,0.750,0.190,55.556,33.333,194.444,458.333,16.667,N
719,-0.025,0.610,-0.035,83.333,33.333,205.556,491.667,33.333,N
720,-0.075,0.630,0.040,130.556,30.556,219.444,947.222,455.556,N
721,-0.140,0.715,-0.055,80.556,69.444,272.222,1100.000,152.778,N
722,-0.280,0.490,-0.110,30.556,36.111,233.333,1155.556,55.556,N
723,-0.185,0.620,-0.210,30.556,36.111,172.222,1230.556,75.000,N
724,0.120,0.855,-0.095,122.222,69.444,277.778,1258.333,27.778,N
725,-0.055,0.420,-0.230,113.889,27.778,152.778,1005.556,252.778,N
726,0.045,0.820,-0.005,119.444,38.889,205.556,902.778,102.778,N
727,0.085,0.875,-0.010,130.556,75.000,272.222,1036.111,133.333,N
728,0.055,0.715,0.035,127.778,33.333,236.111,844.444,191.667,N
729,0.020,0.540,-0.075,122.222,30.556,80.556,822.222,22.222,N
730,0.030,0.760,-0.035,116.667,36.111,183.333,830.556,8.333,N
731,0.020,0.745,-0.030,122.222,38.889,175.000,827.778,2.778,N
732,-0.130,0.190,-0.240,105.556,27.778,236.111,777.778,50.000,N
733,0.005,0.715,0.010,122.222,36.111,191.667,852.778,75.000,N
734,0.165,0.645,-0.120,136.111,36.111,255.556,788.889,63.889,N
735,-0.105,0.245,-0.205,122.222,30.556,163.889,905.556,116.667,N
736,0.170,0.820,0.040,133.333,75.000,269.444,780.556,125.000,N
737,0.230,0.855,0.045,116.667,33.333,80.556,869.444,88.889,N
738,-0.015,0.145,-0.355,125.000,30.556,355.556,758.333,111.111,N
739,0.160,0.840,0.015,116.667,77.778,258.333,772.222,13.889,N
740,0.290,1.005,0.200,125.000,36.111,141.667,858.333,86.111,N
741,0.170,0.510,-0.065,125.000,33.333,50.000,855.556,2.778,N
742,0.325,1.005,0.120,133.333,38.889,222.222,866.667,11.111,N
743,0.420,0.920,0.125,125.000,36.111,225.000,777.778,88.889,N
744,0.010,0.460,-0.130,119.444,30.556,88.889,866.667,88.889,N
745,0.005,0.640,-0.075,116.667,36.111,233.333,822.222,44.444,N
746,0.175,0.720,-0.005,116.667,41.667,205.556,733.333,88.889,N
747,0.070,0.640,-0.035,125.000,33.333,94.444,858.333,125.000,N
748,0.020,0.390,-0.115,116.667,30.556,166.667,875.000,16.667,N
749,0.270,0.835,-0.005,130.556,77.778,208.333,766.667,108.333,N
750,0.095,0.830,0.070,119.444,33.333,247.222,902.778,136.111,N
751,0.020,0.925,-0.180,197.222,77.778,97.222,438.889,463.889,A
752,-0.065,0.815,-0.075,116.667,36.111,202.778,1075.000,636.111,N
753,0.010,0.705,0.020,130.556,33.333,208.333,658.333,416.667,A
754,0.040,0.620,-0.090,125.000,36.111,75.000,1036.111,377.778,N
755,-0.110,0.430,-0.010,122.222,33.333,238.889,750.000,286.111,N
756,0.205,0.930,0.235,127.778,77.778,305.556,950.000,200.000,N
757,0.130,1.000,-0.030,188.889,80.556,102.778,477.778,472.222,A
758,0.010,0.725,-0.005,122.222,66.667,258.333,1069.444,591.667,N
759,0.025,0.795,-0.080,119.444,66.667,291.667,1111.111,41.667,N
760,-0.175,0.375,-0.180,197.222,30.556,38.889,458.333,652.778,A
761,0.125,1.110,0.135,55.556,69.444,311.111,1047.222,588.889,j
762,0.065,0.830,0.105,197.222,36.111,211.111,497.222,550.000,A
763,0.000,0.630,-0.120,130.556,36.111,277.778,1144.444,647.222,N
764,-0.300,0.475,-0.115,41.667,36.111,211.111,525.000,619.444,A
765,0.075,0.885,0.165,119.444,80.556,302.778,958.333,433.333,N
766,0.075,0.805,0.015,197.222,80.556,122.222,463.889,494.444,A
767,-0.075,0.445,0.080,113.889,72.222,288.889,1047.222,583.333,N
768,0.010,0.700,0.090,47.222,75.000,91.667,483.333,563.889,A
769,0.115,0.880,0.150,30.556,69.444,175.000,513.889,30.556,N
770,0.065,0.700,0.065,133.333,41.667,91.667,591.667,77.778,N
771,-0.075,0.560,-0.080,197.222,75.000,116.667,450.000,141.667,N
772,-0.160,0.550,-0.020,50.000,63.889,188.889,466.667,16.667,N
773,-0.020,0.800,0.125,72.222,61.111,200.000,436.111,30.556,N
774,0.090,0.880,0.150,191.667,80.556,186.111,386.111,50.000,N
775,-0.015,0.715,0.060,197.222,116.667,255.556,594.444,208.333,N
776,-0.045,0.325,-0.020,141.667,33.333,127.778,555.556,38.889,N
777,-0.130,0.655,-0.200,147.222,75.000,144.444,411.111,144.444,N
778,-0.185,0.575,0.005,33.333,80.556,158.333,463.889,52.778,N
779,0.015,0.715,0.150,41.667,69.444,191.667,477.778,13.889,N
780,0.035,0.560,0.065,102.778,33.333,144.444,558.333,80.556,N
781,-0.135,0.315,-0.115,197.222,33.333,138.889,508.333,50.000,N
782,0.355,-0.375,-0.005,25.000,11.111,138.889,463.889,44.444,N
783,-0.085,0.720,0.035,180.556,77.778,291.667,538.889,75.000,N
784,-0.135,0.660,-0.030,152.778,77.778,86.111,522.222,16.667,N
785,-0.190,0.245,-0.195,186.111,44.444,138.889,700.000,177.778,N
786,-0.190,0.340,-0.050,38.889,33.333,191.667,652.778,47.222,N
787,-0.135,0.230,-0.040,102.778,30.556,191.667,580.556,72.222,N
788,-0.145,0.360,-0.105,27.778,36.111,205.556,841.667,261.111,N
789,-0.295,-0.030,-0.130,91.667,30.556,188.889,500.000,341.667,N
790,-0.070,0.280,0.055,25.000,36.111,191.667,530.556,30.556,N
791,-0.070,0.330,0.040,180.556,36.111,175.000,538.889,8.333,N
792,-0.145,0.275,-0.170,55.556,69.444,77.778,791.667,252.778,N
793,-0.020,0.465,-0.005,122.222,100.000,275.000,1133.333,341.667,j
794,-0.070,0.395,-0.090,61.111,100.000,144.444,1086.111,47.222,j
795,-0.040,0.415,0.055,63.889,97.222,188.889,1152.778,66.667,j
796,-0.005,0.590,0.000,100.000,86.111,94.444,1152.778,0.000,j
797,-0.245,0.240,-0.120,30.556,63.889,125.000,1063.889,88.889,j
798,0.010,0.620,-0.020,61.111,116.667,230.556,1080.556,16.667,j
799,-0.140,0.285,-0.215,61.111,102.778,166.667,1083.333,2.778,j
800,0.080,0.740,-0.020,63.889,113.889,161.111,1019.444,63.889,j
801,0.135,0.360,-0.125,122.222,116.667,138.889,869.444,150.000,N
802,-0.070,0.095,-0.090,116.667,33.333,352.778,797.222,72.222,N
803,0.215,0.505,0.005,119.444,102.778,108.333,758.333,38.889,N
804,0.090,0.385,-0.145,122.222,102.778,111.111,747.222,11.111,N
805,-0.140,-0.030,-0.325,127.778,36.111,355.556,825.000,77.778,N
806,0.135,0.460,-0.030,130.556,100.000,241.667,833.333,8.333,N
807,0.125,0.320,-0.115,122.222,72.222,77.778,791.667,41.667,N
808,-0.085,0.090,-0.320,113.889,33.333,72.222,791.667,0.000,N
809,0.090,0.415,-0.100,116.667,69.444,77.778,772.222,19.444,N
810,0.080,0.295,-0.130,127.778,102.778,258.333,708.333,63.889,N
811,-0.105,0.090,-0.220,111.111,36.111,138.889,850.000,141.667,N
812,0.135,0.440,0.000,130.556,80.556,241.667,766.667,83.333,N
813,0.220,0.460,-0.005,130.556,72.222,158.333,816.667,50.000,N
814,0.050,0.125,-0.190,127.778,33.333,222.222,830.556,13.889,N
815,0.185,0.515,0.000,122.222,111.111,252.778,761.111,69.444,N
816,0.180,0.500,-0.010,119.444,86.111,261.111,800.000,38.889,N
817,0.040,0.175,-0.200,122.222,33.333,363.889,816.667,16.667,N
818,0.190,0.550,-0.020,119.444,80.556,241.667,763.889,52.778,N
819,0.180,0.455,-0.035,113.889,58.333,208.333,750.000,13.889,N
820,0.070,0.240,-0.185,130.556,44.444,69.444,830.556,80.556,N
821,0.195,0.540,0.005,133.333,66.667,75.000,836.111,5.556,N
822,0.200,0.470,-0.035,125.000,69.444,241.667,802.778,33.333,N
823,0.015,0.280,-0.135,119.444,36.111,97.222,863.889,61.111,N
824,0.185,0.595,0.005,116.667,97.222,252.778,794.444,69.444,N
825,0.175,0.590,-0.045,116.667,77.778,88.889,769.444,25.000,N
826,0.010,0.205,-0.200,113.889,30.556,355.556,777.778,8.333,N
827,0.190,0.600,-0.010,130.556,102.778,275.000,733.333,44.444,N
828,0.140,0.460,-0.145,127.778,36.111,47.222,863.889,130.556,N
829,-0.065,0.245,-0.215,119.444,36.111,216.667,841.667,22.222,N
830,0.140,0.625,-0.075,116.667,72.222,238.889,747.222,94.444,N
831,0.000,0.390,-0.200,125.000,33.333,75.000,861.111,113.889,N
832,0.080,0.615,-0.085,119.444,80.556,225.000,775.000,86.111,N
833,0.110,0.520,-0.160,125.000,36.111,222.222,705.556,69.444,N
834,-0.155,0.330,-0.070,111.111,33.333,269.444,838.889,133.333,N
835,-0.135,1.035,-0.140,172.222,83.333,372.222,458.333,380.556,A
836,0.045,0.880,0.095,122.222,80.556,308.333,1083.333,625.000,N
837,-0.020,0.575,-0.130,197.222,72.222,111.111,488.889,594.444,A
838,0.030,0.835,0.145,113.889,80.556,308.333,908.333,419.444,N
839,0.060,0.855,-0.030,186.111,80.556,205.556,466.667,441.667,A
840,0.020,0.720,-0.110,116.667,75.000,88.889,1013.889,547.222,N
841,-0.125,0.400,-0.080,130.556,33.333,197.222,633.333,380.556,A
842,-0.020,0.795,0.095,125.000,72.222,294.444,958.333,325.000,N
843,0.030,0.685,-0.115,188.889,75.000,150.000,463.889,494.444,A
844,-0.025,0.590,0.075,119.444,80.556,302.778,997.222,533.333,N
845,-0.015,0.710,-0.075,197.222,69.444,94.444,477.778,519.444,A
846,-0.015,0.750,-0.105,113.889,102.778,261.111,1030.556,552.778,N
847,-0.120,0.225,-0.160,125.000,33.333,172.222,700.000,330.556,A
848,0.030,0.755,0.100,113.889,80.556,288.889,1038.889,338.889,N
849,0.005,0.580,-0.085,197.222,77.778,119.444,450.000,588.889,A
850,-0.075,0.450,-0.130,125.000,36.111,261.111,958.333,508.333,N
851,-0.225,0.565,-0.160,47.222,83.333,94.444,488.889,469.444,A
852,-0.050,0.760,-0.125,127.778,116.667,291.667,1083.333,594.444,N
853,-0.175,0.220,-0.110,125.000,33.333,250.000,813.889,269.444,N
854,-0.110,0.745,-0.215,191.667,75.000,100.000,425.000,388.889,A
855,-0.085,0.650,-0.155,125.000,100.000,258.333,1088.889,663.889,N
856,-0.110,0.555,-0.105,119.444,36.111,261.111,850.000,238.889,N
857,-0.185,0.630,-0.245,197.222,75.000,347.222,452.778,397.222,A
858,-0.175,0.295,-0.205,122.222,66.667,277.778,1025.000,572.222,N
859,-0.060,0.455,0.000,136.111,77.778,305.556,700.000,325.000,N
860,-0.065,0.325,-0.125,194.444,36.111,208.333,458.333,241.667,A
861,-0.105,0.535,-0.040,125.000,80.556,283.333,1141.667,683.333,N
862,-0.185,0.705,-0.170,38.889,75.000,252.778,486.111,655.556,A
863,-0.050,0.750,-0.065,63.889,97.222,255.556,538.889,52.778,N
864,-0.150,0.730,0.070,197.222,113.889,244.444,666.667,127.778,N
865,-0.025,0.500,0.060,80.556,33.333,155.556,483.333,183.333,N
866,-0.030,0.620,0.045,41.667,69.444,147.222,511.111,27.778,N
867,-0.055,0.725,0.185,97.222,36.111,225.000,472.222,38.889,N
868,-0.025,0.990,0.215,58.333,105.556,241.667,447.222,25.000,N
869,0.175,0.720,0.210,47.222,36.111,191.667,880.556,433.333,N
870,0.040,1.125,-0.060,52.778,86.111,211.111,458.333,422.222,N
871,-0.025,0.710,0.120,47.222,80.556,175.000,563.889,105.556,N
872,0.035,0.820,0.055,52.778,77.778,163.889,491.667,72.222,N
873,-0.070,0.660,0.075,38.889,69.444,180.556,516.667,25.000,N
874,-0.005,0.855,0.090,38.889,33.333,175.000,502.778,13.889,N
875,-0.030,0.760,0.075,130.556,38.889,186.111,472.222,30.556,N
876,-0.070,0.680,0.015,119.444,72.222,130.556,438.889,33.333,N
877,-0.175,0.510,-0.115,50.000,75.000,163.889,433.333,5.556,N
878,-0.250,0.410,0.045,38.889,33.333,344.444,486.111,52.778,N
879,0.045,0.740,0.095,186.111,33.333,213.889,511.111,25.000,N
880,-0.010,0.730,0.020,113.889,75.000,288.889,1080.556,569.444,N
881,-0.185,0.550,-0.175,44.444,33.333,102.778,1066.667,13.889,j
882,-0.130,0.735,-0.140,191.667,69.444,108.333,1258.333,191.667,j
883,-0.115,0.500,-0.295,105.556,33.333,44.444,1280.556,22.222,N
884,-0.150,1.150,-0.185,61.111,97.222,205.556,1208.333,72.222,j
885,0.020,0.735,-0.225,122.222,36.111,77.778,1161.111,47.222,N
886,-0.080,0.380,-0.125,116.667,27.778,266.667,941.667,219.444,N
887,-0.130,1.115,-0.090,38.889,77.778,355.556,472.222,469.444,A
888,0.020,0.940,0.005,88.889,66.667,305.556,1133.333,661.111,N
889,-0.060,0.390,-0.160,197.222,30.556,41.667,469.444,663.889,A
890,-0.010,0.880,0.105,111.111,69.444,272.222,1102.778,633.333,N
891,-0.085,0.980,-0.080,33.333,63.889,241.667,466.667,636.111,A
892,-0.125,1.070,0.100,63.889,100.000,308.333,486.111,19.444,A
893,-0.205,0.605,-0.105,47.222,38.889,175.000,533.333,47.222,A
894,0.045,0.735,0.125,141.667,38.889,258.333,1127.778,594.444,N
895,-0.105,1.150,-0.125,194.444,72.222,83.333,483.333,644.444,A
896,0.070,0.760,-0.040,119.444,63.889,291.667,1211.111,727.778,N
897,-0.160,0.710,-0.125,197.222,80.556,358.333,477.778,733.333,A
898,-0.030,0.970,0.035,36.111,66.667,127.778,688.889,211.111,N
899,-0.115,1.185,-0.050,152.778,61.111,86.111,419.444,269.444,N
900,-0.090,0.645,0.015,44.444,30.556,222.222,536.111,116.667,N
901,-0.150,0.510,-0.050,177.778,36.111,258.333,600.000,63.889,N
902,-0.015,0.895,-0.020,33.333,41.667,172.222,772.222,172.222,N
903,-0.025,0.690,0.000,47.222,36.111,219.444,700.000,72.222,N
904,-0.155,0.390,-0.140,194.444,30.556,116.667,630.556,69.444,N
905,-0.265,0.535,-0.135,113.889,58.333,72.222,536.111,94.444,N
906,-0.205,0.840,-0.095,138.889,77.778,88.889,472.222,63.889,N
907,-0.095,0.685,-0.060,130.556,36.111,122.222,591.667,119.444,N
908,-0.165,0.510,-0.135,83.333,30.556,194.444,638.889,47.222,N
909,-0.275,0.535,-0.220,33.333,36.111,205.556,447.222,191.667,N
910,-0.185,0.745,-0.105,116.667,61.111,119.444,550.000,102.778,N
911,-0.205,0.695,-0.105,38.889,55.556,163.889,455.556,94.444,N
912,-0.220,0.790,-0.115,102.778,77.778,188.889,463.889,8.333,N
913,-0.205,0.520,-0.165,75.000,38.889,194.444,538.889,75.000,N
914,-0.295,0.355,-0.185,72.222,36.111,94.444,513.889,25.000,N
915,-0.250,0.635,-0.065,66.667,38.889,202.778,494.444,19.444,N
916,-0.160,0.365,-0.050,72.222,33.333,211.111,538.889,44.444,N
917,-0.180,0.525,-0.035,188.889,33.333,194.444,466.667,72.222,N
918,-0.160,0.675,-0.085,86.111,58.333,183.333,480.556,13.889,N
919,-0.215,0.365,-0.105,102.778,33.333,180.556,500.000,19.444,N
920,-0.250,0.655,-0.055,44.444,80.556,188.889,427.778,72.222,N
921,-0.080,0.605,0.050,47.222,36.111,186.111,500.000,72.222,N
922,-0.100,0.690,-0.015,147.222,33.333,155.556,513.889,13.889,N
923,-0.200,0.655,-0.090,172.222,66.667,172.222,494.444,19.444,N
924,-0.175,0.530,-0.120,130.556,63.889,222.222,858.333,363.889,N
925,-0.110,0.525,0.020,94.444,30.556,186.111,547.222,311.111,N
926,0.010,0.655,0.005,100.000,36.111,186.111,719.444,172.222,N
927,-0.010,0.685,-0.005,61.111,33.333,188.889,627.778,91.667,N
928,-0.220,0.425,-0.120,44.444,33.333,44.444,550.000,77.778,N
929,-0.005,0.910,-0.080,113.889,36.111,225.000,1052.778,502.778,N
930,-0.075,0.690,-0.210,94.444,33.333,44.444,1130.556,77.778,N
931,-0.080,0.945,-0.040,36.111,80.556,252.778,1258.333,127.778,j
932,-0.115,0.900,-0.020,41.667,69.444,238.889,1241.667,16.667,j
933,-0.260,0.485,-0.220,30.556,36.111,52.778,488.889,752.778,A
934,0.100,0.840,-0.140,130.556,97.222,275.000,1113.889,625.000,N
935,-0.185,0.950,-0.260,63.889,111.111,155.556,1150.000,36.111,j
936,-0.115,0.895,-0.045,66.667,100.000,141.667,1069.444,80.556,j
937,-0.055,0.905,-0.145,52.778,80.556,108.333,1069.444,0.000,j
938,-0.220,0.815,-0.220,33.333,80.556,91.667,480.556,588.889,A
939,-0.105,1.130,-0.120,83.333,116.667,191.667,1050.000,569.444,j
940,-0.210,0.825,-0.285,63.889,116.667,180.556,1013.889,36.111,j
941,0.085,0.870,-0.090,108.333,83.333,308.333,977.778,36.111,N
942,-0.090,0.895,-0.115,180.556,66.667,358.333,438.889,538.889,A
943,-0.045,0.870,0.020,30.556,52.778,75.000,880.556,441.667,j
944,-0.090,0.455,-0.180,158.333,36.111,133.333,552.778,327.778,A
945,-0.320,0.820,-0.185,38.889,80.556,372.222,408.333,144.444,A
946,0.100,0.745,0.050,111.111,97.222,322.222,988.889,580.556,N
947,-0.010,0.695,-0.010,197.222,61.111,72.222,475.000,513.889,A
948,-0.190,0.575,-0.075,102.778,116.667,258.333,397.222,77.778,N
949,-0.075,-0.360,0.280,147.222,11.111,27.778,347.222,50.000,N
950,-0.145,0.605,-0.015,38.889,69.444,175.000,394.444,47.222,N
951,0.000,0.705,0.060,30.556,63.889,122.222,502.778,108.333,N
952,-0.015,0.575,0.095,152.778,41.667,172.222,508.333,5.556,N
953,0.060,0.895,-0.015,161.111,94.444,125.000,375.000,133.333,N
954,-0.065,0.455,0.020,41.667,72.222,127.778,411.111,36.111,N
955,-0.090,0.345,0.005,47.222,80.556,161.111,438.889,27.778,N
956,-0.070,0.465,0.145,38.889,33.333,177.778,444.444,5.556,N
957,0.085,0.700,0.215,47.222,80.556,191.667,491.667,47.222,N
958,0.085,0.520,0.165,38.889,69.444,213.889,538.889,47.222,N
959,-0.030,0.410,0.210,97.222,36.111,113.889,472.222,66.667,N
960,-0.085,0.345,0.030,58.333,100.000,277.778,1280.556,808.333,j
961,-0.180,0.275,-0.130,52.778,69.444,175.000,933.333,347.222,j
962,-0.175,0.200,-0.200,41.667,66.667,91.667,1086.111,152.778,j
963,-0.095,0.465,-0.135,66.667,83.333,138.889,1152.778,66.667,j
964,-0.190,0.445,-0.245,163.889,113.889,113.889,1216.667,63.889,j
965,-0.125,0.405,-0.095,175.000,94.444,238.889,1197.222,19.444,j
966,-0.270,0.210,-0.190,55.556,102.778,394.444,527.778,669.444,A
967,0.000,0.445,-0.100,113.889,102.778,291.667,805.556,277.778,N
968,-0.105,0.280,-0.140,194.444,69.444,77.778,444.444,361.111,A
969,-0.140,0.325,-0.180,75.000,83.333,158.333,1036.111,591.667,j
970,0.035,0.500,-0.145,55.556,83.333,91.667,1044.444,8.333,j
971,-0.210,0.165,-0.180,188.889,61.111,83.333,494.444,550.000,A
972,-0.170,0.440,-0.155,66.667,116.667,227.778,1133.333,638.889,N
973,-0.155,0.380,-0.095,58.333,102.778,108.333,494.444,638.889,N
974,-0.120,0.180,-0.050,197.222,30.556,72.222,402.778,91.667,N
975,-0.160,0.345,0.010,138.889,83.333,375.000,408.333,5.556,N
976,-0.185,0.460,-0.185,180.556,100.000,105.556,361.111,47.222,N
977,-0.235,0.280,0.220,63.889,83.333,402.778,383.333,22.222,N
978,0.015,0.510,0.020,38.889,80.556,166.667,358.333,25.000,N
979,-0.120,0.465,0.085,58.333,100.000,244.444,391.667,33.333,N
980,-0.055,0.585,-0.045,191.667,86.111,205.556,408.333,16.667,N
981,-0.150,0.475,0.005,80.556,100.000,158.333,1022.222,613.889,j
982,-0.040,0.620,0.005,55.556,100.000,258.333,1091.667,69.444,j
983,-0.090,0.510,-0.145,197.222,83.333,194.444,1061.111,30.556,j
984,0.005,0.870,-0.070,69.444,116.667,205.556,1019.444,41.667,j
985,0.185,0.665,-0.065,113.889,102.778,127.778,908.333,111.111,N
986,0.095,0.370,-0.110,119.444,36.111,111.111,808.333,100.000,N
987,0.195,0.665,-0.010,108.333,100.000,175.000,769.444,38.889,N
988,0.155,0.530,-0.080,122.222,36.111,47.222,783.333,13.889,N
989,0.030,0.345,-0.180,119.444,36.111,180.556,830.556,47.222,N
990,0.120,0.615,-0.095,119.444,97.222,255.556,830.556,0.000,N
991,0.080,0.415,-0.195,108.333,33.333,41.667,808.333,22.222,N
992,-0.085,0.340,-0.215,122.222,38.889,366.667,825.000,16.667,N
993,0.120,0.690,-0.110,127.778,72.222,258.333,761.111,63.889,N
994,0.105,0.540,-0.190,125.000,33.333,47.222,780.556,19.444,N
995,-0.120,0.235,-0.315,119.444,33.333,363.889,791.667,11.111,N
996,0.095,0.730,-0.115,130.556,41.667,241.667,813.889,22.222,N
997,0.175,0.665,-0.115,130.556,38.889,169.444,866.667,52.778,N
998,0.010,0.475,-0.070,122.222,33.333,363.889,855.556,11.111,N
999,0.340,0.995,0.075,130.556,38.889,138.889,744.444,111.111,N
1000,0.370,1.060,0.180,122.222,38.889,252.778,883.333,138.889,N
1001,0.085,1.085,-0.040,197.222,77.778,83.333,438.889,444.444,A
1002,0.250,1.100,0.195,86.111,66.667,286.111,1113.889,675.000,N
1003,0.090,1.130,0.080,191.667,77.778,100.000,472.222,641.667,A
1004,0.070,0.970,0.090,36.111,36.111,180.556,797.222,325.000,j
1005,0.040,1.235,0.120,36.111,80.556,372.222,1297.222,500.000,j
1006,0.120,1.000,0.180,177.778,30.556,72.222,525.000,772.222,A
1007,-0.055,1.100,0.055,88.889,97.222,252.778,1344.444,819.444,j
1008,0.070,0.765,0.040,144.444,30.556,105.556,683.333,661.111,A
1009,-0.090,0.805,-0.050,30.556,36.111,180.556,822.222,138.889,j
1010,-0.045,0.420,-0.085,125.000,36.111,250.000,1263.889,441.667,N
1011,-0.180,0.710,-0.080,38.889,36.111,230.556,513.889,750.000,A
1012,-0.105,0.665,-0.005,152.778,36.111,97.222,697.222,183.333,N
1013,-0.135,1.065,-0.105,58.333,58.333,113.889,438.889,258.333,N
1014,-0.180,0.500,-0.165,38.889,33.333,183.333,577.778,138.889,N
1015,-0.175,0.760,-0.065,163.889,72.222,258.333,641.667,63.889,N
1016,-0.145,0.455,-0.095,152.778,33.333,83.333,605.556,36.111,N
1017,-0.290,0.430,-0.110,188.889,36.111,50.000,486.111,119.444,N
1018,-0.295,0.370,-0.145,72.222,30.556,41.667,483.333,2.778,N
1019,-0.225,0.495,-0.130,91.667,33.333,175.000,586.111,102.778,N
1020,-0.235,0.575,-0.130,69.444,38.889,216.667,527.778,58.333,N
1021,-0.145,0.475,-0.010,186.111,38.889,111.111,502.778,25.000,N
1022,-0.300,0.620,-0.180,30.556,63.889,238.889,1077.778,575.000,j
1023,-0.145,0.810,-0.105,63.889,75.000,188.889,1033.333,44.444,j
1024,-0.150,0.535,-0.190,61.111,33.333,88.889,994.444,38.889,j
1025,-0.080,0.955,-0.005,80.556,36.111,188.889,969.444,25.000,j
1026,-0.015,0.955,0.000,38.889,66.667,177.778,927.778,41.667,j
1027,-0.050,0.955,-0.065,44.444,80.556,175.000,972.222,44.444,j
1028,0.180,0.765,-0.085,105.556,36.111,161.111,977.778,5.556,N
1029,0.060,0.640,-0.180,122.222,30.556,141.667,819.444,158.333,N
1030,0.165,0.875,-0.005,113.889,36.111,188.889,802.778,16.667,N
1031,0.205,0.830,-0.035,119.444,36.111,213.889,788.889,13.889,N
1032,0.050,0.540,-0.175,116.667,30.556,358.333,816.667,27.778,N
1033,0.175,0.910,-0.005,116.667,75.000,275.000,744.444,72.222,N
1034,0.190,0.740,0.035,133.333,33.333,244.444,825.000,80.556,N
1035,0.200,0.680,-0.035,125.000,36.111,186.111,911.111,86.111,N
1036,0.360,0.985,0.125,133.333,36.111,222.222,808.333,102.778,N
1037,0.230,0.720,-0.040,122.222,33.333,94.444,816.667,8.333,N
1038,0.080,0.475,-0.130,119.444,30.556,141.667,813.889,2.778,N
1039,0.095,0.690,-0.170,127.778,36.111,186.111,811.111,2.778,N
1040,0.090,0.635,-0.130,119.444,33.333,213.889,783.333,27.778,N
1041,0.070,0.575,-0.140,125.000,33.333,180.556,900.000,116.667,N
1042,0.025,0.545,-0.120,130.556,36.111,219.444,880.556,19.444,N
1043,0.190,0.780,-0.070,138.889,38.889,169.444,805.556,75.000,N
1044,0.015,0.705,0.020,122.222,75.000,288.889,913.889,108.333,N
1045,-0.135,0.930,-0.250,191.667,80.556,97.222,455.556,458.333,A
1046,-0.185,0.725,0.080,169.444,36.111,180.556,680.556,225.000,N
1047,0.055,1.440,0.020,158.333,55.556,102.778,419.444,261.111,N
1048,0.020,1.105,0.165,119.444,38.889,233.333,463.889,44.444,N
1049,0.060,0.850,0.160,36.111,33.333,144.444,500.000,36.111,N
1050,-0.060,0.630,-0.070,105.556,75.000,166.667,450.000,50.000,N
1051,-0.190,0.480,-0.120,72.222,75.000,150.000,463.889,13.889,N
1052,-0.035,0.835,0.095,47.222,80.556,169.444,450.000,13.889,N
1053,0.050,0.865,0.200,100.000,41.667,219.444,550.000,100.000,N
1054,-0.020,0.925,0.030,194.444,69.444,275.000,1225.000,675.000,j
1055,-0.065,0.720,0.045,41.667,30.556,175.000,1013.889,211.111,j
1056,0.110,1.240,0.190,150.000,100.000,241.667,1075.000,61.111,j
1057,-0.155,0.765,-0.090,38.889,33.333,61.111,1022.222,52.778,j
1058,0.115,1.300,0.110,44.444,83.333,180.556,1088.889,66.667,j
1059,0.120,0.690,-0.065,108.333,33.333,47.222,1072.222,16.667,N
1060,-0.125,0.990,-0.090,197.222,66.667,372.222,463.889,608.333,A
1061,-0.040,1.220,0.005,52.778,83.333,208.333,955.556,491.667,j
1062,-0.100,0.585,-0.090,158.333,33.333,102.778,525.000,430.556,A
1063,-0.030,0.460,-0.110,147.222,33.333,205.556,700.000,175.000,N
1064,-0.060,1.140,-0.015,61.111,100.000,177.778,952.778,252.778,j
1065,-0.100,0.755,-0.030,47.222,63.889,241.667,983.333,30.556,j
1066,-0.125,0.890,-0.215,36.111,77.778,136.111,986.111,2.778,j
1067,-0.225,0.395,-0.170,166.667,36.111,366.667,550.000,436.111,A
1068,-0.170,1.240,-0.100,36.111,80.556,355.556,383.333,166.667,N
1069,-0.045,0.730,0.120,97.222,36.111,50.000,563.889,180.556,N
1070,0.005,0.735,0.115,47.222,69.444,175.000,463.889,100.000,N
1071,0.055,0.460,-0.105,161.111,30.556,202.778,483.333,19.444,N
1072,-0.075,0.780,0.025,38.889,33.333,197.222,991.667,508.333,j
1073,0.050,0.865,0.115,72.222,63.889,208.333,980.556,11.111,j
1074,0.180,0.780,0.075,122.222,36.111,222.222,941.667,38.889,N
1075,0.045,0.655,0.000,122.222,33.333,122.222,869.444,72.222,N
1076,-0.095,0.385,-0.220,116.667,30.556,41.667,850.000,19.444,N
1077,0.160,0.830,0.040,122.222,36.111,227.778,758.333,91.667,N
1078,0.260,0.800,0.115,122.222,33.333,227.778,783.333,25.000,N
1079,0.150,0.520,-0.170,122.222,33.333,44.444,766.667,16.667,N
1080,0.245,0.825,0.055,111.111,30.556,241.667,738.889,27.778,N
1081,0.200,0.700,0.060,130.556,75.000,272.222,772.222,33.333,N
1082,0.045,0.340,-0.270,136.111,33.333,122.222,861.111,88.889,N
1083,0.215,0.775,0.085,122.222,36.111,227.778,827.778,33.333,N
1084,0.290,0.770,0.135,133.333,36.111,219.444,727.778,100.000,N
1085,0.070,0.460,-0.270,116.667,33.333,44.444,869.444,141.667,N
1086,-0.020,0.650,-0.045,122.222,33.333,205.556,769.444,100.000,N
1087,0.220,0.650,0.035,122.222,66.667,222.222,719.444,50.000,N
1088,0.015,0.430,-0.265,125.000,36.111,255.556,900.000,180.556,N
1089,-0.370,0.520,-0.525,191.667,75.000,366.667,466.667,433.333,A
1090,0.080,0.955,0.045,80.556,66.667,325.000,1155.556,688.889,j
1091,0.045,0.675,0.045,194.444,33.333,75.000,497.222,658.333,A
1092,-0.135,0.690,-0.125,36.111,80.556,102.778,425.000,72.222,A
1093,-0.175,0.440,0.110,27.778,33.333,241.667,905.556,480.556,N
1094,0.010,1.090,-0.040,197.222,86.111,108.333,450.000,455.556,A
1095,0.060,0.750,0.095,150.000,66.667,125.000,608.333,158.333,A
1096,-0.290,0.310,-0.290,122.222,72.222,361.111,572.222,36.111,J
1097,0.110,0.710,0.200,138.889,66.667,275.000,866.667,294.444,N
1098,0.090,0.815,-0.060,197.222,83.333,375.000,463.889,402.778,A
1099,-0.020,0.740,0.110,63.889,97.222,238.889,644.444,180.556,N
1100,-0.030,0.600,0.055,83.333,77.778,125.000,502.778,141.667,N
1101,-0.040,0.545,-0.025,111.111,80.556,125.000,447.222,55.556,N
1102,-0.255,0.045,-0.285,144.444,36.111,88.889,480.556,33.333,N
1103,-0.335,0.265,-0.110,36.111,61.111,183.333,441.667,38.889,N
1104,-0.075,0.615,0.015,36.111,63.889,186.111,469.444,27.778,N
1105,-0.165,0.400,-0.130,72.222,97.222,238.889,1052.778,583.333,j
1106,-0.185,0.245,-0.120,75.000,66.667,155.556,902.778,150.000,j
1107,-0.250,0.325,-0.185,55.556,66.667,225.000,1177.778,275.000,j
1108,0.020,0.515,0.110,127.778,97.222,291.667,1272.222,94.444,N
1109,-0.085,0.680,-0.010,197.222,102.778,375.000,477.778,794.444,A
1110,-0.255,0.400,-0.125,50.000,83.333,275.000,1266.667,788.889,j
1111,-0.065,0.410,0.110,127.778,69.444,355.556,572.222,694.444,A
1112,0.005,0.510,0.155,58.333,66.667,225.000,547.222,25.000,A
1113,0.105,0.375,-0.040,183.333,41.667,50.000,1158.333,611.111,N
1114,-0.220,0.350,-0.055,72.222,108.333,252.778,505.556,652.778,A
1115,0.125,0.685,0.285,52.778,83.333,177.778,697.222,191.667,N
1116,0.150,0.845,0.210,88.889,83.333,141.667,450.000,247.222,N
1117,0.110,0.515,0.200,58.333,77.778,169.444,619.444,169.444,N
1118,0.110,0.390,0.135,47.222,27.778,86.111,441.667,177.778,N
1119,-0.095,0.345,-0.115,141.667,100.000,125.000,461.111,19.444,N
1120,-0.235,0.255,-0.355,197.222,113.889,113.889,405.556,55.556,N
1121,-0.395,0.185,-0.135,188.889,66.667,172.222,394.444,11.111,N
1122,-0.135,0.420,0.110,41.667,69.444,144.444,402.778,8.333,N
1123,-0.075,0.355,0.080,194.444,75.000,280.556,733.333,330.556,N
1124,0.080,0.880,-0.015,177.778,102.778,108.333,400.000,333.333,N
1125,0.030,0.540,0.045,88.889,100.000,225.000,611.111,211.111,N
1126,-0.070,0.090,-0.185,175.000,52.778,72.222,588.889,22.222,N
1127,-0.255,0.195,-0.065,52.778,66.667,258.333,680.556,91.667,N
1128,-0.205,0.380,-0.105,58.333,100.000,241.667,1236.111,555.556,j
1129,-0.510,-0.050,-0.270,61.111,69.444,388.889,1136.111,100.000,j
1130,-0.015,0.620,0.020,58.333,97.222,105.556,1030.556,105.556,j
1131,-0.370,0.100,-0.305,161.111,100.000,258.333,980.556,50.000,j
1132,-0.205,0.480,0.015,61.111,113.889,405.556,475.000,505.556,A
1133,0.170,0.705,0.050,83.333,83.333,91.667,1030.556,555.556,j
1134,-0.305,0.275,-0.115,152.778,113.889,405.556,1002.778,27.778,j
1135,0.180,0.610,0.030,97.222,83.333,108.333,913.889,88.889,N
1136,-0.325,0.170,-0.245,33.333,80.556,369.444,933.333,19.444,j
1137,0.140,0.615,0.060,100.000,88.889,125.000,888.889,44.444,N
1138,0.095,0.400,-0.060,113.889,97.222,138.889,761.111,127.778,N
1139,-0.180,-0.060,-0.275,122.222,36.111,361.111,855.556,94.444,N
1140,0.045,0.430,-0.090,122.222,83.333,255.556,786.111,69.444,N
1141,0.135,0.445,-0.015,133.333,100.000,125.000,808.333,22.222,N
1142,0.120,0.190,-0.130,127.778,33.333,52.778,794.444,13.889,N
1143,-0.125,0.055,-0.110,113.889,36.111,361.111,800.000,5.556,N
1144,0.240,0.585,0.110,122.222,69.444,211.111,744.444,55.556,N
1145,0.265,0.480,0.045,122.222,36.111,80.556,766.667,22.222,N
1146,0.075,0.260,-0.085,122.222,36.111,363.889,763.889,2.778,N
1147,0.300,0.660,0.175,122.222,77.778,219.444,766.667,2.778,N
1148,0.215,0.455,-0.030,130.556,33.333,83.333,877.778,111.111,N
1149,-0.030,0.565,-0.095,194.444,72.222,363.889,461.111,416.667,A
1150,0.230,0.890,0.260,119.444,100.000,288.889,1091.667,630.556,N
1151,0.050,0.800,0.035,44.444,80.556,83.333,491.667,600.000,A
1152,-0.190,0.490,-0.245,122.222,69.444,127.778,661.111,169.444,j
1153,0.095,0.780,-0.030,116.667,80.556,191.667,877.778,216.667,N
1154,-0.105,0.800,-0.145,197.222,72.222,77.778,427.778,450.000,A
1155,-0.145,0.380,-0.250,188.889,36.111,244.444,663.889,236.111,N
1156,-0.215,0.830,-0.120,36.111,75.000,186.111,450.000,213.889,N
1157,-0.120,0.855,-0.035,41.667,72.222,163.889,400.000,50.000,N
1158,-0.120,0.825,-0.025,38.889,63.889,186.111,394.444,5.556,N
1159,-0.415,0.285,-0.230,194.444,36.111,191.667,725.000,330.556,N
1160,-0.125,0.875,-0.025,147.222,83.333,272.222,988.889,263.889,N
1161,-0.425,0.205,-0.250,27.778,30.556,202.778,1011.111,22.222,N
1162,-0.030,0.695,-0.090,111.111,72.222,244.444,850.000,161.111,N
1163,0.050,0.530,-0.150,125.000,33.333,125.000,880.556,30.556,N
1164,-0.245,0.110,-0.285,125.000,30.556,191.667,900.000,19.444,N
1165,0.025,0.905,0.005,125.000,94.444,288.889,950.000,50.000,N
1166,0.290,1.105,0.275,113.889,36.111,102.778,855.556,94.444,N
1167,-0.030,0.500,-0.205,130.556,33.333,44.444,872.222,16.667,N
1168,0.295,1.265,0.295,111.111,75.000,175.000,844.444,27.778,N
1169,0.375,1.220,0.250,119.444,36.111,83.333,819.444,25.000,N
1170,-0.170,0.345,-0.370,130.556,33.333,47.222,830.556,11.111,N
1171,0.210,0.930,0.090,136.111,38.889,300.000,772.222,58.333,N
1172,0.090,0.800,0.010,194.444,33.333,105.556,475.000,297.222,A
1173,-0.150,0.540,-0.350,113.889,61.111,75.000,1136.111,661.111,N
1174,0.085,0.950,0.085,108.333,66.667,275.000,1041.667,94.444,N
1175,-0.010,0.965,-0.050,186.111,77.778,102.778,447.222,594.444,A
1176,-0.205,0.515,-0.185,169.444,33.333,47.222,683.333,236.111,N
1177,-0.355,0.315,-0.185,175.000,58.333,352.778,452.778,230.556,N
1178,-0.185,0.850,0.075,36.111,61.111,347.222,380.556,72.222,N
1179,0.075,1.030,0.185,194.444,66.667,255.556,519.444,138.889,N
1180,0.170,1.350,0.015,186.111,80.556,86.111,413.889,105.556,N
1181,0.060,0.830,-0.010,77.778,33.333,172.222,591.667,177.778,N
1182,-0.105,0.690,0.050,52.778,36.111,166.667,491.667,100.000,N
1183,-0.220,0.515,-0.160,38.889,80.556,163.889,486.111,5.556,N
1184,-0.260,0.485,-0.015,36.111,75.000,166.667,463.889,22.222,N
1185,-0.115,0.810,0.055,175.000,72.222,258.333,619.444,155.556,N
1186,0.055,1.045,-0.335,188.889,83.333,88.889,394.444,225.000,N
1187,-0.560,0.275,-0.285,166.667,77.778,272.222,750.000,355.556,N
1188,-0.190,0.710,-0.035,52.778,75.000,200.000,536.111,213.889,N
1189,-0.100,0.755,-0.015,147.222,55.556,75.000,575.000,38.889,N
1190,-0.030,0.865,0.030,33.333,38.889,188.889,766.667,191.667,N
1191,-0.095,0.825,0.030,55.556,80.556,202.778,505.556,261.111,N
1192,-0.100,0.900,0.020,50.000,63.889,161.111,480.556,25.000,N
1193,-0.075,0.715,-0.035,197.222,36.111,47.222,863.889,383.333,N
1194,-0.600,-0.095,-0.520,52.778,30.556,194.444,588.889,275.000,N
1195,-0.420,0.785,-0.225,166.667,58.333,122.222,600.000,11.111,N
1196,-0.185,0.575,0.010,75.000,36.111,191.667,558.333,41.667,N
1197,0.095,1.040,0.055,105.556,36.111,161.111,1011.111,452.778,j
1198,-0.295,0.510,-0.165,72.222,36.111,150.000,1013.889,2.778,j
1199,0.050,1.060,0.100,88.889,88.889,158.333,1052.778,38.889,j
1200,-0.155,0.830,-0.305,188.889,75.000,83.333,1247.222,194.444,j
1201,0.030,1.205,0.250,38.889,75.000,127.778,1119.444,127.778,j
1202,0.025,1.000,-0.110,152.778,75.000,83.333,1061.111,58.333,j
1203,-0.420,0.240,-0.395,105.556,30.556,358.333,1030.556,30.556,N
1204,0.135,1.000,0.075,100.000,66.667,161.111,1005.556,25.000,N
1205,-0.075,0.430,-0.415,125.000,33.333,61.111,833.333,172.222,N
1206,0.090,0.985,-0.035,116.667,75.000,188.889,844.444,11.111,N
1207,0.250,0.975,0.010,111.111,38.889,133.333,780.556,63.889,N
1208,0.260,0.880,0.000,125.000,69.444,155.556,913.889,133.333,N
1209,0.015,0.520,-0.215,125.000,33.333,136.111,769.444,144.444,N
1210,-0.205,0.210,-0.510,119.444,30.556,111.111,786.111,16.667,N
1211,0.015,0.535,-0.385,130.556,36.111,147.222,783.333,2.778,N
1212,-0.060,0.645,-0.180,127.778,36.111,138.889,813.889,30.556,N
1213,0.160,0.895,-0.020,127.778,36.111,122.222,800.000,13.889,N
1214,-0.015,0.410,-0.370,122.222,33.333,363.889,1219.444,419.444,N
1215,0.180,1.100,0.025,61.111,72.222,125.000,1208.333,11.111,j
1216,-0.065,0.475,-0.280,111.111,33.333,44.444,1027.778,180.556,N
1217,-0.420,0.765,-0.210,197.222,80.556,355.556,444.444,583.333,A
1218,-0.015,1.145,0.060,38.889,75.000,250.000,1125.000,680.556,j
1219,-0.065,0.935,0.080,33.333,63.889,119.444,494.444,630.556,N
1220,-0.205,1.035,-0.125,194.444,102.778,261.111,377.778,116.667,N
1221,-0.025,0.650,-0.080,100.000,33.333,191.667,608.333,230.556,N
1222,-0.405,0.275,-0.455,77.778,66.667,358.333,472.222,136.111,N
1223,-0.355,0.485,-0.215,55.556,36.111,144.444,497.222,25.000,N
1224,-0.210,0.825,0.020,44.444,61.111,155.556,455.556,41.667,N
1225,-0.040,0.925,0.040,52.778,83.333,122.222,438.889,16.667,N
1226,-0.030,0.860,0.040,91.667,72.222,113.889,455.556,16.667,N
1227,-0.050,0.770,0.025,44.444,77.778,130.556,430.556,25.000,N
1228,-0.075,0.760,0.060,36.111,77.778,150.000,447.222,16.667,N
1229,-0.070,0.495,-0.030,97.222,33.333,83.333,494.444,47.222,N
1230,-0.350,0.210,-0.400,152.778,36.111,163.889,672.222,177.778,N
1231,-0.445,0.360,-0.100,36.111,33.333,341.667,502.778,169.444,N
1232,0.165,1.360,0.075,38.889,77.778,255.556,1369.444,866.667,j
1233,0.285,1.220,0.305,36.111,50.000,122.222,1113.889,255.556,j
1234,-0.035,0.730,-0.120,177.778,33.333,44.444,1138.889,25.000,j
1235,-0.040,0.700,0.065,122.222,75.000,269.444,1216.667,77.778,N
1236,-0.120,1.140,-0.145,33.333,83.333,88.889,472.222,744.444,A
1237,-0.420,0.295,-0.485,169.444,36.111,94.444,686.111,213.889,N
1238,-0.215,0.570,-0.010,75.000,66.667,175.000,586.111,100.000,N
1239,-0.070,0.865,0.155,166.667,36.111,219.444,511.111,75.000,N
1240,0.015,0.760,0.110,116.667,36.111,122.222,497.222,13.889,N
1241,-0.100,0.615,-0.140,169.444,36.111,113.889,719.444,222.222,N
1242,-0.420,0.540,-0.195,108.333,66.667,141.667,941.667,222.222,N
1243,-0.060,0.805,0.115,44.444,33.333,175.000,550.000,391.667,N
1244,-0.065,0.470,-0.210,136.111,33.333,80.556,522.222,27.778,N
1245,-0.235,0.855,-0.150,47.222,72.222,244.444,580.556,58.333,N
1246,-0.175,0.780,-0.120,194.444,69.444,211.111,430.556,150.000,N
1247,-0.045,0.800,0.110,191.667,77.778,244.444,633.333,202.778,N
1248,-0.060,0.565,-0.075,169.444,38.889,52.778,558.333,75.000,N
1249,-0.400,0.125,-0.420,97.222,36.111,225.000,594.444,36.111,N
1250,-0.290,0.675,-0.130,175.000,66.667,225.000,613.889,19.444,N
1251,-0.230,0.610,-0.105,91.667,52.778,94.444,463.889,150.000,N
1252,-0.075,0.555,-0.005,155.556,33.333,213.889,613.889,150.000,N
1253,-0.060,0.650,0.050,58.333,36.111,158.333,488.889,125.000,N
1254,0.055,0.750,0.135,97.222,38.889,119.444,572.222,83.333,N
1255,-0.080,0.420,-0.140,150.000,30.556,58.333,608.333,36.111,N
1256,-0.320,0.440,-0.070,30.556,33.333,200.000,622.222,13.889,N
1257,0.020,0.935,0.250,58.333,77.778,238.889,658.333,36.111,N
1258,0.100,1.010,0.155,36.111,75.000,138.889,430.556,227.778,N
1259,0.035,0.740,0.055,197.222,36.111,52.778,513.889,83.333,N
1260,-0.245,0.470,-0.300,158.333,36.111,47.222,658.333,144.444,N
1261,-0.185,0.355,0.000,27.778,38.889,358.333,519.444,138.889,N
1262,0.160,0.745,0.180,50.000,61.111,169.444,605.556,86.111,N
1263,0.055,0.970,0.045,166.667,83.333,238.889,727.778,122.222,N
1264,-0.190,0.540,-0.120,100.000,33.333,133.333,475.000,252.778,N
1265,-0.265,0.270,-0.105,55.556,33.333,361.111,569.444,94.444,N
1266,-0.105,0.740,0.030,91.667,30.556,105.556,436.111,133.333,N
1267,0.070,0.925,0.100,188.889,52.778,261.111,680.556,244.444,N
1268,-0.330,0.350,-0.315,172.222,75.000,288.889,1213.889,533.333,N
1269,-0.075,0.905,0.030,41.667,36.111,144.444,702.778,511.111,N
1270,0.135,0.840,0.125,38.889,38.889,219.444,580.556,122.222,N
1271,0.135,0.850,0.165,47.222,36.111,186.111,513.889,66.667,N
1272,-0.045,0.690,-0.025,50.000,36.111,172.222,797.222,283.333,N
1273,-0.520,0.230,-0.320,186.111,33.333,363.889,802.778,5.556,N
1274,-0.110,0.715,0.030,83.333,75.000,133.333,538.889,263.889,N
1275,0.190,0.795,0.230,58.333,36.111,172.222,702.778,163.889,N
1276,0.060,0.770,0.210,38.889,36.111,194.444,561.111,141.667,N
1277,-0.140,0.365,-0.245,75.000,69.444,127.778,836.111,275.000,N
1278,-0.175,0.605,-0.020,58.333,111.111,202.778,730.556,105.556,N
1279,-0.005,0.620,-0.070,175.000,102.778,108.333,658.333,72.222,N
1280,-0.220,0.275,-0.395,183.333,116.667,244.444,752.778,94.444,N
1281,-0.405,0.350,0.005,58.333,105.556,394.444,558.333,194.444,N
1282,0.130,0.735,0.180,91.667,63.889,105.556,633.333,75.000,N
1283,0.175,0.775,0.160,191.667,108.333,180.556,650.000,16.667,N
1284,-0.140,0.425,-0.145,197.222,111.111,200.000,713.889,63.889,N
1285,0.010,0.470,0.095,50.000,61.111,172.222,561.111,152.778,N
1286,0.150,0.620,0.205,91.667,55.556,130.556,591.667,30.556,N
1287,0.160,0.615,0.035,163.889,102.778,111.111,855.556,263.889,N
1288,-0.075,0.120,-0.130,75.000,36.111,141.667,611.111,244.444,N
1289,-0.075,0.565,0.160,55.556,102.778,225.000,516.667,94.444,N
1290,0.145,0.690,0.265,38.889,55.556,147.222,413.889,102.778,N
1291,0.175,0.675,0.220,83.333,66.667,138.889,411.111,2.778,N
1292,0.095,0.615,0.200,102.778,33.333,97.222,369.444,41.667,N
1293,0.005,0.300,-0.170,150.000,116.667,119.444,580.556,211.111,N
1294,-0.245,0.245,0.040,122.222,66.667,255.556,488.889,91.667,N
1295,0.095,0.565,0.125,141.667,102.778,105.556,738.889,250.000,N
1296,0.035,0.355,0.055,138.889,66.667,91.667,577.778,161.111,N
1297,-0.085,0.365,-0.125,197.222,116.667,255.556,477.778,100.000,N
1298,-0.200,0.190,-0.150,58.333,55.556,363.889,458.333,19.444,N
1299,-0.130,0.350,-0.035,58.333,77.778,172.222,416.667,41.667,N
1300,-0.085,0.385,-0.005,113.889,52.778,108.333,438.889,22.222,N
1301,-0.120,0.415,-0.020,197.222,100.000,247.222,497.222,58.333,N
1302,-0.215,0.160,-0.305,191.667,111.111,258.333,616.667,119.444,N
1303,-0.425,0.045,-0.085,63.889,100.000,288.889,705.556,88.889,N
1304,-0.110,0.460,0.050,197.222,116.667,238.889,633.333,72.222,N
1305,-0.030,0.440,-0.100,191.667,100.000,108.333,741.667,108.333,N
1306,-0.355,-0.040,-0.355,194.444,66.667,222.222,736.111,5.556,N
1307,-0.300,0.235,-0.095,63.889,113.889,269.444,602.778,133.333,N
1308,-0.130,0.455,-0.010,58.333,105.556,230.556,444.444,158.333,N
1309,-0.020,0.430,0.025,50.000,77.778,161.111,427.778,16.667,N
1310,-0.025,0.400,-0.140,197.222,80.556,105.556,383.333,44.444,N
1311,-0.345,-0.020,-0.345,136.111,77.778,166.667,613.889,230.556,N
1312,-0.130,0.335,0.025,61.111,113.889,241.667,880.556,266.667,N
1313,-0.100,0.375,-0.060,197.222,72.222,127.778,441.667,438.889,N
1314,-0.150,0.150,-0.215,188.889,66.667,75.000,616.667,175.000,N
1315,-0.370,-0.025,-0.240,175.000,66.667,222.222,633.333,16.667,N
1316,-0.190,0.265,-0.090,44.444,55.556,75.000,519.444,113.889,N
1317,-0.065,0.445,-0.035,66.667,100.000,172.222,708.333,188.889,N
1318,-0.115,0.250,-0.130,50.000,63.889,191.667,533.333,175.000,N
1319,-0.370,-0.055,-0.360,138.889,33.333,241.667,688.889,155.556,N
1320,-0.200,0.230,-0.105,55.556,100.000,227.778,583.333,105.556,N
1321,-0.065,0.375,-0.030,83.333,77.778,125.000,711.111,127.778,N
1322,-0.165,0.065,-0.200,102.778,36.111,100.000,797.222,86.111,N
1323,-0.200,0.325,-0.050,63.889,97.222,322.222,697.222,100.000,N
1324,-0.055,0.450,0.075,188.889,100.000,227.778,475.000,222.222,N
1325,-0.005,0.410,-0.055,63.889,100.000,161.111,627.778,152.778,N
1326,-0.250,0.130,-0.285,194.444,116.667,225.000,550.000,77.778,N
1327,-0.335,0.120,-0.160,44.444,66.667,225.000,547.222,2.778,N
1328,-0.090,0.435,0.035,191.667,66.667,255.556,627.778,80.556,N
1329,-0.110,0.355,-0.025,69.444,94.444,219.444,577.778,50.000,N
1330,-0.170,0.315,-0.210,197.222,97.222,125.000,827.778,250.000,N
1331,-0.265,0.290,-0.120,38.889,66.667,205.556,491.667,336.111,N
1332,-0.160,0.375,-0.150,52.778,80.556,155.556,397.222,94.444,N
1333,-0.195,0.245,-0.110,33.333,83.333,208.333,813.889,416.667,N
1334,-0.220,0.350,-0.200,197.222,113.889,205.556,436.111,377.778,N
1335,-0.270,0.215,-0.335,47.222,75.000,191.667,380.556,55.556,N
1336,-0.545,0.110,-0.345,69.444,97.222,272.222,822.222,441.667,N
1337,-0.170,0.430,-0.090,69.444,80.556,91.667,713.889,108.333,N
1338,-0.215,0.450,-0.145,191.667,61.111,163.889,438.889,275.000,N
1339,-0.180,0.435,-0.165,80.556,66.667,122.222,422.222,16.667,N
1340,-0.345,0.180,-0.445,188.889,105.556,127.778,472.222,50.000,N
1341,-0.495,0.015,-0.365,44.444,66.667,366.667,458.333,13.889,N
1342,-0.335,0.390,-0.225,33.333,63.889,325.000,405.556,52.778,N
1343,-0.080,0.525,-0.075,122.222,50.000,127.778,622.222,216.667,N
1344,-0.175,0.545,-0.040,86.111,72.222,238.889,494.444,127.778,N
1345,-0.120,0.370,-0.215,83.333,38.889,141.667,516.667,22.222,N
1346,-0.435,0.060,-0.395,163.889,33.333,219.444,597.222,80.556,N
1347,-0.335,0.340,-0.155,66.667,63.889,141.667,452.778,144.444,N
1348,-0.175,0.485,-0.030,91.667,38.889,113.889,408.333,44.444,N
1349,-0.010,0.625,0.135,58.333,75.000,222.222,711.111,302.778,N
1350,-0.040,0.650,-0.035,197.222,38.889,52.778,430.556,280.556,N
1351,-0.300,0.440,-0.350,180.556,38.889,50.000,730.556,300.000,N
1352,-0.380,0.460,-0.095,58.333,77.778,222.222,572.222,158.333,N
1353,-0.025,0.780,0.160,97.222,38.889,205.556,527.778,44.444,N
1354,0.065,0.690,0.060,38.889,69.444,194.444,411.111,116.667,N
1355,-0.015,0.775,0.050,111.111,52.778,83.333,419.444,8.333,N
1356,-0.170,0.560,-0.285,191.667,36.111,177.778,730.556,311.111,N
1357,-0.340,0.280,-0.120,44.444,33.333,241.667,633.333,97.222,N
1358,-0.030,0.800,0.210,61.111,102.778,244.444,669.444,36.111,N
1359,0.100,0.755,0.055,72.222,38.889,138.889,855.556,186.111,N
1360,-0.365,0.275,-0.380,163.889,33.333,47.222,844.444,11.111,N
1361,-0.285,0.545,-0.160,97.222,55.556,111.111,519.444,325.000,N
1362,-0.010,0.890,-0.015,33.333,77.778,219.444,819.444,300.000,N
1363,-0.010,0.725,-0.095,33.333,36.111,119.444,613.889,205.556,N
1364,-0.210,0.360,-0.280,63.889,72.222,136.111,500.000,113.889,N
1365,-0.315,0.340,-0.295,63.889,36.111,138.889,594.444,94.444,N
1366,-0.180,0.710,0.015,50.000,30.556,150.000,488.889,105.556,N
1367,-0.045,0.835,0.035,80.556,66.667,141.667,397.222,91.667,N
1368,-0.055,0.730,0.050,119.444,36.111,144.444,411.111,13.889,N
1369,-0.170,0.675,-0.145,175.000,69.444,208.333,950.000,538.889,N
1370,-0.170,0.560,-0.185,172.222,38.889,50.000,697.222,252.778,N
1371,-0.220,0.760,-0.070,130.556,33.333,75.000,458.333,238.889,N
1372,-0.070,0.825,-0.120,52.778,36.111,163.889,758.333,300.000,N
1373,-0.025,0.470,-0.090,94.444,36.111,108.333,719.444,38.889,N
1374,-0.175,0.585,-0.305,197.222,75.000,91.667,655.556,63.889,N
1375,-0.375,0.660,-0.265,197.222,66.667,341.667,400.000,255.556,N
1376,-0.265,0.755,-0.180,86.111,61.111,97.222,405.556,5.556,N
1377,-0.085,0.675,-0.190,50.000,77.778,200.000,747.222,341.667,N
1378,-0.285,0.405,-0.305,44.444,58.333,122.222,502.778,244.444,N
1379,-0.410,0.270,-0.400,111.111,36.111,141.667,477.778,25.000,N
1380,-0.385,0.470,0.235,127.778,69.444,202.778,630.556,152.778,N
1381,-0.065,0.945,-0.030,158.333,69.444,125.000,997.222,366.667,N
1382,-0.075,0.840,-0.075,44.444,36.111,202.778,655.556,341.667,N
1383,-0.035,0.740,-0.020,102.778,33.333,47.222,655.556,0.000,N
1384,-0.135,0.820,-0.090,100.000,33.333,44.444,430.556,225.000,N
1385,-0.240,0.700,-0.105,36.111,36.111,180.556,588.889,158.333,N
1386,-0.170,1.095,-0.100,194.444,69.444,147.222,386.111,202.778,N
1387,-0.185,0.390,-0.010,175.000,33.333,269.444,800.000,413.889,N
1388,0.010,0.925,0.160,94.444,41.667,255.556,802.778,2.778,N
1389,-0.015,0.855,0.060,86.111,58.333,105.556,491.667,311.111,N
1390,-0.095,0.595,-0.245,116.667,33.333,69.444,416.667,75.000,N
1391,-0.330,0.210,-0.420,91.667,30.556,41.667,519.444,102.778,N
1392,-0.490,0.305,-0.330,105.556,33.333,58.333,580.556,61.111,N
1393,-0.405,0.470,-0.150,41.667,33.333,363.889,452.778,127.778,N
1394,-0.040,1.050,0.155,127.778,75.000,275.000,638.889,186.111,N
1395,0.010,0.950,0.185,197.222,77.778,191.667,586.111,52.778,N
1396,0.185,0.995,0.210,111.111,36.111,225.000,744.444,158.333,N
1397,0.050,0.740,-0.030,186.111,77.778,222.222,725.000,19.444,N
1398,-0.150,0.515,-0.105,122.222,30.556,44.444,638.889,86.111,N
1399,-0.215,0.760,-0.070,50.000,63.889,305.556,425.000,213.889,N
1400,-0.070,0.775,0.135,94.444,36.111,108.333,377.778,47.222,N
1401,0.055,0.820,0.245,44.444,36.111,175.000,550.000,172.222,N
1402,0.105,1.010,0.145,77.778,69.444,127.778,400.000,150.000,N
1403,-0.005,0.760,0.015,138.889,33.333,44.444,413.889,13.889,N
1404,-0.235,0.455,0.010,127.778,30.556,238.889,716.667,302.778,N
1405,-0.090,1.005,0.015,133.333,102.778,230.556,722.222,5.556,N
1406,-0.065,0.695,-0.050,30.556,36.111,163.889,572.222,150.000,N
1407,-0.180,0.675,-0.065,130.556,30.556,41.667,427.778,144.444,N
1408,-0.215,0.570,-0.270,44.444,38.889,52.778,616.667,188.889,N
1409,-0.405,0.335,-0.290,44.444,63.889,172.222,466.667,150.000,N
1410,-0.295,0.585,-0.005,75.000,61.111,147.222,413.889,52.778,N
1411,-0.220,0.625,-0.070,102.778,36.111,97.222,427.778,13.889,N
1412,-0.070,0.625,0.045,125.000,36.111,102.778,719.444,291.667,N
1413,-0.245,0.385,-0.255,63.889,30.556,116.667,488.889,230.556,N
1414,-0.140,0.715,0.025,41.667,33.333,194.444,644.444,155.556,N
1415,-0.025,0.800,0.170,69.444,33.333,161.111,725.000,80.556,N
1416,-0.135,0.565,-0.095,197.222,75.000,244.444,561.111,163.889,N
1417,-0.035,1.100,0.140,38.889,63.889,219.444,1258.333,697.222,j
1418,-0.055,1.160,-0.110,41.667,72.222,94.444,1272.222,13.889,j
1419,-0.110,0.770,-0.060,30.556,33.333,55.556,536.111,736.111,A
1420,0.020,0.825,-0.120,127.778,66.667,222.222,913.889,377.778,N
1421,-0.245,0.735,-0.350,188.889,69.444,94.444,1111.111,197.222,j
1422,-0.320,0.470,-0.195,44.444,33.333,361.111,488.889,622.222,A
1423,-0.040,1.110,0.000,36.111,75.000,200.000,1141.667,652.778,j
1424,-0.030,0.825,-0.005,41.667,36.111,58.333,458.333,683.333,A
1425,-0.130,1.025,-0.045,30.556,66.667,244.444,1255.556,797.222,j
1426,-0.025,0.905,0.040,36.111,33.333,44.444,486.111,769.444,A
1427,-0.250,0.705,-0.420,44.444,69.444,91.667,1205.556,719.444,j
1428,0.010,1.290,0.000,94.444,105.556,144.444,1152.778,52.778,j
1429,0.045,1.220,0.045,38.889,55.556,61.111,1047.222,105.556,j
1430,-0.385,0.695,-0.185,41.667,38.889,211.111,1002.778,44.444,j
1431,-0.110,1.295,0.045,33.333,77.778,369.444,438.889,563.889,A
1432,0.275,1.105,0.115,97.222,63.889,77.778,1016.667,577.778,N
1433,-0.005,0.565,0.005,116.667,33.333,352.778,1016.667,0.000,N
1434,0.465,1.295,0.205,122.222,41.667,111.111,747.222,269.444,N
1435,0.375,1.080,-0.025,116.667,36.111,44.444,833.333,86.111,N
1436,0.205,0.755,-0.030,122.222,33.333,83.333,738.889,94.444,N
1437,0.075,0.505,-0.340,127.778,33.333,72.222,758.333,19.444,N
1438,-0.330,0.170,-0.320,125.000,33.333,363.889,794.444,36.111,N
1439,0.315,1.170,0.105,127.778,63.889,241.667,800.000,5.556,N
1440,0.355,0.955,0.015,122.222,36.111,130.556,850.000,50.000,N
1441,-0.195,0.160,-0.440,127.778,33.333,361.111,844.444,5.556,N
1442,0.170,0.895,0.025,122.222,30.556,205.556,777.778,66.667,N
1443,0.285,0.875,0.055,125.000,33.333,97.222,772.222,5.556,N
1444,-0.050,0.550,-0.145,119.444,30.556,47.222,850.000,77.778,N
1445,0.275,0.975,0.090,125.000,36.111,102.778,761.111,88.889,N
1446,0.350,0.885,0.105,130.556,33.333,208.333,827.778,66.667,N
1447,0.020,0.460,-0.235,130.556,36.111,363.889,855.556,27.778,N
1448,0.280,1.040,0.095,130.556,36.111,208.333,802.778,52.778,N
1449,0.245,0.735,-0.125,127.778,33.333,52.778,811.111,8.333,N
1450,0.100,0.770,-0.005,130.556,36.111,188.889,819.444,8.333,N
1451,0.345,0.855,0.095,125.000,30.556,188.889,694.444,125.000,N
1452,0.045,0.670,-0.035,111.111,30.556,119.444,838.889,144.444,N
1453,0.040,0.490,-0.260,133.333,30.556,97.222,772.222,66.667,N
1454,-0.355,0.075,-0.495,130.556,36.111,358.333,838.889,66.667,N
1455,0.095,0.800,-0.050,127.778,38.889,222.222,819.444,19.444,N
1456,0.225,0.965,0.135,122.222,36.111,108.333,852.778,33.333,N
1457,0.090,0.515,-0.240,125.000,33.333,44.444,777.778,75.000,N
1458,0.215,0.955,0.105,125.000,33.333,208.333,786.111,8.333,N
1459,0.455,1.010,0.180,136.111,36.111,113.889,725.000,61.111,N
1460,-0.045,0.500,-0.120,122.222,33.333,47.222,855.556,130.556,N
1461,0.260,0.885,0.120,141.667,36.111,163.889,800.000,55.556,N
1462,0.510,1.035,0.260,136.111,36.111,113.889,811.111,11.111,N
1463,0.335,0.790,0.005,119.444,30.556,80.556,836.111,25.000,N
1464,0.040,0.470,-0.160,125.000,30.556,363.889,819.444,16.667,N
1465,0.320,0.885,0.110,125.000,36.111,180.556,747.222,72.222,N
1466,0.230,0.935,0.180,125.000,33.333,91.667,855.556,108.333,N
1467,0.070,0.445,-0.255,122.222,33.333,138.889,750.000,105.556,N
1468,0.320,1.080,0.185,127.778,38.889,136.111,841.667,91.667,N
1469,0.420,0.895,0.250,138.889,38.889,233.333,755.556,86.111,N
1470,0.155,1.135,-0.145,197.222,86.111,97.222,438.889,316.667,A
1471,0.090,1.095,0.185,47.222,63.889,275.000,1216.667,777.778,j
1472,0.020,0.860,0.025,194.444,75.000,183.333,488.889,727.778,A
1473,-0.240,0.535,-0.365,113.889,33.333,108.333,1055.556,566.667,N
1474,-0.340,0.460,-0.085,127.778,30.556,363.889,641.667,413.889,N
1475,0.245,1.095,0.150,119.444,77.778,169.444,938.889,297.222,N
1476,0.095,0.600,-0.060,138.889,36.111,225.000,738.889,200.000,N
1477,-0.180,0.805,-0.390,191.667,108.333,130.556,430.556,308.333,A
1478,0.020,0.885,0.125,116.667,97.222,241.667,1122.222,691.667,N
1479,0.195,0.720,0.160,127.778,36.111,211.111,711.111,411.111,N
1480,-0.025,0.525,-0.010,122.222,30.556,133.333,872.222,161.111,N
1481,0.070,0.625,0.015,122.222,69.444,141.667,811.111,61.111,N
1482,-0.185,0.210,-0.305,116.667,30.556,208.333,827.778,16.667,N
1483,-0.425,0.610,-0.255,191.667,102.778,394.444,419.444,408.333,A
1484,0.045,0.740,0.185,113.889,94.444,269.444,1072.222,652.778,N
1485,-0.035,0.600,-0.025,194.444,77.778,83.333,483.333,588.889,A
1486,-0.285,0.110,-0.435,122.222,113.889,122.222,991.667,508.333,N
1487,-0.075,0.455,0.030,122.222,113.889,272.222,883.333,108.333,N
1488,0.110,0.545,0.085,119.444,75.000,152.778,825.000,58.333,N
1489,-0.030,0.235,-0.185,122.222,102.778,113.889,825.000,0.000,N
1490,-0.355,-0.010,-0.150,127.778,72.222,397.222,791.667,33.333,N
1491,0.175,0.675,0.170,125.000,100.000,158.333,877.778,86.111,N
1492,0.145,0.480,0.080,127.778,97.222,155.556,872.222,5.556,N
1493,-0.235,0.035,-0.355,119.444,75.000,88.889,869.444,2.778,N
1494,0.070,0.380,-0.030,119.444,111.111,225.000,769.444,100.000,N
1495,0.115,0.520,0.085,113.889,97.222,172.222,847.222,77.778,N
1496,-0.080,0.045,-0.365,125.000,72.222,80.556,722.222,125.000,N
1497,-0.170,0.305,-0.070,102.778,94.444,219.444,847.222,125.000,N
1498,0.185,0.450,0.030,141.667,86.111,258.333,741.667,105.556,N
1499,-0.155,0.135,-0.320,122.222,97.222,105.556,1344.444,602.778,N
1500,0.010,0.485,0.055,122.222,97.222,263.889,1083.333,261.111,N
1501,-0.040,0.590,0.075,61.111,102.778,111.111,458.333,625.000,A
1502,0.030,0.470,-0.130,119.444,100.000,108.333,1005.556,547.222,N
1503,-0.195,0.305,-0.015,116.667,100.000,225.000,880.556,125.000,N
1504,0.140,0.620,0.110,119.444,100.000,277.778,802.778,77.778,N
1505,0.035,0.660,-0.130,188.889,108.333,108.333,452.778,350.000,A
1506,-0.150,0.450,-0.025,127.778,102.778,277.778,1075.000,622.222,N
1507,0.055,0.375,0.040,136.111,80.556,258.333,688.889,386.111,N
1508,-0.275,0.070,-0.245,113.889,72.222,386.111,1111.111,422.222,N
1509,0.160,0.730,0.140,113.889,100.000,277.778,963.889,147.222,N
1510,0.105,0.640,0.020,194.444,102.778,108.333,430.556,533.333,A
1511,-0.220,0.395,-0.065,105.556,102.778,272.222,1027.778,597.222,N
1512,-0.155,0.520,-0.105,36.111,83.333,138.889,480.556,547.222,A
1513,0.030,0.600,0.085,125.000,97.222,291.667,1022.222,541.667,N
1514,-0.065,0.550,-0.030,41.667,75.000,77.778,502.778,519.444,A
1515,-0.140,0.315,-0.235,100.000,116.667,280.556,1005.556,502.778,N
1516,-0.420,0.340,-0.245,197.222,113.889,394.444,466.667,538.889,A
1517,-0.050,0.765,0.085,122.222,111.111,166.667,1055.556,588.889,j
1518,-0.290,0.115,-0.295,155.556,33.333,366.667,625.000,430.556,A
1519,0.005,0.705,-0.050,122.222,100.000,125.000,1125.000,500.000,N
1520,-0.175,0.190,-0.290,138.889,33.333,47.222,766.667,358.333,A
1521,0.055,0.765,0.140,125.000,111.111,294.444,1238.889,472.222,N
1522,0.020,0.740,0.060,41.667,77.778,105.556,497.222,741.667,A
1523,-0.040,0.515,-0.175,125.000,38.889,238.889,986.111,488.889,N
1524,-0.215,0.580,-0.030,30.556,83.333,358.333,472.222,513.889,A
1525,0.225,0.990,0.295,116.667,100.000,288.889,1030.556,558.333,N
1526,0.205,0.840,0.140,197.222,69.444,77.778,461.111,569.444,A
1527,-0.020,0.550,0.120,130.556,80.556,291.667,975.000,513.889,N
1528,0.020,0.970,0.115,33.333,80.556,108.333,483.333,491.667,A
1529,0.200,0.915,0.160,125.000,97.222,272.222,1094.444,611.111,N
1530,-0.090,0.535,-0.240,197.222,83.333,91.667,472.222,622.222,A
1531,0.070,0.850,0.205,122.222,113.889,288.889,1052.778,580.556,N
1532,0.030,0.775,0.055,197.222,83.333,94.444,477.778,575.000,A
1533,-0.050,0.530,-0.255,116.667,72.222,86.111,966.667,488.889,N
1534,-0.415,0.260,-0.205,191.667,75.000,363.889,441.667,525.000,A
1535,0.050,0.860,0.150,116.667,116.667,305.556,1061.111,619.444,N
1536,-0.055,0.670,-0.065,197.222,69.444,125.000,497.222,563.889,A
1537,-0.325,0.295,-0.220,122.222,80.556,291.667,1019.444,522.222,N
1538,-0.195,0.825,0.015,33.333,63.889,191.667,480.556,538.889,A
1539,0.020,0.950,0.065,44.444,52.778,227.778,697.222,216.667,j
1540,-0.285,0.610,-0.295,169.444,66.667,105.556,1155.556,458.333,j
1541,0.030,1.045,0.045,33.333,83.333,136.111,1086.111,69.444,j
1542,0.130,0.770,0.135,158.333,33.333,125.000,586.111,500.000,A
1543,-0.080,0.780,-0.065,44.444,75.000,94.444,452.778,133.333,A
1544,-0.035,0.760,0.200,127.778,36.111,233.333,972.222,519.444,N
1545,0.005,1.605,0.020,61.111,102.778,108.333,497.222,475.000,A
1546,0.100,0.835,-0.030,86.111,38.889,47.222,941.667,444.444,N
1547,-0.205,0.500,-0.370,194.444,69.444,77.778,488.889,452.778,A
1548,0.065,1.215,0.010,44.444,66.667,138.889,1005.556,516.667,j
1549,-0.025,0.790,0.020,194.444,36.111,197.222,475.000,530.556,A
1550,-0.265,0.500,-0.105,91.667,63.889,305.556,950.000,475.000,N
1551,-0.120,1.355,-0.025,44.444,83.333,366.667,486.111,463.889,A
1552,0.015,1.115,0.005,147.222,69.444,191.667,1002.778,516.667,j
1553,-0.090,0.535,-0.300,158.333,38.889,55.556,616.667,386.111,A
1554,-0.140,0.970,0.025,41.667,72.222,150.000,994.444,377.778,j
1555,0.140,0.910,0.085,152.778,36.111,197.222,630.556,363.889,A
1556,-0.140,0.770,-0.380,33.333,75.000,86.111,944.444,313.889,j
1557,-0.230,0.720,-0.045,33.333,36.111,172.222,480.556,463.889,A
1558,-0.015,1.240,0.000,69.444,97.222,188.889,886.111,405.556,j
1559,-0.180,0.705,-0.250,177.778,36.111,47.222,544.444,341.667,A
1560,0.015,1.175,0.135,33.333,63.889,105.556,972.222,427.778,j
1561,0.100,0.780,0.045,155.556,36.111,155.556,622.222,350.000,A
1562,-0.140,1.120,-0.145,197.222,83.333,363.889,405.556,216.667,A
1563,-0.035,1.155,0.125,102.778,91.667,100.000,858.333,452.778,j
1564,-0.015,0.765,-0.050,152.778,33.333,47.222,566.667,291.667,A
1565,-0.160,0.880,-0.070,36.111,58.333,91.667,863.889,297.222,j
1566,-0.125,0.575,-0.135,152.778,33.333,144.444,588.889,275.000,A
1567,-0.300,0.580,-0.380,38.889,77.778,80.556,900.000,311.111,j
1568,-0.235,0.730,-0.115,158.333,38.889,161.111,555.556,344.444,A
1569,-0.065,1.050,0.005,38.889,58.333,100.000,961.111,405.556,j
1570,-0.060,0.540,-0.140,155.556,33.333,47.222,580.556,380.556,A
1571,-0.045,1.110,-0.060,47.222,80.556,222.222,944.444,363.889,j
1572,-0.035,0.740,-0.105,155.556,36.111,47.222,558.333,386.111,A
1573,-0.415,0.860,-0.185,63.889,100.000,272.222,925.000,366.667,j
1574,-0.065,0.940,0.040,27.778,36.111,172.222,513.889,411.111,A
1575,0.025,1.255,0.060,36.111,80.556,238.889,905.556,391.667,j
1576,-0.050,0.790,0.110,166.667,38.889,147.222,552.778,352.778,A
1577,-0.035,1.425,-0.080,58.333,113.889,402.778,400.000,152.778,A
1578,-0.050,0.865,-0.130,152.778,69.444,216.667,950.000,550.000,j
1579,-0.230,0.465,-0.090,147.222,30.556,216.667,580.556,369.444,A
1580,0.130,1.185,0.060,44.444,63.889,205.556,947.222,366.667,j
1581,0.025,0.770,-0.115,172.222,33.333,44.444,466.667,480.556,A
1582,-0.370,0.995,-0.100,61.111,97.222,255.556,925.000,458.333,j
1583,-0.010,0.965,0.030,147.222,38.889,108.333,508.333,416.667,A
1584,0.045,1.100,-0.120,58.333,66.667,91.667,1030.556,522.222,j
1585,-0.265,0.565,-0.350,177.778,33.333,44.444,494.444,536.111,A
1586,0.045,1.130,0.105,94.444,69.444,319.444,1086.111,591.667,N
1587,0.105,1.190,0.010,188.889,75.000,86.111,461.111,625.000,A
1588,-0.045,0.665,-0.255,113.889,72.222,83.333,1011.111,550.000,N
1589,-0.455,0.600,-0.380,197.222,61.111,352.778,483.333,527.778,A
1590,0.135,1.340,0.275,116.667,77.778,294.444,952.778,469.444,N
1591,0.275,1.105,0.135,197.222,75.000,97.222,438.889,513.889,A
1592,-0.005,0.795,-0.190,116.667,63.889,297.222,1022.222,583.333,N
1593,-0.305,0.590,-0.390,197.222,69.444,86.111,486.111,536.111,A
1594,0.165,1.285,0.320,119.444,77.778,305.556,1041.667,555.556,N
1595,0.250,1.185,0.185,194.444,66.667,111.111,469.444,572.222,A
1596,-0.060,0.785,-0.160,122.222,75.000,305.556,1025.000,555.556,N
1597,-0.270,0.635,-0.310,194.444,80.556,341.667,461.111,563.889,A
1598,0.105,1.100,0.230,113.889,97.222,286.111,1002.778,541.667,N
1599,0.125,0.945,1.335,191.667,69.444,341.667,441.667,561.111,A
1600,0.060,1.335,-0.110,194.444,105.556,111.111,322.222,119.444,N
1601,-0.310,0.650,-0.260,175.000,69.444,80.556,697.222,375.000,N
1602,-0.330,0.625,-0.075,180.556,63.889,75.000,469.444,227.778,N
1603,0.040,0.955,0.150,30.556,41.667,197.222,583.333,113.889,N
1604,-0.020,0.825,0.125,44.444,36.111,180.556,513.889,69.444,N
1605,-0.195,0.620,-0.280,191.667,80.556,138.889,841.667,327.778,N
1606,-0.480,1.145,-0.300,194.444,108.333,388.889,469.444,372.222,N
1607,-0.300,0.690,-0.010,44.444,36.111,138.889,375.000,94.444,N
1608,0.090,1.020,0.175,197.222,55.556,261.111,750.000,375.000,N
1609,0.050,0.850,0.025,80.556,36.111,172.222,547.222,202.778,N
1610,-0.235,0.475,-0.250,33.333,77.778,147.222,441.667,105.556,N
1611,-0.180,0.650,0.050,36.111,36.111,200.000,450.000,8.333,N
1612,0.105,1.005,0.170,77.778,66.667,197.222,491.667,41.667,N
1613,-0.010,0.840,0.015,88.889,75.000,86.111,1058.333,566.667,j
1614,-0.300,0.495,-0.275,61.111,33.333,155.556,927.778,130.556,j
1615,0.030,1.065,0.075,63.889,72.222,138.889,1066.667,138.889,j
1616,-0.025,0.880,0.015,36.111,33.333,100.000,1119.444,52.778,j
1617,-0.075,0.950,0.065,183.333,44.444,61.111,1116.667,2.778,j
1618,-0.170,0.950,-0.145,38.889,77.778,202.778,1133.333,16.667,j
1619,0.005,0.740,-0.050,166.667,36.111,211.111,619.444,513.889,A
1620,-0.010,0.615,-0.290,116.667,38.889,50.000,1161.111,541.667,N
1621,-0.445,0.690,-0.365,41.667,72.222,361.111,477.778,683.333,A
1622,-0.280,0.695,-0.055,58.333,69.444,222.222,516.667,38.889,A
1623,0.095,1.005,0.155,94.444,75.000,275.000,1125.000,608.333,N
1624,0.035,1.065,-0.255,197.222,66.667,72.222,447.222,677.778,A
1625,-0.375,0.460,-0.360,30.556,30.556,38.889,533.333,86.111,A
1626,0.095,0.945,0.215,122.222,77.778,286.111,1122.222,588.889,N
1627,0.075,1.240,0.050,197.222,80.556,105.556,469.444,652.778,A
1628,0.060,0.980,0.035,147.222,102.778,125.000,725.000,255.556,N
1629,-0.145,0.680,-0.150,38.889,58.333,77.778,452.778,272.222,N
1630,-0.285,0.495,-0.105,161.111,36.111,355.556,475.000,22.222,N
1631,-0.065,0.975,0.140,38.889,58.333,369.444,411.111,63.889,N
1632,0.170,1.155,0.275,47.222,80.556,141.667,425.000,13.889,N
1633,0.180,1.035,0.305,119.444,72.222,122.222,450.000,25.000,N
1634,0.155,0.945,0.195,83.333,63.889,125.000,436.111,13.889,N
1635,-0.095,0.690,-0.085,105.556,77.778,163.889,422.222,13.889,N
1636,-0.240,0.505,-0.230,163.889,33.333,172.222,508.333,86.111,N
1637,0.135,1.150,0.175,86.111,86.111,277.778,1355.556,847.222,j
1638,-0.135,0.540,-0.250,188.889,61.111,75.000,1002.778,352.778,j
1639,-0.180,0.785,-0.100,52.778,61.111,141.667,1330.556,327.778,j
1640,0.145,0.890,-0.070,113.889,100.000,125.000,1308.333,22.222,N
1641,-0.275,0.770,-0.390,188.889,77.778,86.111,458.333,850.000,A
1642,-0.440,0.330,-0.385,27.778,33.333,47.222,530.556,72.222,A
1643,0.190,0.950,0.175,119.444,77.778,288.889,1269.444,738.889,N
1644,0.090,0.850,0.135,36.111,61.111,80.556,500.000,769.444,A
1645,0.005,0.715,-0.140,188.889,72.222,80.556,738.889,238.889,j
1646,0.240,0.900,0.190,136.111,66.667,275.000,1127.778,388.889,N
1647,0.040,0.965,0.065,63.889,113.889,125.000,475.000,652.778,A
1648,0.075,0.790,0.005,119.444,77.778,91.667,691.667,216.667,A
1649,-0.115,0.550,0.045,116.667,75.000,261.111,1044.444,352.778,N
1650,-0.045,0.955,0.040,58.333,86.111,94.444,441.667,602.778,A
1651,-0.150,0.345,-0.210,191.667,86.111,111.111,750.000,308.333,N
1652,-0.190,0.340,0.030,63.889,77.778,258.333,541.667,208.333,N
1653,0.190,0.680,0.230,119.444,50.000,72.222,616.667,75.000,N
1654,0.130,0.695,0.235,183.333,52.778,75.000,427.778,188.889,N
1655,0.110,0.620,0.155,63.889,52.778,94.444,419.444,8.333,N
1656,-0.110,0.245,-0.155,100.000,80.556,188.889,416.667,2.778,N
1657,-0.140,0.365,0.085,66.667,113.889,241.667,669.444,252.778,N
1658,0.115,0.580,0.235,66.667,52.778,141.667,497.222,172.222,N
1659,0.090,0.565,0.125,94.444,77.778,136.111,413.889,83.333,N
1660,-0.005,0.150,-0.070,180.556,30.556,52.778,552.778,138.889,N
1661,-0.250,-0.025,-0.250,150.000,38.889,116.667,419.444,133.333,N
1662,-0.280,0.310,0.000,36.111,66.667,222.222,433.333,13.889,N
1663,0.025,0.705,0.125,50.000,69.444,222.222,469.444,36.111,N
1664,0.030,0.680,-0.010,130.556,113.889,305.556,1277.778,808.333,j
1665,0.045,0.630,0.055,36.111,66.667,205.556,1122.222,155.556,j
1666,0.005,0.660,-0.005,111.111,100.000,136.111,1175.000,52.778,j
1667,-0.075,0.430,-0.120,55.556,75.000,83.333,1097.222,77.778,j
1668,-0.065,0.465,-0.250,188.889,100.000,158.333,1047.222,50.000,j
1669,-0.235,0.540,-0.090,58.333,111.111,200.000,1063.889,16.667,j
1670,0.010,0.600,-0.110,52.778,94.444,200.000,1055.556,8.333,j
1671,0.045,0.515,0.065,63.889,38.889,52.778,552.778,502.778,A
1672,-0.090,0.615,-0.095,186.111,100.000,125.000,941.667,388.889,j
1673,0.025,0.530,-0.040,188.889,100.000,188.889,569.444,372.222,A
1674,-0.155,0.880,-0.135,197.222,116.667,125.000,375.000,194.444,A
1675,-0.060,0.525,0.010,61.111,100.000,108.333,561.111,186.111,A
1676,-0.425,0.185,-0.380,194.444,113.889,394.444,900.000,338.889,j
1677,0.015,0.735,0.065,58.333,97.222,255.556,947.222,47.222,j
1678,0.010,0.270,-0.185,158.333,69.444,130.556,602.778,344.444,N
1679,-0.110,0.815,0.110,41.667,66.667,377.778,416.667,186.111,N
1680,0.190,0.730,0.265,36.111,61.111,369.444,388.889,27.778,N
1681,0.265,0.725,0.275,161.111,77.778,108.333,508.333,119.444,N
1682,-0.050,0.650,0.105,116.667,111.111,252.778,491.667,16.667,N
1683,-0.020,0.480,0.045,27.778,33.333,172.222,491.667,0.000,N
1684,-0.220,0.045,-0.265,113.889,36.111,72.222,519.444,27.778,N
1685,-0.345,0.150,0.025,41.667,58.333,358.333,450.000,69.444,N
1686,0.055,0.640,0.895,66.667,80.556,402.778,472.222,22.222,N
1687,0.210,1.170,0.105,172.222,113.889,119.444,352.778,119.444,N
1688,-0.065,0.520,0.115,80.556,38.889,50.000,427.778,75.000,N
1689,-0.250,0.250,-0.325,197.222,38.889,52.778,619.444,191.667,j
1690,-0.085,0.605,0.055,58.333,69.444,241.667,775.000,155.556,j
1691,-0.050,0.505,-0.095,69.444,77.778,122.222,844.444,69.444,j
1692,-0.225,0.655,0.015,130.556,97.222,250.000,911.111,66.667,j
1693,0.195,0.610,0.070,113.889,47.222,202.778,908.333,2.778,j
1694,0.150,0.655,0.030,102.778,75.000,225.000,794.444,113.889,j
1695,0.015,0.705,-0.235,175.000,61.111,102.778,405.556,388.889,A
1696,-0.310,0.180,-0.215,147.222,72.222,327.778,419.444,13.889,A
1697,-0.110,0.650,0.065,150.000,77.778,88.889,644.444,225.000,N
1698,-0.010,0.415,-0.105,197.222,75.000,183.333,666.667,22.222,N
1699,-0.230,0.890,-0.380,152.778,80.556,305.556,425.000,241.667,A
1700,-0.035,0.825,0.015,80.556,66.667,111.111,708.333,283.333,N
1701,0.000,0.980,-0.060,102.778,75.000,227.778,908.333,200.000,j
1702,-0.295,0.630,-0.170,36.111,72.222,236.111,891.667,16.667,j
1703,0.215,0.865,0.020,113.889,77.778,125.000,844.444,47.222,N
1704,0.135,0.670,-0.140,116.667,36.111,77.778,755.556,88.889,N
1705,-0.110,0.445,-0.200,127.778,36.111,338.889,808.333,52.778,N
1706,0.115,0.715,-0.080,122.222,80.556,152.778,788.889,19.444,N
1707,-0.050,0.580,-0.400,130.556,36.111,94.444,811.111,22.222,N
1708,-0.415,0.740,-0.135,186.111,113.889,405.556,422.222,388.889,A
1709,-0.235,0.880,0.215,91.667,88.889,241.667,361.111,61.111,A
1710,-0.195,0.780,-0.005,194.444,83.333,266.667,430.556,69.444,A
1711,-0.020,0.620,-0.030,66.667,72.222,105.556,477.778,47.222,A
1712,0.000,0.975,0.050,77.778,94.444,236.111,858.333,380.556,j
1713,0.040,0.815,-0.055,125.000,86.111,272.222,911.111,52.778,j
1714,-0.080,0.830,-0.025,58.333,36.111,161.111,933.333,22.222,j
1715,0.095,1.025,0.040,133.333,86.111,197.222,930.556,2.778,j
1716,0.085,0.705,-0.135,119.444,75.000,275.000,830.556,100.000,N
1717,-0.135,0.740,-0.435,183.333,80.556,88.889,400.000,430.556,A
1718,-0.555,0.575,-0.310,38.889,72.222,361.111,372.222,27.778,A
1719,-0.040,1.060,-0.030,58.333,100.000,225.000,961.111,588.889,j
1720,0.005,0.700,-0.195,113.889,36.111,238.889,861.111,100.000,N
1721,-0.195,0.650,0.915,197.222,75.000,350.000,416.667,444.444,A
1722,-0.625,0.880,-0.035,72.222,108.333,236.111,327.778,88.889,A
1723,-0.200,0.810,0.060,38.889,36.111,177.778,450.000,122.222,A
1724,0.295,0.935,0.010,136.111,66.667,216.667,780.556,330.556,N
1725,-0.025,0.380,-0.395,138.889,33.333,47.222,802.778,22.222,N
1726,-0.235,0.620,-0.230,127.778,72.222,388.889,875.000,72.222,N
1727,0.140,0.920,-0.065,119.444,75.000,225.000,752.778,122.222,N
1728,0.105,0.780,-0.160,125.000,36.111,52.778,766.667,13.889,N
1729,-0.175,0.235,-0.210,127.778,33.333,319.444,766.667,0.000,N
1730,0.145,1.040,-0.080,119.444,69.444,122.222,705.556,61.111,N
1731,0.205,0.985,0.130,127.778,41.667,258.333,808.333,102.778,N
1732,0.040,1.210,-0.005,183.333,116.667,125.000,452.778,355.556,A
1733,-0.400,0.695,-0.170,183.333,55.556,261.111,1155.556,702.778,j
1734,-0.160,0.975,-0.040,55.556,100.000,105.556,469.444,686.111,A
1735,0.110,0.895,0.085,119.444,77.778,275.000,708.333,238.889,N
1736,-0.015,0.900,-0.255,188.889,77.778,97.222,438.889,269.444,A
1737,-0.425,0.730,-0.410,44.444,80.556,108.333,388.889,50.000,A
1738,0.160,0.910,0.285,122.222,77.778,277.778,1022.222,633.333,N
1739,0.205,1.240,0.060,191.667,77.778,80.556,438.889,583.333,A
1740,0.010,0.620,-0.110,194.444,58.333,127.778,508.333,69.444,A
1741,0.045,0.940,0.205,122.222,36.111,236.111,1047.222,538.889,N
1742,0.020,1.325,0.015,47.222,80.556,94.444,469.444,577.778,A
1743,0.035,0.950,0.090,38.889,36.111,47.222,555.556,86.111,A
1744,-0.390,0.790,-0.155,33.333,80.556,238.889,1061.111,505.556,j
1745,-0.030,0.790,0.040,166.667,36.111,102.778,550.000,511.111,A
1746,-0.095,0.910,-0.125,197.222,72.222,194.444,1041.667,491.667,j
1747,-0.400,0.255,-0.210,141.667,27.778,325.000,669.444,372.222,A
1748,-0.210,1.035,-0.220,77.778,69.444,347.222,386.111,283.333,A
1749,-0.075,0.965,-0.060,33.333,77.778,244.444,1036.111,650.000,j
1750,-0.400,0.435,-0.275,33.333,36.111,125.000,511.111,525.000,A
1751,-0.530,0.960,-0.230,188.889,94.444,402.778,380.556,130.556,A
1752,-0.150,1.145,0.095,66.667,102.778,341.667,508.333,127.778,A
1753,0.070,0.805,0.145,194.444,72.222,205.556,497.222,11.111,A
1754,0.045,0.535,-0.170,122.222,36.111,327.778,858.333,361.111,N
1755,0.215,0.950,-0.055,105.556,63.889,88.889,850.000,8.333,N
1756,0.095,0.660,-0.240,108.333,33.333,58.333,769.444,80.556,N
1757,-0.035,0.680,-0.030,122.222,36.111,252.778,897.222,127.778,N
1758,-0.070,1.145,-0.105,197.222,80.556,91.667,447.222,450.000,A
1759,-0.175,0.885,-0.025,102.778,77.778,105.556,402.778,44.444,N
1760,-0.145,0.495,-0.300,194.444,63.889,108.333,411.111,8.333,N
1761,-0.515,0.125,-0.525,169.444,66.667,244.444,522.222,111.111,N
1762,-0.340,0.670,0.045,80.556,75.000,244.444,611.111,88.889,N
1763,0.045,1.510,-0.010,166.667,97.222,105.556,369.444,241.667,N
1764,0.050,0.960,0.075,52.778,80.556,169.444,463.889,94.444,N
1765,-0.200,0.360,-0.225,150.000,33.333,80.556,702.778,238.889,N
1766,-0.490,0.870,-0.330,166.667,66.667,363.889,430.556,272.222,N
1767,-0.235,0.765,-0.090,44.444,47.222,191.667,427.778,2.778,N
1768,0.050,0.935,0.110,66.667,72.222,172.222,855.556,427.778,j
1769,-0.295,0.480,-0.375,80.556,33.333,50.000,947.222,91.667,j
1770,0.005,1.070,0.175,169.444,77.778,255.556,1038.889,91.667,j
1771,0.110,0.715,-0.160,108.333,30.556,72.222,958.333,80.556,N
1772,-0.170,0.655,-0.040,116.667,33.333,336.111,922.222,36.111,N
1773,-0.010,0.855,-0.260,55.556,55.556,116.667,988.889,66.667,N
1774,0.165,0.995,0.065,108.333,100.000,275.000,833.333,155.556,N
1775,0.065,1.165,-0.055,194.444,83.333,91.667,413.889,419.444,A
1776,-0.345,0.445,-0.160,36.111,38.889,366.667,400.000,13.889,N
1777,-0.160,0.920,0.065,41.667,41.667,313.889,388.889,11.111,N
1778,-0.060,0.965,0.315,69.444,77.778,269.444,513.889,125.000,N
1779,0.065,0.840,0.120,169.444,36.111,80.556,580.556,66.667,N
1780,0.170,-0.655,-0.330,27.778,11.111,269.444,705.556,125.000,N
1781,-0.320,0.685,-0.110,113.889,69.444,255.556,472.222,233.333,N
1782,-0.110,0.665,0.015,77.778,36.111,175.000,513.889,41.667,N
1783,-0.070,0.775,0.030,83.333,77.778,141.667,488.889,25.000,N
1784,-0.115,0.600,-0.035,88.889,77.778,163.889,422.222,66.667,N
1785,-0.145,0.485,-0.055,102.778,77.778,136.111,447.222,25.000,N
1786,-0.305,0.300,-0.345,197.222,63.889,72.222,427.778,19.444,N
1787,-0.255,0.735,-0.160,113.889,41.667,222.222,986.111,558.333,N
1788,-0.105,0.850,-0.095,30.556,36.111,50.000,983.333,2.778,j
1789,-0.345,0.500,-0.225,33.333,33.333,352.778,1133.333,150.000,j
1790,0.220,1.100,0.030,122.222,77.778,86.111,969.444,163.889,N
1791,0.100,0.860,-0.215,113.889,63.889,72.222,1225.000,255.556,N
1792,0.135,0.920,-0.040,94.444,52.778,58.333,1200.000,25.000,N
1793,-0.130,1.005,-0.040,197.222,83.333,88.889,455.556,744.444,A
1794,-0.200,0.755,-0.035,183.333,63.889,238.889,1183.333,727.778,j
1795,-0.090,0.935,-0.050,41.667,63.889,75.000,511.111,672.222,A
1796,0.185,0.805,-0.200,111.111,88.889,280.556,863.889,352.778,N
1797,-0.315,0.575,-0.480,194.444,83.333,361.111,450.000,413.889,A
1798,-0.165,0.860,-0.065,44.444,80.556,369.444,616.667,166.667,N
1799,-0.025,0.850,0.020,94.444,66.667,125.000,466.667,150.000,N
1800,-0.030,0.775,0.015,122.222,58.333,83.333,461.111,5.556,N
1801,-0.125,-0.485,0.410,141.667,8.333,27.778,419.444,41.667,N
1802,-0.415,0.290,-0.340,133.333,50.000,366.667,391.667,27.778,N
1803,0.000,0.935,0.035,38.889,50.000,208.333,805.556,413.889,N
1804,0.020,0.720,0.040,88.889,36.111,161.111,752.778,52.778,N
1805,-0.195,0.235,-0.330,141.667,36.111,86.111,536.111,216.667,N
1806,-0.560,0.005,-0.425,141.667,75.000,363.889,430.556,105.556,N
1807,-0.395,0.500,-0.175,33.333,38.889,305.556,475.000,44.444,N
1808,0.110,0.915,0.250,63.889,111.111,283.333,1180.556,705.556,j
1809,0.085,0.935,0.145,58.333,72.222,86.111,897.222,283.333,j
1810,-0.230,0.485,-0.220,197.222,55.556,358.333,1036.111,138.889,j
1811,-0.070,0.640,-0.125,113.889,105.556,127.778,1266.667,230.556,j
1812,-0.380,0.325,-0.410,47.222,58.333,366.667,1269.444,2.778,j
1813,-0.065,0.560,-0.160,108.333,100.000,125.000,1141.667,127.778,N
1814,-0.255,0.500,-0.380,194.444,97.222,97.222,469.444,672.222,A
1815,-0.285,0.640,-0.070,58.333,113.889,291.667,1038.889,569.444,j
1816,-0.160,0.670,-0.065,63.889,102.778,108.333,463.889,575.000,A
1817,0.145,0.625,-0.140,119.444,111.111,122.222,752.778,288.889,N
1818,-0.255,0.405,-0.415,194.444,100.000,105.556,458.333,294.444,A
1819,-0.790,-0.300,-0.850,177.778,58.333,141.667,738.889,280.556,N
1820,-0.770,-0.220,-0.405,58.333,75.000,230.556,547.222,191.667,N
1821,-0.050,0.620,0.235,91.667,69.444,358.333,511.111,36.111,N
1822,0.235,1.225,0.430,97.222,100.000,275.000,408.333,102.778,N
1823,0.435,1.060,0.440,180.556,116.667,125.000,633.333,225.000,N
1824,0.335,0.770,0.330,113.889,36.111,108.333,597.222,36.111,N
1825,0.290,0.735,0.265,36.111,77.778,152.778,472.222,125.000,N
1826,0.145,0.715,0.045,180.556,116.667,241.667,530.556,58.333,N
1827,0.225,0.820,0.230,36.111,77.778,188.889,452.778,77.778,N
1828,0.185,0.675,0.230,33.333,63.889,155.556,550.000,97.222,N
1829,-0.015,0.895,-0.205,197.222,116.667,125.000,400.000,150.000,N
1830,0.030,0.730,0.075,63.889,94.444,241.667,1044.444,644.444,j
1831,0.025,0.625,0.015,77.778,80.556,102.778,1016.667,27.778,j
1832,-0.015,0.405,-0.145,122.222,100.000,119.444,988.889,27.778,N
1833,-0.090,0.320,-0.255,113.889,80.556,91.667,1213.889,225.000,N
1834,0.000,0.420,-0.165,127.778,97.222,119.444,1247.222,33.333,N
1835,-0.220,0.095,-0.330,122.222,77.778,291.667,1055.556,191.667,N
1836,-0.420,0.425,-0.365,58.333,116.667,372.222,469.444,586.111,A
1837,-0.245,0.275,-0.175,175.000,100.000,294.444,625.000,155.556,N
1838,-0.190,0.140,-0.170,197.222,63.889,122.222,452.778,172.222,N
1839,-0.160,0.310,-0.140,77.778,72.222,358.333,430.556,22.222,N
1840,-0.130,0.265,-0.105,47.222,72.222,130.556,450.000,19.444,N
1841,-0.195,0.225,-0.115,119.444,58.333,111.111,458.333,8.333,N
1842,-0.190,0.235,-0.130,41.667,69.444,111.111,438.889,19.444,N
1843,-0.205,0.205,-0.175,38.889,66.667,344.444,630.556,191.667,N
1844,-0.125,0.355,-0.065,61.111,113.889,225.000,575.000,55.556,N
1845,-0.095,0.350,-0.100,36.111,80.556,205.556,472.222,102.778,N
1846,-0.015,0.405,-0.060,144.444,100.000,272.222,1108.333,636.111,N
1847,-0.180,0.225,-0.190,58.333,33.333,41.667,1063.889,44.444,j
1848,-0.245,0.335,-0.275,130.556,102.778,141.667,1305.556,241.667,N
1849,-0.230,0.140,-0.435,108.333,63.889,72.222,1247.222,58.333,N
1850,0.175,0.800,0.070,116.667,100.000,122.222,1005.556,241.667,N
1851,0.010,0.440,-0.250,119.444,102.778,108.333,919.444,86.111,N
1852,-0.160,0.535,0.035,116.667,77.778,308.333,1044.444,125.000,N
1853,-0.035,1.130,0.035,58.333,111.111,113.889,458.333,586.111,A
1854,0.120,0.875,-0.035,88.889,83.333,108.333,1147.222,688.889,N
1855,-0.095,0.260,-0.350,122.222,33.333,44.444,1005.556,141.667,N
1856,-0.490,0.730,-0.120,197.222,116.667,405.556,441.667,563.889,A
1857,0.025,0.965,0.185,83.333,97.222,152.778,666.667,225.000,N
1858,0.065,1.130,0.110,80.556,69.444,122.222,397.222,269.444,N
1859,-0.090,0.430,-0.010,63.889,38.889,152.778,552.778,155.556,N
1860,-0.305,1.365,0.200,58.333,94.444,402.778,422.222,130.556,N
1861,0.345,1.035,0.200,144.444,72.222,294.444,1169.444,747.222,N
1862,-0.190,0.305,-0.220,113.889,33.333,119.444,919.444,250.000,N
1863,-0.110,0.665,-0.235,119.444,75.000,138.889,891.667,27.778,N
1864,-0.245,0.315,-0.365,111.111,69.444,97.222,838.889,52.778,N
1865,-0.300,0.440,-0.250,119.444,33.333,358.333,813.889,25.000,N
1866,-0.025,0.835,-0.090,125.000,66.667,144.444,830.556,16.667,N
1867,-0.160,0.335,-0.310,125.000,30.556,47.222,850.000,19.444,N
1868,0.095,0.860,-0.100,122.222,77.778,88.889,833.333,16.667,N
1869,0.185,0.725,-0.155,133.333,75.000,152.778,763.889,69.444,N
1870,-0.220,0.220,-0.120,119.444,30.556,225.000,869.444,105.556,N
1871,-0.180,1.330,-0.025,188.889,116.667,394.444,425.000,444.444,A
1872,0.075,1.100,0.070,155.556,55.556,100.000,1077.778,652.778,j
1873,-0.070,0.810,0.070,116.667,75.000,286.111,1072.222,5.556,N
1874,-0.040,1.015,-0.010,55.556,72.222,83.333,477.778,594.444,A
1875,-0.030,1.000,-0.040,169.444,94.444,108.333,694.444,216.667,N
1876,-0.120,0.990,-0.150,172.222,75.000,80.556,438.889,255.556,N
1877,-0.165,0.675,0.050,169.444,77.778,233.333,547.222,108.333,N
