id,Pamp,Ramp,Tamp,PR,QRS,QT,RRI,dRRI,label
1,0.075,1.480,0.320,133.333,116.667,330.556,1169.444,22.222,N
2,0.030,1.350,0.300,136.111,113.889,322.222,1122.222,47.222,N
3,-0.010,1.370,0.255,119.444,102.778,308.333,1069.444,52.778,N
4,0.005,1.325,0.255,144.444,113.889,311.111,1088.889,19.444,N
5,-0.015,1.245,0.210,136.111,116.667,341.667,1138.889,50.000,N
6,-0.095,1.285,0.165,138.889,97.222,325.000,1172.222,33.333,N
7,-0.085,1.285,0.190,130.556,116.667,327.778,1158.333,13.889,N
8,-0.130,1.340,0.140,127.778,97.222,322.222,1094.444,63.889,N
9,-0.170,1.170,0.130,130.556,116.667,325.000,1108.333,13.889,N
10,-0.205,1.195,0.085,133.333,113.889,322.222,1113.889,5.556,N
11,-0.190,1.080,0.090,144.444,113.889,341.667,1147.222,33.333,N
12,-0.205,1.155,0.085,144.444,111.111,322.222,1116.667,30.556,N
13,-0.120,1.135,0.135,133.333,116.667,325.000,1086.111,30.556,N
14,-0.145,1.110,0.150,136.111,111.111,319.444,1088.889,2.778,N
15,-0.135,1.200,0.125,127.778,113.889,325.000,1091.667,2.778,N
16,-0.165,1.155,0.110,133.333,113.889,341.667,1155.556,63.889,N
17,-0.175,1.265,0.145,155.556,116.667,352.778,1205.556,50.000,N
18,-0.115,1.215,0.145,138.889,102.778,325.000,1166.667,38.889,N
19,-0.105,1.255,0.185,125.000,102.778,325.000,1100.000,66.667,N
20,-0.125,1.230,0.190,127.778,111.111,327.778,1119.444,19.444,N
21,-0.130,1.290,0.145,136.111,116.667,341.667,1158.333,38.889,N
22,-0.085,1.290,0.200,136.111,113.889,341.667,1200.000,41.667,N
23,-0.200,0.100,0.555,144.444,77.778,341.667,658.333,541.667,V
24,-0.150,1.210,0.090,130.556,116.667,330.556,1538.889,880.556,N
25,-0.150,1.250,0.135,130.556,113.889,338.889,1083.333,455.556,N
26,-0.180,1.240,0.085,133.333,113.889,355.556,1086.111,2.778,N
27,-0.205,1.215,0.065,147.222,113.889,338.889,1130.556,44.444,N
28,-0.215,1.195,0.085,147.222,113.889,341.667,1133.333,2.778,N
29,-0.140,1.060,0.155,133.333,113.889,322.222,1083.333,50.000,N
30,-0.185,1.225,0.145,138.889,108.333,327.778,1091.667,8.333,N
31,-0.180,1.170,0.080,138.889,102.778,325.000,1100.000,8.333,N
32,-0.330,1.040,-0.020,141.667,116.667,336.111,1166.667,66.667,N
33,-0.060,1.435,0.225,130.556,116.667,344.444,1191.667,25.000,N
34,-0.070,1.335,0.095,127.778,113.889,327.778,1180.556,11.111,N
35,-0.095,1.375,0.045,133.333,116.667,322.222,1122.222,58.333,N
36,0.065,1.485,0.350,136.111,116.667,338.889,1119.444,2.778,N
37,0.000,1.465,0.200,136.111,113.889,355.556,1166.667,47.222,N
38,-0.015,1.460,0.230,141.667,113.889,350.000,1202.778,36.111,N
39,-0.110,1.320,0.125,122.222,105.556,325.000,1150.000,52.778,N
40,-0.175,1.345,0.055,144.444,102.778,311.111,1072.222,77.778,N
41,-0.235,1.120,0.050,141.667,105.556,325.000,1063.889,8.333,N
42,-0.240,1.350,0.025,141.667,113.889,344.444,1116.667,52.778,N
43,-0.230,1.175,0.075,133.333,116.667,325.000,1161.111,44.444,N
44,-0.210,1.335,0.100,144.444,113.889,325.000,1094.444,66.667,N
45,-0.205,1.310,0.110,122.222,102.778,311.111,1094.444,0.000,N
46,-0.185,1.310,0.150,122.222,102.778,311.111,1080.556,13.889,N
47,-0.110,1.365,0.200,138.889,105.556,327.778,1116.667,36.111,N
48,-0.105,1.245,0.165,133.333,116.667,341.667,1163.889,47.222,N
49,-0.170,1.260,0.095,133.333,116.667,341.667,1180.556,16.667,N
50,-0.195,1.205,0.085,130.556,111.111,322.222,1180.556,0.000,N
51,-0.155,1.310,0.115,122.222,116.667,319.444,1108.333,72.222,N
52,-0.145,1.240,0.110,125.000,113.889,333.333,1102.778,5.556,N
53,-0.140,1.115,0.130,138.889,113.889,352.778,1180.556,77.778,N
54,-0.120,1.290,0.135,144.444,102.778,344.444,1188.889,8.333,N
55,-0.125,1.155,0.110,127.778,108.333,327.778,1166.667,22.222,N
56,-0.155,1.165,0.095,119.444,116.667,319.444,1111.111,55.556,N
57,-0.160,1.180,0.120,130.556,113.889,336.111,1113.889,2.778,N
58,-0.150,1.155,0.080,133.333,113.889,341.667,1183.333,69.444,N
59,-0.200,1.245,0.045,144.444,116.667,341.667,1180.556,2.778,N
60,-0.280,1.025,0.020,136.111,113.889,338.889,1138.889,41.667,N
61,-0.205,1.170,0.065,127.778,111.111,311.111,1091.667,47.222,N
62,-0.220,1.100,0.050,127.778,111.111,322.222,1083.333,8.333,N
63,-0.245,1.145,0.005,133.333,113.889,338.889,1122.222,38.889,N
64,-0.235,1.100,0.035,138.889,116.667,336.111,1172.222,50.000,N
65,-0.225,1.120,0.075,133.333,111.111,336.111,1158.333,13.889,N
66,-0.215,1.100,0.085,127.778,100.000,308.333,1147.222,11.111,N
67,-0.245,1.235,0.085,122.222,113.889,319.444,1094.444,52.778,N
68,-0.160,1.050,0.090,130.556,113.889,327.778,1108.333,13.889,N
69,-0.185,1.135,0.085,136.111,116.667,341.667,1172.222,63.889,N
70,-0.190,1.095,0.080,133.333,116.667,341.667,1197.222,25.000,N
71,-0.215,1.180,0.075,136.111,116.667,325.000,1152.778,44.444,N
72,-0.160,1.100,0.115,125.000,105.556,308.333,1105.556,47.222,N
73,-0.175,1.175,0.130,125.000,108.333,344.444,1102.778,2.778,N
74,-0.150,1.195,0.165,133.333,116.667,344.444,1222.222,119.444,N
75,-0.125,1.255,0.170,133.333,116.667,338.889,1186.111,36.111,N
76,-0.130,1.240,0.135,136.111,116.667,322.222,1100.000,86.111,N
77,-0.185,1.085,0.120,130.556,113.889,319.444,1066.667,33.333,N
78,-0.200,1.065,0.135,136.111,113.889,338.889,1066.667,0.000,N
79,-0.185,1.190,0.140,133.333,113.889,338.889,1083.333,16.667,N
80,-0.150,1.195,0.140,136.111,116.667,336.111,1116.667,33.333,N
81,-0.195,1.165,0.110,138.889,111.111,330.556,1102.778,13.889,N
82,-0.195,1.115,0.070,127.778,105.556,311.111,1102.778,0.000,N
83,-0.275,1.025,0.020,147.222,111.111,311.111,1072.222,30.556,N
84,-0.235,1.155,0.085,141.667,108.333,325.000,1080.556,8.333,N
85,-0.205,1.035,0.085,127.778,108.333,327.778,1147.222,66.667,N
86,-0.240,1.095,0.045,141.667,113.889,327.778,1169.444,22.222,N
87,-0.180,1.150,0.105,138.889,105.556,313.889,1144.444,25.000,N
88,-0.245,1.000,0.035,125.000,102.778,308.333,1069.444,75.000,N
89,-0.245,1.055,0.070,138.889,113.889,319.444,1063.889,5.556,N
90,-0.225,1.035,0.070,141.667,111.111,341.667,1136.111,72.222,N
91,-0.215,1.230,0.145,147.222,111.111,341.667,1152.778,16.667,N
92,-0.085,1.225,0.185,138.889,111.111,325.000,1130.556,22.222,N
93,-0.145,1.315,0.215,122.222,111.111,319.444,1113.889,16.667,N
94,-0.105,1.255,0.225,125.000,111.111,325.000,1088.889,25.000,N
95,-0.110,1.355,0.230,138.889,105.556,344.444,1147.222,58.333,N
96,-0.025,1.375,0.285,141.667,105.556,341.667,1183.333,36.111,N
97,-0.020,1.320,0.275,133.333,116.667,341.667,1158.333,25.000,N
98,-0.020,1.380,0.275,144.444,111.111,325.000,1127.778,30.556,N
99,-0.005,1.405,0.265,133.333,116.667,327.778,1086.111,41.667,N
100,-0.055,1.270,0.220,127.778,113.889,327.778,1080.556,5.556,N
101,-0.035,1.420,0.230,147.222,113.889,341.667,1136.111,55.556,N
102,-0.065,1.275,0.270,144.444,116.667,347.222,1150.000,13.889,N
103,-0.070,1.295,0.230,144.444,111.111,325.000,1147.222,2.778,N
104,-0.070,1.320,0.245,116.667,116.667,325.000,1088.889,58.333,N
105,-0.100,1.160,0.185,122.222,102.778,327.778,1088.889,0.000,N
106,-0.085,1.305,0.235,144.444,116.667,344.444,1141.667,52.778,N
107,-0.080,1.235,0.190,136.111,116.667,341.667,1188.889,47.222,N
108,-0.160,1.280,0.180,130.556,116.667,325.000,1147.222,41.667,N
109,-0.100,1.225,0.205,130.556,116.667,327.778,1097.222,50.000,N
110,-0.135,1.230,0.165,125.000,111.111,322.222,1094.444,2.778,N
111,-0.160,1.170,0.125,144.444,111.111,344.444,1136.111,41.667,N
112,-0.165,1.185,0.165,141.667,111.111,330.556,1197.222,61.111,N
113,-0.130,1.195,0.160,141.667,111.111,325.000,1166.667,30.556,N
114,-0.175,1.115,0.120,130.556,113.889,322.222,1138.889,27.778,N
115,-0.170,1.190,0.150,130.556,111.111,322.222,1113.889,25.000,N
116,-0.180,1.140,0.085,133.333,116.667,338.889,1122.222,8.333,N
117,-0.220,1.185,0.055,138.889,113.889,352.778,1152.778,30.556,N
118,-0.185,1.160,0.145,133.333,113.889,341.667,1177.778,25.000,N
119,-0.180,1.200,0.110,133.333,116.667,327.778,1133.333,44.444,N
120,-0.240,1.095,0.050,130.556,113.889,325.000,1097.222,36.111,N
121,-0.255,1.155,0.040,133.333,116.667,325.000,1086.111,11.111,N
122,-0.210,1.095,0.110,147.222,113.889,344.444,1130.556,44.444,N
123,-0.170,1.155,0.105,144.444,111.111,325.000,1197.222,66.667,N
124,-0.160,1.155,0.085,141.667,113.889,313.889,1147.222,50.000,N
125,-0.210,1.095,0.105,122.222,108.333,308.333,1083.333,63.889,N
126,-0.150,1.145,0.170,130.556,113.889,322.222,1088.889,5.556,N
127,-0.105,1.110,0.190,138.889,113.889,338.889,1141.667,52.778,N
128,-0.145,1.115,0.130,136.111,116.667,338.889,1213.889,72.222,N
129,-0.205,1.015,0.065,138.889,113.889,319.444,1186.111,27.778,N
130,-0.215,1.050,0.065,136.111,116.667,322.222,1130.556,55.556,N
131,-0.180,1.080,0.065,130.556,116.667,325.000,1147.222,16.667,N
132,-0.235,1.055,0.065,147.222,113.889,341.667,1163.889,16.667,N
133,-0.210,1.030,0.040,133.333,113.889,338.889,1188.889,25.000,N
134,-0.215,1.145,0.055,144.444,113.889,327.778,1175.000,13.889,N
135,-0.180,1.090,0.105,122.222,113.889,319.444,1108.333,66.667,N
136,-0.165,1.215,0.085,130.556,105.556,305.556,1091.667,16.667,N
137,-0.170,1.140,0.090,133.333,113.889,336.111,1086.111,5.556,N
138,-0.215,1.110,0.080,138.889,116.667,341.667,1138.889,52.778,N
139,-0.160,1.225,0.140,147.222,116.667,341.667,1177.778,38.889,N
140,-0.145,1.230,0.185,136.111,113.889,322.222,1122.222,55.556,N
141,-0.140,1.225,0.155,127.778,116.667,327.778,1077.778,44.444,N
142,-0.100,1.225,0.185,133.333,113.889,336.111,1105.556,27.778,N
143,-0.145,1.100,0.115,161.111,116.667,347.222,1172.222,66.667,N
144,-0.170,1.230,0.085,150.000,116.667,347.222,1205.556,33.333,N
145,-0.225,1.075,0.045,141.667,111.111,325.000,1161.111,44.444,N
146,-0.235,1.135,0.040,127.778,116.667,327.778,1086.111,75.000,N
147,-0.245,1.070,0.050,58.333,102.778,327.778,1111.111,25.000,N
148,-0.245,1.120,0.055,141.667,105.556,344.444,1133.333,22.222,N
149,-0.195,1.120,0.060,144.444,111.111,344.444,1169.444,36.111,N
150,-0.250,1.160,0.015,136.111,116.667,336.111,1158.333,11.111,N
151,-0.230,1.165,0.030,133.333,116.667,325.000,1116.667,41.667,N
152,-0.275,1.135,0.010,127.778,113.889,325.000,1111.111,5.556,N
153,-0.250,1.185,0.005,147.222,113.889,344.444,1130.556,19.444,N
154,-0.285,1.175,0.070,144.444,111.111,344.444,1166.667,36.111,N
155,-0.205,1.130,0.090,147.222,111.111,341.667,1183.333,16.667,N
156,-0.170,1.275,0.080,133.333,113.889,319.444,1125.000,58.333,N
157,-0.205,1.145,0.080,130.556,116.667,322.222,1066.667,58.333,N
158,-0.165,1.320,0.140,136.111,116.667,338.889,1066.667,0.000,N
159,-0.160,1.215,0.125,147.222,116.667,358.333,1130.556,63.889,N
160,-0.155,1.185,0.120,141.667,111.111,347.222,1191.667,61.111,N
161,-0.270,1.235,-0.010,141.667,111.111,336.111,1130.556,61.111,N
162,-0.315,1.045,0.000,133.333,113.889,322.222,1077.778,52.778,N
163,-0.255,1.210,0.000,136.111,116.667,338.889,1102.778,25.000,N
164,-0.235,1.210,0.070,147.222,113.889,355.556,1180.556,77.778,N
165,-0.240,1.135,0.070,144.444,113.889,344.444,1194.444,13.889,N
166,-0.200,1.240,0.080,136.111,113.889,338.889,1158.333,36.111,N
167,-0.205,1.185,0.100,127.778,111.111,325.000,1108.333,50.000,N
168,-0.235,1.340,0.010,133.333,116.667,327.778,1105.556,2.778,N
169,-0.395,1.125,0.205,58.333,113.889,341.667,1144.444,38.889,N
170,0.075,1.595,0.320,130.556,113.889,327.778,1166.667,22.222,N
171,-0.015,1.345,0.220,141.667,108.333,347.222,1163.889,2.778,N
172,-0.140,1.345,0.120,130.556,113.889,325.000,1136.111,27.778,N
173,-0.120,1.220,0.185,133.333,116.667,322.222,1075.000,61.111,N
174,-0.185,1.200,0.135,141.667,116.667,350.000,1105.556,30.556,N
175,-0.180,1.180,0.115,136.111,113.889,355.556,1161.111,55.556,N
176,-0.185,1.150,0.120,150.000,113.889,344.444,1194.444,33.333,N
177,-0.155,1.200,0.150,130.556,113.889,325.000,1150.000,44.444,N
178,-0.185,1.085,0.080,122.222,100.000,311.111,1094.444,55.556,N
179,-0.225,1.155,0.080,138.889,105.556,341.667,1113.889,19.444,N
180,-0.165,1.215,0.130,138.889,113.889,350.000,1216.667,102.778,N
181,-0.195,1.330,0.090,133.333,116.667,341.667,1208.333,8.333,N
182,-0.160,1.170,0.110,138.889,113.889,341.667,1172.222,36.111,N
183,-0.180,1.285,0.095,122.222,105.556,325.000,1119.444,52.778,N
184,-0.140,1.250,0.150,141.667,111.111,341.667,1136.111,16.667,N
185,-0.115,1.150,0.130,147.222,113.889,341.667,1188.889,52.778,N
186,-0.170,1.165,0.090,133.333,113.889,355.556,1166.667,22.222,N
187,-0.135,1.230,0.145,130.556,116.667,341.667,1166.667,0.000,N
188,-0.150,1.230,0.105,127.778,113.889,327.778,1080.556,86.111,N
189,-0.105,1.205,0.120,127.778,113.889,325.000,1066.667,13.889,N
190,-0.145,1.070,0.110,136.111,113.889,352.778,1108.333,41.667,N
191,-0.170,0.970,0.060,133.333,116.667,355.556,1180.556,72.222,N
192,-0.220,1.085,0.010,138.889,113.889,336.111,1169.444,11.111,N
193,-0.260,1.115,-0.005,133.333,116.667,319.444,1113.889,55.556,N
194,-0.325,1.045,-0.040,133.333,116.667,325.000,1063.889,50.000,N
195,-0.240,1.050,0.045,136.111,116.667,355.556,1102.778,38.889,N
196,-0.310,1.040,-0.030,133.333,113.889,341.667,1166.667,63.889,N
197,-0.275,1.055,0.015,138.889,108.333,333.333,1152.778,13.889,N
198,-0.275,1.120,0.030,141.667,102.778,325.000,1122.222,30.556,N
199,-0.305,0.030,0.475,136.111,97.222,308.333,625.000,497.222,V
200,-0.200,1.135,0.040,133.333,116.667,358.333,1513.889,888.889,N
201,-0.230,1.135,0.025,138.889,116.667,347.222,1141.667,372.222,N
202,-0.165,1.190,0.140,130.556,111.111,341.667,1152.778,11.111,N
203,-0.170,1.265,0.075,147.222,111.111,336.111,1136.111,16.667,N
204,-0.200,1.205,0.100,130.556,116.667,325.000,1102.778,33.333,N
205,-0.155,1.180,0.180,130.556,116.667,325.000,1083.333,19.444,N
206,-0.095,1.170,0.145,127.778,111.111,341.667,1127.778,44.444,N
207,-0.155,1.105,0.115,141.667,102.778,338.889,1180.556,52.778,N
208,-0.185,1.230,0.085,138.889,113.889,336.111,1180.556,0.000,N
209,-0.170,1.160,0.120,119.444,116.667,325.000,1127.778,52.778,N
210,-0.135,1.145,0.135,127.778,102.778,313.889,1091.667,36.111,N
211,-0.165,1.225,0.165,133.333,113.889,341.667,1091.667,0.000,N
212,-0.115,1.255,0.195,133.333,116.667,344.444,1197.222,105.556,N
213,-0.140,1.230,0.105,136.111,116.667,322.222,1172.222,25.000,N
214,-0.265,0.110,0.560,69.444,97.222,325.000,650.000,522.222,V
215,-0.175,1.100,0.085,119.444,102.778,311.111,1500.000,850.000,N
216,-0.215,1.185,0.035,130.556,113.889,327.778,1058.333,441.667,N
217,-0.200,1.135,0.050,144.444,105.556,325.000,1130.556,72.222,N
218,-0.200,1.205,0.090,144.444,113.889,341.667,1102.778,27.778,N
219,-0.170,1.210,0.145,133.333,113.889,338.889,1102.778,0.000,N
220,-0.175,1.285,0.135,144.444,116.667,327.778,1100.000,2.778,N
221,-0.175,1.200,0.170,125.000,102.778,325.000,1075.000,25.000,N
222,-0.160,1.215,0.115,136.111,116.667,336.111,1113.889,38.889,N
223,-0.165,1.195,0.085,147.222,116.667,358.333,1177.778,63.889,N
224,-0.210,1.120,0.055,144.444,105.556,341.667,1177.778,0.000,N
225,-0.270,1.190,-0.015,125.000,102.778,325.000,1147.222,30.556,N
226,-0.375,1.050,-0.025,130.556,116.667,325.000,1091.667,55.556,N
227,-0.200,1.255,0.075,136.111,116.667,338.889,1069.444,22.222,N
228,-0.170,1.215,0.110,136.111,116.667,358.333,1150.000,80.556,N
229,-0.150,1.295,0.145,141.667,102.778,341.667,1191.667,41.667,N
230,-0.125,1.275,0.170,133.333,113.889,325.000,1138.889,52.778,N
231,-0.110,1.270,0.130,130.556,116.667,325.000,1100.000,38.889,N
232,-0.215,1.045,0.100,127.778,111.111,338.889,1080.556,19.444,N
233,-0.225,0.130,0.620,55.556,63.889,327.778,644.444,436.111,V
234,-0.095,1.220,0.155,136.111,116.667,358.333,1594.444,950.000,N
235,-0.135,1.265,0.120,150.000,116.667,325.000,1116.667,477.778,N
236,-0.185,1.160,0.100,136.111,113.889,319.444,1052.778,63.889,N
237,-0.190,1.290,0.120,136.111,113.889,322.222,1050.000,2.778,N
238,-0.145,1.330,0.150,144.444,113.889,325.000,1077.778,27.778,N
239,-0.190,1.155,0.115,144.444,111.111,338.889,1130.556,52.778,N
240,-0.190,1.260,0.095,147.222,113.889,327.778,1133.333,2.778,N
241,-0.160,1.210,0.165,138.889,111.111,325.000,1130.556,2.778,N
242,-0.165,1.330,0.135,136.111,116.667,322.222,1108.333,22.222,N
243,-0.100,1.340,0.215,136.111,113.889,319.444,1086.111,22.222,N
244,-0.100,1.205,0.160,138.889,113.889,338.889,1133.333,47.222,N
245,-0.105,1.205,0.195,147.222,116.667,355.556,1194.444,61.111,N
246,-0.130,1.160,0.185,136.111,116.667,322.222,1172.222,22.222,N
247,-0.160,1.205,0.160,127.778,111.111,308.333,1091.667,80.556,N
248,-0.075,1.190,0.220,138.889,116.667,319.444,1108.333,16.667,N
249,-0.055,1.195,0.215,150.000,113.889,341.667,1144.444,36.111,N
250,-0.065,1.315,0.245,141.667,108.333,330.556,1211.111,66.667,N
251,-0.025,1.295,0.285,133.333,116.667,338.889,1175.000,36.111,N
252,-0.050,1.365,0.260,127.778,113.889,325.000,1111.111,63.889,N
253,-0.035,1.255,0.265,130.556,113.889,325.000,1116.667,5.556,N
254,-0.085,1.205,0.225,147.222,113.889,341.667,1133.333,16.667,N
255,-0.110,1.255,0.175,147.222,113.889,344.444,1166.667,33.333,N
256,-0.170,1.135,0.115,136.111,116.667,338.889,1172.222,5.556,N
257,-0.215,1.180,0.110,136.111,108.333,316.667,1119.444,52.778,N
258,-0.160,1.245,0.145,144.444,111.111,325.000,1105.556,13.889,N
259,-0.195,1.220,0.095,136.111,113.889,341.667,1094.444,11.111,N
260,-0.375,0.985,0.175,122.222,113.889,352.778,1166.667,72.222,N
261,-0.025,1.405,0.265,144.444,113.889,344.444,1205.556,38.889,N
262,-0.070,1.285,0.190,136.111,113.889,322.222,1161.111,44.444,N
263,-0.115,1.195,0.215,133.333,116.667,327.778,1094.444,66.667,N
264,-0.095,1.180,0.195,125.000,102.778,338.889,1091.667,2.778,N
265,-0.040,1.190,0.260,152.778,113.889,355.556,1144.444,52.778,N
266,-0.050,1.320,0.240,138.889,113.889,352.778,1169.444,25.000,N
267,-0.045,1.260,0.220,136.111,113.889,322.222,1127.778,41.667,N
268,-0.110,1.210,0.160,133.333,116.667,322.222,1052.778,75.000,N
269,-0.090,1.205,0.195,138.889,102.778,325.000,1069.444,16.667,N
270,-0.140,1.165,0.145,136.111,116.667,341.667,1147.222,77.778,N
271,-0.170,1.220,0.155,138.889,113.889,336.111,1169.444,22.222,N
272,-0.140,1.070,0.170,133.333,113.889,338.889,1127.778,41.667,N
273,-0.150,1.195,0.165,125.000,105.556,322.222,1125.000,2.778,N
274,-0.080,1.245,0.210,125.000,111.111,325.000,1116.667,8.333,N
275,-0.160,1.255,0.140,133.333,116.667,341.667,1141.667,25.000,N
276,-0.060,1.285,0.240,138.889,102.778,327.778,1188.889,47.222,N
277,-0.060,1.320,0.200,136.111,113.889,338.889,1211.111,22.222,N
278,-0.095,1.385,0.175,136.111,113.889,325.000,1169.444,41.667,N
279,-0.040,1.365,0.255,133.333,116.667,325.000,1111.111,58.333,N
280,-0.080,1.240,0.210,133.333,113.889,338.889,1119.444,8.333,N
281,-0.075,1.305,0.235,147.222,111.111,341.667,1177.778,58.333,N
282,-0.030,1.375,0.270,150.000,116.667,341.667,1202.778,25.000,N
283,-0.075,1.335,0.255,130.556,113.889,325.000,1147.222,55.556,N
284,-0.040,1.335,0.255,127.778,108.333,319.444,1100.000,47.222,N
285,-0.080,1.275,0.210,130.556,113.889,341.667,1116.667,16.667,N
286,-0.070,1.300,0.230,144.444,111.111,341.667,1197.222,80.556,N
287,-0.050,1.390,0.220,133.333,116.667,344.444,1188.889,8.333,N
288,-0.090,1.280,0.240,144.444,113.889,327.778,1177.778,11.111,N
289,-0.100,1.335,0.250,127.778,113.889,325.000,1136.111,41.667,N
290,-0.085,1.255,0.185,147.222,116.667,325.000,1136.111,0.000,N
291,-0.100,1.270,0.170,150.000,116.667,344.444,1180.556,44.444,N
292,-0.100,1.200,0.205,136.111,116.667,341.667,1202.778,22.222,N
293,-0.165,0.195,0.580,155.556,69.444,341.667,702.778,500.000,V
294,-0.080,1.245,0.135,125.000,111.111,327.778,1638.889,936.111,N
295,-0.150,1.270,0.180,69.444,111.111,336.111,1111.111,527.778,N
296,-0.045,1.180,0.205,136.111,116.667,341.667,1147.222,36.111,N
297,-0.005,1.215,0.325,147.222,113.889,341.667,1197.222,50.000,N
298,0.020,1.370,0.305,138.889,105.556,341.667,1191.667,5.556,N
299,0.075,1.335,0.355,136.111,113.889,322.222,1130.556,61.111,N
300,-0.065,1.280,0.195,133.333,116.667,325.000,1094.444,36.111,N
301,0.035,1.310,0.320,150.000,116.667,355.556,1152.778,58.333,N
302,-0.040,1.215,0.180,152.778,116.667,355.556,1200.000,47.222,N
303,-0.085,1.165,0.205,136.111,113.889,338.889,1163.889,36.111,N
304,-0.085,1.035,0.160,136.111,113.889,319.444,1136.111,27.778,N
305,-0.210,1.045,0.100,141.667,100.000,311.111,1088.889,47.222,N
306,-0.160,0.990,0.130,141.667,108.333,325.000,1116.667,27.778,N
307,-0.160,1.095,0.150,150.000,116.667,341.667,1158.333,41.667,N
308,-0.075,1.125,0.195,144.444,113.889,344.444,1161.111,2.778,N
309,-0.145,1.085,0.165,141.667,108.333,325.000,1163.889,2.778,N
310,-0.155,1.110,0.145,127.778,113.889,325.000,1102.778,61.111,N
311,-0.130,1.105,0.180,136.111,116.667,322.222,1088.889,13.889,N
312,-0.105,1.145,0.180,152.778,116.667,341.667,1150.000,61.111,N
313,-0.135,1.055,0.160,138.889,111.111,330.556,1188.889,38.889,N
314,-0.180,1.160,0.095,136.111,116.667,325.000,1177.778,11.111,N
315,-0.150,1.085,0.130,127.778,113.889,325.000,1094.444,83.333,N
316,-0.185,1.140,0.100,127.778,105.556,327.778,1063.889,30.556,N
317,-0.105,1.170,0.175,150.000,116.667,355.556,1125.000,61.111,N
318,-0.115,1.180,0.200,144.444,108.333,341.667,1175.000,50.000,N
319,-0.065,1.190,0.270,133.333,116.667,341.667,1138.889,36.111,N
320,-0.030,1.150,0.250,144.444,105.556,325.000,1111.111,27.778,N
321,-0.050,1.220,0.235,138.889,102.778,311.111,1077.778,33.333,N
322,-0.060,1.180,0.230,138.889,113.889,352.778,1133.333,55.556,N
323,-0.120,1.090,0.180,141.667,102.778,344.444,1202.778,69.444,N
324,-0.120,1.180,0.210,125.000,102.778,338.889,1183.333,19.444,N
325,-0.095,1.215,0.185,133.333,113.889,325.000,1175.000,8.333,N
326,-0.130,1.225,0.140,133.333,113.889,322.222,1116.667,58.333,N
327,-0.155,1.140,0.095,125.000,108.333,322.222,1111.111,5.556,N
328,-0.150,1.215,0.180,141.667,113.889,344.444,1169.444,58.333,N
329,-0.080,1.150,0.155,138.889,116.667,338.889,1191.667,22.222,N
330,-0.180,1.195,0.110,144.444,113.889,325.000,1158.333,33.333,N
331,-0.140,1.180,0.190,136.111,116.667,322.222,1088.889,69.444,N
332,-0.180,1.275,0.090,141.667,100.000,322.222,1055.556,33.333,N
333,-0.220,1.160,0.135,144.444,111.111,358.333,1136.111,80.556,N
334,-0.150,1.355,0.165,152.778,113.889,338.889,1141.667,5.556,N
335,-0.195,1.215,0.085,130.556,116.667,327.778,1113.889,27.778,N
336,-0.240,1.220,0.070,127.778,111.111,322.222,1063.889,50.000,N
337,-0.205,1.185,0.090,130.556,113.889,325.000,1066.667,2.778,N
338,-0.170,1.155,0.130,133.333,116.667,338.889,1122.222,55.556,N
339,-0.200,1.120,0.075,141.667,111.111,338.889,1208.333,86.111,N
340,-0.185,1.120,0.085,127.778,111.111,341.667,1200.000,8.333,N
341,-0.280,0.995,0.055,55.556,102.778,327.778,1177.778,22.222,N
342,-0.190,1.070,0.065,125.000,102.778,325.000,1152.778,25.000,N
343,-0.245,1.065,-0.015,122.222,102.778,330.556,1130.556,22.222,N
344,-0.185,1.065,0.025,141.667,108.333,341.667,1169.444,38.889,N
345,-0.190,1.100,0.035,138.889,105.556,341.667,1183.333,13.889,N
346,-0.115,1.180,0.125,133.333,116.667,341.667,1158.333,25.000,N
347,-0.175,1.210,0.095,133.333,116.667,325.000,1100.000,58.333,N
348,-0.190,1.170,0.095,136.111,116.667,322.222,1086.111,13.889,N
349,-0.185,1.065,0.055,138.889,113.889,350.000,1136.111,50.000,N
350,-0.270,1.135,0.025,136.111,116.667,341.667,1194.444,58.333,N
351,-0.185,1.135,0.105,133.333,116.667,322.222,1150.000,44.444,N
352,-0.200,1.070,0.050,116.667,116.667,325.000,1100.000,50.000,N
353,-0.130,1.075,0.090,183.333,113.889,305.556,752.778,347.222,A
354,-0.160,1.135,0.155,136.111,116.667,341.667,1166.667,413.889,N
355,-0.140,1.235,0.165,150.000,116.667,344.444,1247.222,80.556,N
356,-0.075,1.225,0.230,152.778,116.667,341.667,1233.333,13.889,N
357,-0.095,1.265,0.130,127.778,111.111,325.000,1177.778,55.556,N
358,-0.140,1.085,0.100,138.889,105.556,311.111,1194.444,16.667,N
359,-0.245,1.205,-0.025,150.000,113.889,341.667,1191.667,2.778,N
360,-0.190,1.215,0.150,150.000,116.667,338.889,1202.778,11.111,N
361,-0.025,1.145,0.225,127.778,111.111,325.000,1194.444,8.333,N
362,-0.125,1.095,0.275,61.111,113.889,325.000,1169.444,25.000,N
363,-0.145,1.190,0.065,136.111,111.111,319.444,1075.000,94.444,N
364,-0.170,1.020,0.025,144.444,113.889,327.778,1022.222,52.778,N
365,-0.210,1.095,0.050,66.667,116.667,341.667,1055.556,33.333,N
366,-0.215,1.060,0.040,152.778,108.333,350.000,1105.556,50.000,N
367,-0.155,1.285,0.170,136.111,116.667,341.667,1127.778,22.222,N
368,-0.140,1.135,0.160,127.778,116.667,327.778,1097.222,30.556,N
369,-0.110,1.180,0.165,133.333,116.667,341.667,1102.778,5.556,N
370,-0.060,1.140,0.230,138.889,111.111,344.444,1141.667,38.889,N
371,-0.050,1.055,0.190,141.667,105.556,344.444,1216.667,75.000,N
372,-0.070,1.170,0.180,136.111,113.889,336.111,1177.778,38.889,N
373,-0.080,1.095,0.145,130.556,113.889,322.222,1111.111,66.667,N
374,-0.140,1.065,0.120,136.111,116.667,338.889,1105.556,5.556,N
375,-0.130,1.075,0.135,138.889,100.000,341.667,1136.111,30.556,N
376,-0.110,1.190,0.200,136.111,116.667,355.556,1177.778,41.667,N
377,-0.075,1.195,0.215,130.556,111.111,341.667,1180.556,2.778,N
378,-0.135,1.185,0.250,127.778,113.889,325.000,1133.333,47.222,N
379,-0.165,0.135,0.620,125.000,63.889,308.333,613.889,519.444,V
380,0.010,1.220,0.250,141.667,102.778,341.667,1563.889,950.000,N
381,-0.090,1.230,0.140,147.222,113.889,338.889,1144.444,419.444,N
382,-0.120,1.160,0.145,136.111,116.667,352.778,1133.333,11.111,N
383,-0.085,1.150,0.225,138.889,100.000,325.000,1122.222,11.111,N
384,-0.115,1.125,0.240,133.333,116.667,322.222,1058.333,63.889,N
385,-0.100,1.195,0.165,144.444,116.667,327.778,1061.111,2.778,N
386,-0.140,1.180,0.235,141.667,116.667,347.222,1113.889,52.778,N
387,-0.180,1.280,0.110,136.111,113.889,338.889,1177.778,63.889,N
388,-0.220,1.205,0.120,130.556,116.667,325.000,1161.111,16.667,N
389,-0.240,1.285,0.030,133.333,116.667,325.000,1102.778,58.333,N
390,-0.220,1.240,0.130,133.333,116.667,327.778,1097.222,5.556,N
391,-0.100,1.250,0.180,147.222,111.111,341.667,1147.222,50.000,N
392,-0.160,1.150,0.105,141.667,105.556,330.556,1180.556,33.333,N
393,-0.225,0.995,0.050,133.333,116.667,338.889,1158.333,22.222,N
394,-0.185,1.145,0.080,130.556,116.667,327.778,1130.556,27.778,N
395,-0.235,1.140,0.075,144.444,105.556,327.778,1097.222,33.333,N
396,-0.200,1.165,0.115,133.333,116.667,341.667,1105.556,8.333,N
397,-0.215,1.140,0.055,136.111,113.889,338.889,1152.778,47.222,N
398,-0.240,1.065,0.035,147.222,113.889,344.444,1175.000,22.222,N
399,-0.470,0.995,-0.155,138.889,105.556,316.667,1144.444,30.556,N
400,-0.125,1.325,0.315,58.333,105.556,308.333,1086.111,58.333,N
401,-0.005,1.235,0.265,136.111,102.778,322.222,1080.556,5.556,N
402,-0.165,1.145,0.075,130.556,113.889,344.444,1141.667,61.111,N
403,-0.180,0.995,0.080,144.444,111.111,341.667,1197.222,55.556,N
404,-0.175,1.100,0.095,147.222,116.667,327.778,1186.111,11.111,N
405,-0.200,1.160,0.100,127.778,108.333,308.333,1113.889,72.222,N
406,-0.140,1.225,0.165,133.333,116.667,338.889,1105.556,8.333,N
407,-0.150,1.120,0.110,138.889,105.556,341.667,1175.000,69.444,N
408,-0.175,1.070,0.110,141.667,111.111,338.889,1202.778,27.778,N
409,-0.175,1.100,0.120,141.667,113.889,344.444,1150.000,52.778,N
410,-0.235,0.995,-0.030,141.667,102.778,325.000,1097.222,52.778,N
411,-0.220,1.015,0.095,133.333,113.889,325.000,1077.778,19.444,N
412,-0.155,1.100,0.160,136.111,116.667,338.889,1100.000,22.222,N
413,-0.180,1.210,0.040,138.889,111.111,338.889,1136.111,36.111,N
414,-0.490,1.225,0.050,63.889,113.889,341.667,1125.000,11.111,N
415,-0.250,0.200,0.840,97.222,116.667,341.667,700.000,425.000,V
416,-0.010,1.510,0.250,69.444,116.667,322.222,1455.556,755.556,N
417,-0.105,1.360,0.045,133.333,116.667,308.333,1030.556,425.000,N
418,-0.680,0.970,-0.200,150.000,113.889,338.889,1066.667,36.111,N
419,0.120,1.750,0.460,61.111,108.333,322.222,1077.778,11.111,N
420,0.125,1.420,0.350,141.667,102.778,325.000,1077.778,0.000,N
421,-0.125,1.280,0.190,133.333,116.667,311.111,1044.444,33.333,N
422,-0.085,1.130,0.155,133.333,113.889,319.444,1022.222,22.222,N
423,-0.220,1.120,0.145,147.222,113.889,341.667,1058.333,36.111,N
424,-0.250,1.085,0.085,133.333,113.889,341.667,1136.111,77.778,N
425,-0.205,1.165,0.050,152.778,116.667,338.889,1119.444,16.667,N
426,-0.180,1.180,0.140,133.333,116.667,325.000,1113.889,5.556,N
427,-0.180,1.090,0.050,141.667,102.778,322.222,1058.333,55.556,N
428,-0.235,1.005,0.005,127.778,113.889,322.222,1072.222,13.889,N
429,-0.265,1.030,0.025,147.222,116.667,341.667,1102.778,30.556,N
430,-0.245,0.955,0.025,138.889,113.889,336.111,1138.889,36.111,N
431,-0.220,1.125,0.075,136.111,116.667,338.889,1147.222,8.333,N
432,-0.140,1.145,0.170,127.778,113.889,313.889,1125.000,22.222,N
433,-0.110,1.340,0.190,125.000,102.778,311.111,1080.556,44.444,N
434,-0.110,1.220,0.180,133.333,105.556,330.556,1097.222,16.667,N
435,-0.150,1.315,0.140,144.444,111.111,341.667,1155.556,58.333,N
436,-0.065,1.250,0.205,138.889,116.667,352.778,1194.444,38.889,N
437,-0.090,1.300,0.190,122.222,97.222,305.556,1150.000,44.444,N
438,-0.070,1.275,0.215,136.111,102.778,311.111,1097.222,52.778,N
439,-0.050,1.410,0.230,133.333,116.667,325.000,1097.222,0.000,N
440,-0.065,1.365,0.260,138.889,113.889,336.111,1172.222,75.000,N
441,0.045,1.450,0.350,127.778,108.333,325.000,1169.444,2.778,N
442,-0.030,1.300,0.220,138.889,105.556,319.444,1113.889,55.556,N
443,-0.115,1.175,0.165,119.444,116.667,322.222,1080.556,33.333,N
444,-0.160,1.305,0.190,141.667,113.889,322.222,1083.333,2.778,N
445,-0.010,1.425,0.185,138.889,116.667,336.111,1136.111,52.778,N
446,-0.180,1.155,0.045,147.222,113.889,327.778,1141.667,5.556,N
447,-0.270,1.020,0.005,136.111,105.556,330.556,1141.667,0.000,N
448,-0.260,1.135,0.020,133.333,116.667,325.000,1127.778,13.889,N
449,-0.220,1.200,0.085,127.778,97.222,305.556,1088.889,38.889,N
450,-0.160,1.220,0.140,133.333,113.889,336.111,1094.444,5.556,N
451,-0.100,1.130,0.200,141.667,102.778,327.778,1175.000,80.556,N
452,-0.075,1.350,0.195,152.778,113.889,338.889,1177.778,2.778,N
453,-0.075,1.315,0.185,133.333,113.889,308.333,1161.111,16.667,N
454,-0.060,1.345,0.210,138.889,105.556,311.111,1091.667,69.444,N
455,-0.030,1.335,0.245,138.889,102.778,327.778,1100.000,8.333,N
456,-0.075,1.355,0.230,144.444,111.111,341.667,1188.889,88.889,N
457,0.030,1.415,0.280,133.333,116.667,341.667,1186.111,2.778,N
458,-0.005,1.330,0.250,130.556,116.667,322.222,1136.111,50.000,N
459,-0.040,1.235,0.180,130.556,113.889,322.222,1097.222,38.889,N
460,-0.045,1.320,0.145,141.667,111.111,322.222,1080.556,16.667,N
461,-0.110,1.095,0.200,155.556,100.000,344.444,1130.556,50.000,N
462,-0.060,1.280,0.125,138.889,105.556,344.444,1130.556,0.000,N
463,-0.185,1.190,0.040,150.000,116.667,330.556,1125.000,5.556,N
464,-0.205,1.105,0.265,125.000,108.333,325.000,1108.333,16.667,N
465,-0.290,1.200,0.065,125.000,102.778,325.000,1066.667,41.667,N
466,-0.155,1.215,0.145,141.667,102.778,325.000,1083.333,16.667,N
467,-0.155,1.155,0.140,136.111,116.667,352.778,1147.222,63.889,N
468,-0.175,1.045,0.125,141.667,105.556,327.778,1172.222,25.000,N
469,-0.155,1.175,0.120,130.556,116.667,327.778,1138.889,33.333,N
470,-0.065,1.260,0.185,125.000,105.556,325.000,1094.444,44.444,N
471,-0.115,1.110,0.025,127.778,116.667,327.778,1072.222,22.222,N
472,-0.150,1.130,0.120,155.556,105.556,347.222,1127.778,55.556,N
473,-0.125,1.105,0.120,141.667,80.556,338.889,1166.667,38.889,N
474,-0.105,1.220,0.135,133.333,116.667,325.000,1125.000,41.667,N
475,-0.160,1.090,0.060,127.778,113.889,325.000,1063.889,61.111,N
476,-0.170,1.140,0.100,133.333,116.667,325.000,1069.444,5.556,N
477,-0.155,1.085,0.130,136.111,105.556,327.778,1105.556,36.111,N
478,-0.195,1.155,0.075,144.444,113.889,327.778,1172.222,66.667,N
479,-0.210,1.035,0.085,144.444,111.111,325.000,1150.000,22.222,N
480,-0.180,1.085,0.085,136.111,102.778,311.111,1111.111,38.889,N
481,-0.140,1.115,0.105,125.000,111.111,308.333,1105.556,5.556,N
482,-0.110,1.200,0.150,133.333,116.667,327.778,1105.556,0.000,N
483,-0.115,1.215,0.180,136.111,113.889,336.111,1136.111,30.556,N
484,-0.120,1.145,0.150,130.556,111.111,325.000,1158.333,22.222,N
485,-0.155,1.095,0.105,133.333,116.667,325.000,1122.222,36.111,N
486,-0.050,1.265,0.190,141.667,111.111,311.111,1091.667,30.556,N
487,-0.510,1.190,-0.040,63.889,113.889,322.222,1072.222,19.444,N
488,-0.125,1.410,0.200,138.889,116.667,336.111,1075.000,2.778,N
489,-0.125,1.430,0.145,58.333,113.889,338.889,1133.333,58.333,N
490,-0.160,1.265,0.145,141.667,111.111,330.556,1086.111,47.222,N
491,-0.180,1.360,0.085,125.000,105.556,308.333,1000.000,86.111,N
492,-0.205,1.445,0.105,136.111,116.667,322.222,994.444,5.556,N
493,-0.190,1.305,0.165,138.889,111.111,327.778,1005.556,11.111,N
494,-0.260,1.495,0.105,133.333,116.667,341.667,1058.333,52.778,N
495,-0.230,1.470,0.095,138.889,108.333,330.556,1072.222,13.889,N
496,-0.220,1.490,0.165,136.111,116.667,325.000,1025.000,47.222,N
497,-0.250,1.390,0.100,136.111,108.333,313.889,975.000,50.000,N
498,-0.320,1.280,0.025,130.556,113.889,327.778,1008.333,33.333,N
499,-0.280,1.320,0.070,138.889,108.333,341.667,1044.444,36.111,N
500,-0.215,1.305,0.225,136.111,113.889,355.556,1127.778,83.333,N
501,-0.170,1.315,0.090,136.111,111.111,336.111,1152.778,25.000,N
502,-0.225,1.180,0.095,127.778,111.111,325.000,1122.222,30.556,N
503,0.410,1.575,0.330,136.111,116.667,325.000,1091.667,30.556,N
504,-0.320,0.965,-0.100,122.222,105.556,338.889,1088.889,2.778,N
505,-0.395,1.100,-0.130,141.667,100.000,338.889,1116.667,27.778,N
506,-0.280,1.135,0.020,150.000,116.667,347.222,1175.000,58.333,N
507,-0.275,1.090,0.065,130.556,116.667,327.778,1163.889,11.111,N
508,-0.210,1.260,0.115,127.778,113.889,325.000,1083.333,80.556,N
509,-0.425,0.970,-0.095,136.111,100.000,325.000,1075.000,8.333,N
510,-0.320,1.290,0.125,130.556,83.333,341.667,1091.667,16.667,N
511,-0.075,1.495,0.185,180.556,86.111,344.444,1111.111,19.444,N
512,-0.155,1.365,0.075,136.111,113.889,336.111,1063.889,47.222,N
513,-0.265,1.110,-0.320,133.333,116.667,319.444,1030.556,33.333,N
514,-0.590,0.830,-0.235,180.556,111.111,333.333,1000.000,30.556,N
515,-0.155,1.260,0.410,144.444,94.444,308.333,1025.000,25.000,N
516,0.205,1.685,0.260,144.444,75.000,341.667,1038.889,13.889,N
517,-0.010,1.525,0.185,152.778,111.111,341.667,1038.889,0.000,N
518,-0.090,1.345,0.145,133.333,102.778,316.667,1013.889,25.000,N
519,-0.165,1.230,0.035,141.667,94.444,300.000,961.111,52.778,N
520,-0.180,1.330,0.010,127.778,111.111,322.222,933.333,27.778,N
521,-0.180,1.310,0.150,147.222,113.889,325.000,922.222,11.111,N
522,-0.190,1.130,-0.045,127.778,105.556,330.556,958.333,36.111,N
523,-0.320,1.105,-0.035,141.667,102.778,325.000,966.667,8.333,N
524,-0.350,1.210,-0.020,127.778,88.889,344.444,969.444,2.778,N
525,-0.365,1.110,0.060,133.333,116.667,308.333,938.889,30.556,N
526,-0.170,1.340,0.190,113.889,86.111,308.333,897.222,41.667,N
527,-0.310,1.215,0.085,197.222,116.667,322.222,886.111,11.111,N
528,-0.325,1.070,0.035,136.111,113.889,319.444,922.222,36.111,N
529,-0.340,1.205,0.025,133.333,116.667,327.778,961.111,38.889,N
530,-0.205,1.235,0.085,138.889,113.889,338.889,988.889,27.778,N
531,-0.265,1.305,0.135,180.556,113.889,327.778,958.333,30.556,N
532,-0.370,0.905,-0.350,130.556,113.889,308.333,916.667,41.667,N
533,-0.565,0.730,-0.210,125.000,108.333,327.778,913.889,2.778,N
534,-0.280,1.190,0.045,155.556,113.889,336.111,927.778,13.889,N
535,-0.035,1.245,0.060,183.333,113.889,338.889,961.111,33.333,N
536,-0.145,1.265,0.100,163.889,113.889,338.889,933.333,27.778,N
537,-0.125,1.090,0.060,169.444,111.111,336.111,922.222,11.111,N
538,-0.075,1.365,0.230,147.222,113.889,313.889,908.333,13.889,N
539,0.035,1.405,0.130,55.556,97.222,302.778,897.222,11.111,N
540,-0.085,0.230,0.710,55.556,91.667,311.111,661.111,236.111,V
541,-0.260,0.980,-0.140,158.333,116.667,350.000,1102.778,441.667,N
542,-0.190,1.250,-0.135,175.000,100.000,344.444,936.111,166.667,N
543,-0.295,1.105,-0.035,169.444,116.667,352.778,941.667,5.556,N
544,0.185,1.120,0.080,175.000,105.556,322.222,938.889,2.778,N
545,-0.135,1.275,0.125,177.778,113.889,322.222,891.667,47.222,N
546,0.040,1.110,0.195,88.889,100.000,308.333,858.333,33.333,N
547,-0.060,1.180,0.110,169.444,116.667,325.000,877.778,19.444,N
548,-0.230,1.175,-0.005,155.556,111.111,327.778,925.000,47.222,N
549,-0.195,1.040,-0.060,169.444,116.667,341.667,944.444,19.444,N
550,-0.180,1.025,-0.030,169.444,113.889,338.889,950.000,5.556,N
551,-0.080,1.225,0.090,163.889,113.889,308.333,911.111,38.889,N
552,-0.185,0.120,0.610,197.222,113.889,319.444,633.333,277.778,V
553,-0.135,1.155,0.010,161.111,116.667,330.556,1133.333,500.000,N
554,-0.115,1.120,0.055,175.000,100.000,325.000,947.222,186.111,N
555,-0.180,1.120,0.080,186.111,116.667,338.889,941.667,5.556,N
556,-0.045,1.055,0.045,169.444,102.778,341.667,952.778,11.111,N
557,-0.015,1.135,0.200,177.778,111.111,325.000,941.667,11.111,N
558,-0.140,0.235,0.685,194.444,102.778,325.000,663.889,277.778,V
559,0.060,1.265,0.130,155.556,111.111,336.111,1144.444,480.556,N
560,-0.040,1.255,0.160,158.333,105.556,313.889,936.111,208.333,N
561,0.085,1.445,0.305,163.889,116.667,344.444,941.667,5.556,N
562,-0.005,1.075,0.130,183.333,111.111,336.111,966.667,25.000,N
563,-0.050,1.270,0.175,166.667,116.667,338.889,969.444,2.778,N
564,-0.155,0.195,0.620,183.333,66.667,327.778,697.222,272.222,V
565,-0.005,1.325,0.170,155.556,102.778,308.333,1172.222,475.000,N
566,0.070,1.380,0.320,158.333,102.778,305.556,902.778,269.444,N
567,0.065,1.195,0.120,175.000,111.111,330.556,916.667,13.889,N
568,-0.055,1.205,0.195,188.889,111.111,330.556,950.000,33.333,N
569,-0.080,1.105,0.085,197.222,116.667,341.667,975.000,25.000,N
570,-0.190,0.180,0.650,166.667,83.333,327.778,736.111,238.889,V
571,-0.065,1.080,0.030,161.111,102.778,308.333,1144.444,408.333,N
572,-0.160,1.140,0.050,155.556,105.556,308.333,877.778,266.667,N
573,-0.075,1.205,0.105,161.111,102.778,344.444,902.778,25.000,N
574,-0.075,1.195,0.215,169.444,105.556,327.778,966.667,63.889,N
575,0.175,1.580,0.325,163.889,111.111,322.222,955.556,11.111,N
576,0.100,1.495,0.265,180.556,111.111,325.000,930.556,25.000,N
577,-0.085,1.215,0.020,175.000,102.778,311.111,911.111,19.444,N
578,-0.190,1.155,-0.055,158.333,108.333,308.333,869.444,41.667,N
579,-0.155,1.065,0.045,163.889,113.889,322.222,872.222,2.778,N
580,-0.235,1.125,-0.045,169.444,113.889,325.000,902.778,30.556,N
581,-0.205,1.040,0.040,175.000,113.889,330.556,922.222,19.444,N
582,-0.290,0.095,0.650,183.333,83.333,341.667,675.000,247.222,V
583,-0.205,1.165,0.085,161.111,108.333,325.000,1194.444,519.444,N
584,-0.200,1.060,0.010,150.000,113.889,322.222,925.000,269.444,N
585,-0.185,1.060,0.065,155.556,111.111,319.444,872.222,52.778,N
586,-0.115,1.240,0.050,166.667,113.889,327.778,861.111,11.111,N
587,-0.120,1.090,0.180,172.222,111.111,336.111,905.556,44.444,N
588,-0.075,1.180,0.175,169.444,113.889,336.111,930.556,25.000,N
589,-0.030,1.265,0.115,163.889,116.667,327.778,944.444,13.889,N
590,-0.100,1.015,0.080,163.889,102.778,325.000,961.111,16.667,N
591,-0.140,1.110,0.035,152.778,116.667,325.000,891.667,69.444,N
592,-0.195,0.965,-0.045,158.333,111.111,308.333,894.444,2.778,N
593,-0.190,0.890,-0.040,166.667,116.667,336.111,908.333,13.889,N
594,-0.115,1.090,-0.090,175.000,111.111,330.556,972.222,63.889,N
595,-0.145,0.935,0.060,175.000,100.000,338.889,966.667,5.556,N
596,-0.110,1.010,0.050,161.111,116.667,341.667,938.889,27.778,N
597,-0.070,1.160,0.035,150.000,113.889,319.444,919.444,19.444,N
598,-0.145,0.870,-0.045,161.111,100.000,308.333,891.667,27.778,N
599,-0.260,0.960,-0.120,158.333,100.000,308.333,900.000,8.333,N
600,-0.355,0.025,0.460,191.667,83.333,347.222,652.778,247.222,V
601,-0.085,1.000,0.025,175.000,88.889,361.111,1233.333,580.556,N
602,0.025,1.030,0.030,175.000,105.556,327.778,944.444,288.889,N
603,-0.055,0.905,0.035,161.111,102.778,325.000,919.444,25.000,N
604,-0.125,0.950,-0.030,155.556,102.778,311.111,900.000,19.444,N
605,-0.170,0.780,-0.035,155.556,102.778,308.333,863.889,36.111,N
606,-0.140,0.790,-0.035,155.556,105.556,325.000,866.667,2.778,N
607,-0.190,0.705,0.020,155.556,80.556,330.556,900.000,33.333,N
608,0.735,-1.155,0.020,116.667,2.778,163.889,119.444,780.556,|
609,-0.155,0.635,-0.010,177.778,94.444,305.556,802.778,683.333,N
610,-0.120,1.005,-0.050,175.000,108.333,322.222,897.222,94.444,N
611,-0.170,0.875,-0.055,163.889,113.889,325.000,888.889,8.333,N
612,-0.165,1.010,-0.040,144.444,111.111,305.556,847.222,41.667,N
613,-0.280,1.025,-0.085,155.556,116.667,308.333,855.556,8.333,N
614,-0.150,0.915,0.005,161.111,102.778,327.778,894.444,38.889,N
615,-0.165,0.965,-0.065,169.444,111.111,352.778,927.778,33.333,N
616,-0.170,1.005,-0.030,169.444,111.111,336.111,950.000,22.222,N
617,-0.195,1.075,-0.115,163.889,113.889,308.333,908.333,41.667,N
618,-0.185,0.745,-0.010,161.111,113.889,311.111,866.667,41.667,N
619,-0.230,0.095,0.590,55.556,75.000,308.333,608.333,258.333,V
620,-0.210,0.860,-0.185,147.222,116.667,347.222,1108.333,500.000,N
621,-0.220,0.690,-0.175,172.222,102.778,344.444,925.000,183.333,N
622,-0.235,0.885,-0.165,166.667,116.667,341.667,944.444,19.444,N
623,-0.190,0.760,-0.055,166.667,116.667,338.889,919.444,25.000,N
624,-0.090,0.960,0.005,152.778,113.889,336.111,883.333,36.111,N
625,-0.135,0.935,-0.030,150.000,116.667,322.222,883.333,0.000,N
626,-0.090,0.900,0.095,150.000,113.889,322.222,883.333,0.000,N
627,-0.030,1.105,0.035,163.889,116.667,327.778,897.222,13.889,N
628,-0.115,0.850,0.040,169.444,108.333,333.333,922.222,25.000,N
629,-0.075,0.850,0.100,158.333,102.778,327.778,969.444,47.222,N
630,-0.075,1.005,0.000,158.333,111.111,325.000,936.111,33.333,N
631,-0.145,0.860,0.050,152.778,116.667,322.222,941.667,5.556,N
632,-0.050,1.095,0.140,144.444,113.889,308.333,927.778,13.889,N
633,-0.040,1.080,0.085,161.111,102.778,308.333,897.222,30.556,N
634,-0.060,1.055,0.100,166.667,116.667,338.889,958.333,61.111,N
635,-0.125,1.015,-0.020,183.333,116.667,344.444,997.222,38.889,N
636,-0.160,1.150,0.010,166.667,88.889,341.667,1066.667,69.444,N
637,-0.085,1.205,-0.015,158.333,102.778,305.556,941.667,125.000,N
638,-0.125,1.025,0.105,150.000,116.667,325.000,941.667,0.000,N
639,-0.035,1.280,0.120,150.000,116.667,308.333,950.000,8.333,N
640,-0.150,1.050,0.055,183.333,113.889,338.889,1033.333,83.333,N
641,-0.100,1.005,0.080,191.667,105.556,327.778,1044.444,11.111,N
642,-0.100,1.200,0.045,172.222,102.778,325.000,1047.222,2.778,N
643,-0.120,1.085,0.125,158.333,97.222,308.333,1016.667,30.556,N
644,0.005,1.270,0.140,161.111,113.889,325.000,1008.333,8.333,N
645,-0.050,1.150,0.165,172.222,100.000,305.556,1005.556,2.778,N
646,-0.060,1.315,0.245,172.222,113.889,336.111,1069.444,63.889,N
647,-0.025,1.225,0.210,172.222,102.778,327.778,1063.889,5.556,N
648,0.150,1.460,0.455,166.667,116.667,322.222,1080.556,16.667,N
649,0.025,1.220,0.095,172.222,105.556,311.111,1022.222,58.333,N
650,-0.340,0.805,-0.070,180.556,113.889,308.333,1041.667,19.444,N
651,-0.400,0.895,-0.190,177.778,102.778,308.333,1011.111,30.556,N
652,-0.380,0.860,-0.055,180.556,116.667,341.667,1075.000,63.889,N
653,-0.225,1.165,-0.040,186.111,113.889,338.889,1116.667,41.667,N
654,-0.270,1.000,-0.010,188.889,108.333,316.667,1091.667,25.000,N
655,-0.155,1.240,0.000,163.889,102.778,308.333,1033.333,58.333,N
656,-0.285,1.065,0.025,155.556,113.889,322.222,1027.778,5.556,N
657,-0.155,1.190,0.105,175.000,116.667,333.333,1058.333,30.556,N
658,-0.205,1.200,0.025,166.667,113.889,341.667,1122.222,63.889,N
659,-0.175,1.045,0.155,175.000,108.333,325.000,1125.000,2.778,N
660,-0.145,1.225,0.055,161.111,105.556,294.444,1069.444,55.556,N
661,-0.205,1.100,0.120,161.111,97.222,322.222,1050.000,19.444,N
662,-0.095,1.295,0.080,172.222,111.111,319.444,1044.444,5.556,N
663,-0.175,1.110,0.120,166.667,116.667,325.000,1111.111,66.667,N
664,-0.075,1.345,0.105,163.889,116.667,344.444,1097.222,13.889,N
665,-0.145,1.125,0.075,163.889,116.667,327.778,1100.000,2.778,N
666,-0.155,1.140,0.050,172.222,113.889,322.222,1058.333,41.667,N
667,-0.225,1.115,-0.005,161.111,113.889,311.111,1058.333,0.000,N
668,-0.185,1.210,0.115,177.778,80.556,322.222,1063.889,5.556,N
669,-0.100,1.170,0.115,183.333,113.889,341.667,1088.889,25.000,N
670,-0.120,1.045,0.140,194.444,80.556,327.778,1144.444,55.556,N
671,-0.215,1.115,-0.100,163.889,111.111,305.556,1069.444,75.000,N
672,-0.340,0.980,-0.040,186.111,116.667,325.000,1022.222,47.222,N
673,-0.225,1.215,0.090,169.444,113.889,319.444,1019.444,2.778,N
674,-0.200,1.230,0.050,183.333,116.667,338.889,1063.889,44.444,N
675,0.000,1.295,0.365,186.111,108.333,327.778,1116.667,52.778,N
676,0.250,1.125,-0.350,197.222,116.667,122.222,494.444,622.222,A
677,-0.500,0.580,0.000,130.556,94.444,-736516.667,397.222,97.222,A
678,0.000,-2.150,0.000,737125.000,44.444,-737105.556,572.222,175.000,A
679,0.145,2.035,1.260,61.111,83.333,333.333,1297.222,725.000,N
680,0.000,2.815,2.920,739433.333,0.000,739436.111,1011.111,286.111,N
681,0.935,2.175,0.910,175.000,102.778,308.333,1052.778,41.667,N
682,0.395,1.545,0.690,163.889,111.111,319.444,1052.778,0.000,N
683,0.425,1.500,0.460,175.000,102.778,319.444,1041.667,11.111,N
684,-0.035,1.015,0.340,194.444,116.667,322.222,1061.111,19.444,N
685,0.255,0.805,0.180,197.222,116.667,338.889,469.444,591.667,a
686,-0.230,0.800,0.025,150.000,100.000,308.333,1205.556,736.111,N
687,-0.280,0.870,0.140,183.333,116.667,330.556,1038.889,166.667,N
688,-0.050,0.710,-0.225,197.222,102.778,308.333,491.667,547.222,A
689,-0.335,0.830,-0.010,94.444,100.000,355.556,1291.667,800.000,N
690,-0.170,1.090,0.105,183.333,100.000,308.333,1044.444,247.222,N
691,0.065,0.970,-0.070,197.222,113.889,300.000,475.000,569.444,A
692,-0.145,0.970,-0.115,186.111,113.889,308.333,1188.889,713.889,N
693,-0.215,1.135,-0.090,172.222,100.000,311.111,1002.778,186.111,N
694,-0.255,1.075,0.070,177.778,105.556,325.000,1036.111,33.333,N
695,-0.265,0.140,0.645,61.111,111.111,341.667,702.778,333.333,V
696,-0.105,1.070,0.055,177.778,102.778,330.556,1416.667,713.889,N
697,-0.220,1.105,0.060,161.111,111.111,305.556,1008.333,408.333,N
698,-0.115,1.275,0.155,166.667,116.667,311.111,1011.111,2.778,N
699,-0.085,1.385,0.410,172.222,100.000,327.778,1075.000,63.889,N
700,0.140,1.355,0.195,197.222,113.889,325.000,508.333,566.667,A
701,-0.235,1.140,0.050,180.556,113.889,341.667,1313.889,805.556,N
702,-0.165,1.255,0.240,177.778,108.333,322.222,1100.000,213.889,N
703,0.140,1.095,0.040,197.222,116.667,305.556,475.000,625.000,A
704,0.025,1.290,0.190,194.444,111.111,322.222,1258.333,783.333,N
705,0.010,1.125,0.395,183.333,111.111,322.222,1069.444,188.889,N
706,0.225,0.425,0.225,197.222,116.667,377.778,486.111,583.333,a
707,-0.160,0.135,0.745,125.000,105.556,338.889,808.333,322.222,V
708,0.200,1.590,0.515,172.222,113.889,338.889,1594.444,786.111,N
709,0.285,1.550,0.405,172.222,100.000,305.556,1072.222,522.222,N
710,-0.280,0.950,0.020,188.889,105.556,311.111,1047.222,25.000,N
711,-0.080,0.000,-0.215,197.222,113.889,330.556,469.444,577.778,a
712,-0.555,0.855,-0.230,166.667,116.667,338.889,1275.000,805.556,N
713,-0.380,1.140,0.000,55.556,102.778,327.778,1155.556,119.444,N
714,-0.295,1.115,0.185,188.889,105.556,313.889,1133.333,22.222,N
715,-0.030,0.910,-0.095,197.222,102.778,294.444,483.333,650.000,A
716,-0.095,1.425,0.175,163.889,116.667,336.111,1244.444,761.111,N
717,0.010,1.355,0.230,175.000,111.111,325.000,1091.667,152.778,N
718,-0.035,1.450,0.275,197.222,113.889,338.889,1125.000,33.333,N
719,-0.100,1.375,0.175,197.222,113.889,327.778,1130.556,5.556,N
720,-0.130,1.310,0.310,172.222,102.778,322.222,1108.333,22.222,N
721,0.150,1.245,0.095,197.222,111.111,297.222,488.889,619.444,A
722,-0.035,1.290,0.235,172.222,102.778,313.889,1277.778,788.889,N
723,-0.035,1.400,0.180,197.222,113.889,322.222,1075.000,202.778,N
724,-0.090,1.275,0.330,188.889,100.000,327.778,1127.778,52.778,N
725,0.080,1.140,0.120,197.222,113.889,322.222,508.333,619.444,A
726,-0.140,1.245,0.075,175.000,108.333,344.444,1325.000,816.667,N
727,-0.085,1.310,0.355,161.111,102.778,311.111,1102.778,222.222,N
728,0.220,1.275,0.105,194.444,97.222,288.889,475.000,627.778,A
729,-0.155,1.225,0.075,161.111,113.889,327.778,1241.667,766.667,N
730,-0.105,1.305,0.085,180.556,111.111,325.000,1100.000,141.667,N
731,-0.105,1.345,0.160,186.111,108.333,330.556,1108.333,8.333,N
732,-0.160,1.250,0.180,180.556,116.667,325.000,1113.889,5.556,N
733,-0.040,1.270,0.150,166.667,113.889,308.333,1033.333,80.556,N
734,-0.195,1.165,0.110,166.667,102.778,294.444,1016.667,16.667,N
735,-0.140,1.175,0.065,177.778,105.556,327.778,1044.444,27.778,N
736,-0.050,1.265,0.260,180.556,113.889,338.889,1136.111,91.667,N
737,-0.045,1.355,0.175,183.333,116.667,322.222,1122.222,13.889,N
738,-0.085,1.170,0.200,169.444,102.778,311.111,1083.333,38.889,N
739,-0.065,1.350,0.245,166.667,113.889,319.444,1047.222,36.111,N
740,-0.095,1.280,0.215,186.111,113.889,319.444,1069.444,22.222,N
741,-0.055,1.185,0.310,183.333,116.667,325.000,1113.889,44.444,N
742,0.035,1.325,0.410,197.222,111.111,325.000,1127.778,13.889,N
743,0.215,1.075,0.105,194.444,100.000,305.556,497.222,630.556,A
744,-0.090,1.290,0.135,169.444,113.889,341.667,1322.222,825.000,N
745,-0.110,1.125,0.150,186.111,116.667,322.222,1086.111,236.111,N
746,-0.060,1.300,0.280,169.444,116.667,325.000,1066.667,19.444,N
747,0.065,1.105,0.000,197.222,113.889,322.222,500.000,566.667,A
748,-0.075,1.270,0.250,177.778,111.111,344.444,1358.333,858.333,N
749,-0.085,1.180,0.110,191.667,108.333,327.778,1113.889,244.444,N
750,-0.155,1.050,0.080,169.444,116.667,311.111,1094.444,19.444,N
751,-0.170,1.180,0.050,158.333,111.111,311.111,1025.000,69.444,N
752,-0.145,1.035,0.125,169.444,116.667,325.000,1041.667,16.667,N
753,-0.135,0.995,-0.420,191.667,105.556,338.889,1122.222,80.556,N
754,-0.110,1.100,0.270,186.111,116.667,338.889,1113.889,8.333,N
755,0.100,1.340,-0.065,175.000,102.778,111.111,1086.111,27.778,N
756,-0.970,-1.930,0.810,155.556,19.444,244.444,800.000,286.111,|
757,-0.955,0.800,0.015,58.333,86.111,127.778,241.667,558.333,N
758,0.155,1.460,0.415,172.222,111.111,319.444,1022.222,780.556,N
759,0.295,1.445,0.505,180.556,108.333,341.667,1088.889,66.667,N
760,-0.140,0.905,0.060,194.444,97.222,341.667,1136.111,47.222,N
761,0.305,1.605,0.480,177.778,111.111,325.000,1097.222,38.889,N
762,0.170,1.345,0.380,175.000,102.778,305.556,1080.556,16.667,N
763,-0.205,1.385,0.440,58.333,113.889,316.667,1050.000,30.556,N
764,0.170,1.505,0.390,172.222,111.111,319.444,1050.000,0.000,N
765,-0.305,0.985,0.060,177.778,108.333,330.556,1086.111,36.111,N
766,-0.280,1.135,-0.010,169.444,116.667,341.667,1094.444,8.333,N
767,0.185,1.620,0.525,166.667,116.667,325.000,1113.889,19.444,N
768,0.225,1.615,0.405,169.444,111.111,302.778,1069.444,44.444,N
769,-0.040,1.355,0.205,163.889,108.333,305.556,1008.333,61.111,N
770,-0.050,1.340,0.295,169.444,113.889,341.667,1058.333,50.000,N
771,-0.040,1.315,0.175,188.889,111.111,350.000,1119.444,61.111,N
772,-0.075,1.225,0.235,183.333,116.667,336.111,1130.556,11.111,N
773,0.040,1.440,0.290,166.667,113.889,322.222,1050.000,80.556,N
774,-0.020,1.245,0.215,166.667,116.667,325.000,1030.556,19.444,N
775,-0.065,1.170,0.240,175.000,113.889,325.000,1044.444,13.889,N
776,-0.025,1.410,0.200,194.444,116.667,358.333,1086.111,41.667,N
777,-0.080,1.185,0.170,180.556,116.667,338.889,1152.778,66.667,N
778,-0.010,1.395,0.270,172.222,111.111,336.111,1088.889,63.889,N
779,-0.060,1.310,0.340,177.778,108.333,319.444,1072.222,16.667,N
780,0.220,1.075,0.090,197.222,108.333,305.556,483.333,588.889,A
781,0.040,1.585,0.160,172.222,105.556,325.000,1244.444,761.111,N
782,-0.105,1.345,0.205,197.222,116.667,330.556,1108.333,136.111,N
783,0.065,1.575,0.215,183.333,113.889,325.000,1100.000,8.333,N
784,-0.060,1.385,0.170,180.556,116.667,327.778,1100.000,0.000,N
785,0.090,1.640,0.275,169.444,116.667,319.444,1055.556,44.444,N
786,-0.170,1.220,-0.020,166.667,111.111,325.000,1025.000,30.556,N
787,-0.265,1.120,0.075,175.000,111.111,344.444,1050.000,25.000,N
788,-0.190,1.350,0.030,186.111,113.889,355.556,1125.000,75.000,N
789,-0.135,1.205,0.135,177.778,108.333,336.111,1141.667,16.667,N
790,-0.220,1.170,0.085,175.000,108.333,316.667,1097.222,44.444,N
791,-0.180,1.085,0.060,172.222,105.556,308.333,1044.444,52.778,N
792,-0.295,0.880,-0.180,166.667,116.667,325.000,1030.556,13.889,N
793,-0.140,1.355,0.090,175.000,108.333,344.444,1091.667,61.111,N
794,-0.155,1.500,0.150,169.444,113.889,338.889,1127.778,36.111,N
795,-0.160,1.190,0.020,175.000,102.778,311.111,1086.111,41.667,N
796,-0.200,1.180,-0.040,163.889,108.333,319.444,1022.222,63.889,N
797,-0.250,1.100,0.060,163.889,111.111,308.333,1052.778,30.556,N
798,-0.095,1.340,0.135,169.444,113.889,325.000,1038.889,13.889,N
799,-0.105,1.205,0.245,197.222,116.667,327.778,1127.778,88.889,N
800,-0.005,1.370,0.325,177.778,83.333,325.000,1127.778,0.000,N
801,0.030,1.220,0.285,127.778,105.556,327.778,1102.778,25.000,N
802,0.000,1.110,0.250,186.111,116.667,325.000,1072.222,30.556,N
803,-0.060,1.300,0.245,188.889,100.000,302.778,1055.556,16.667,N
804,-0.035,1.150,0.320,180.556,116.667,341.667,1077.778,22.222,N
805,0.020,1.340,0.125,186.111,113.889,341.667,1147.222,69.444,N
806,-0.110,1.145,0.240,172.222,113.889,336.111,1141.667,5.556,N
807,0.135,1.350,0.245,186.111,102.778,308.333,1080.556,61.111,N
808,-0.370,0.860,-0.070,169.444,113.889,325.000,1063.889,16.667,N
809,0.005,1.240,0.270,177.778,113.889,327.778,1094.444,30.556,N
810,-0.005,1.325,0.175,194.444,113.889,341.667,1136.111,41.667,N
811,-0.120,1.135,0.145,180.556,113.889,338.889,1152.778,16.667,N
812,-0.380,0.840,-0.410,166.667,116.667,325.000,1100.000,52.778,N
813,-0.210,1.205,-0.150,166.667,113.889,288.889,1069.444,30.556,N
814,0.040,1.570,0.440,58.333,105.556,327.778,1075.000,5.556,N
815,0.170,1.335,0.375,155.556,108.333,327.778,1111.111,36.111,N
816,0.005,1.295,0.140,180.556,116.667,336.111,1130.556,19.444,N
817,-0.070,1.025,0.085,175.000,113.889,325.000,1111.111,19.444,N
818,-0.170,0.915,0.170,172.222,111.111,336.111,1091.667,19.444,N
819,0.045,1.360,0.330,152.778,116.667,322.222,1030.556,61.111,N
820,0.085,1.200,0.325,175.000,111.111,325.000,1075.000,44.444,N
821,0.170,1.415,0.250,180.556,113.889,341.667,1102.778,27.778,N
822,-0.665,0.660,-0.110,177.778,102.778,327.778,1147.222,44.444,N
823,0.140,1.575,0.590,169.444,116.667,322.222,1091.667,55.556,N
824,0.675,1.810,0.875,161.111,100.000,305.556,1041.667,50.000,N
825,0.400,1.390,0.550,161.111,105.556,325.000,1066.667,25.000,N
826,0.190,1.305,0.225,183.333,105.556,327.778,1094.444,27.778,N
827,-0.195,1.030,-0.040,175.000,113.889,333.333,1152.778,58.333,N
828,-0.255,1.155,-0.090,175.000,102.778,308.333,1100.000,52.778,N
829,-0.285,0.975,-0.080,169.444,113.889,322.222,1061.111,38.889,N
830,-0.165,1.225,0.145,188.889,105.556,330.556,1069.444,8.333,N
831,-0.135,1.240,0.105,169.444,113.889,355.556,1080.556,11.111,N
832,-0.075,1.300,0.175,163.889,116.667,344.444,1113.889,33.333,N
833,-0.070,1.250,0.130,183.333,116.667,341.667,1136.111,22.222,N
834,-0.150,1.000,0.085,172.222,111.111,336.111,1122.222,13.889,N
835,-0.180,1.160,0.065,169.444,100.000,311.111,1061.111,61.111,N
836,-0.340,0.900,0.035,183.333,113.889,325.000,1083.333,22.222,N
837,-0.135,1.250,0.125,183.333,116.667,338.889,1100.000,16.667,N
838,-0.140,1.015,0.190,188.889,102.778,341.667,1169.444,69.444,N
839,-0.045,1.260,0.245,172.222,116.667,325.000,1133.333,36.111,N
840,0.155,1.475,0.305,163.889,102.778,294.444,1088.889,44.444,N
841,0.055,1.265,0.110,177.778,100.000,319.444,1050.000,38.889,N
842,-0.115,1.175,-0.020,166.667,100.000,322.222,1100.000,50.000,N
843,-0.255,1.035,-0.015,169.444,116.667,355.556,1141.667,41.667,N
844,-0.275,1.000,0.050,186.111,111.111,333.333,1166.667,25.000,N
845,-0.140,1.290,0.125,166.667,116.667,308.333,1097.222,69.444,N
846,-0.205,1.000,0.125,163.889,100.000,325.000,1061.111,36.111,N
847,-0.140,1.090,0.080,175.000,100.000,322.222,1111.111,50.000,N
848,-0.140,1.230,0.090,175.000,113.889,341.667,1138.889,27.778,N
849,-0.055,1.240,0.190,188.889,113.889,336.111,1144.444,5.556,N
850,-0.150,1.050,0.115,169.444,111.111,333.333,1133.333,11.111,N
851,-0.305,0.925,-0.140,180.556,116.667,322.222,1061.111,72.222,N
852,-0.330,0.845,0.005,175.000,116.667,330.556,1091.667,30.556,N
853,-0.130,1.220,0.095,172.222,102.778,341.667,1097.222,5.556,N
854,-0.085,1.150,0.195,175.000,111.111,336.111,1133.333,36.111,N
855,0.085,1.435,0.355,172.222,113.889,336.111,1133.333,0.000,N
856,0.060,1.320,0.300,169.444,116.667,336.111,1066.667,66.667,N
857,0.015,1.150,0.230,169.444,113.889,322.222,1047.222,19.444,N
858,-0.070,1.060,0.260,161.111,111.111,338.889,1041.667,5.556,N
859,-0.105,1.055,0.110,172.222,102.778,327.778,1094.444,52.778,N
860,-0.105,1.065,0.190,175.000,102.778,341.667,1136.111,41.667,N
861,-0.160,1.085,0.090,152.778,102.778,325.000,1080.556,55.556,N
862,-0.115,1.010,0.180,163.889,111.111,305.556,1058.333,22.222,N
863,0.080,1.370,0.310,186.111,100.000,325.000,1044.444,13.889,N
864,-0.030,1.290,0.170,180.556,116.667,325.000,1125.000,80.556,N
865,0.025,1.405,0.245,177.778,113.889,341.667,1130.556,5.556,N
866,-0.005,1.255,0.280,177.778,113.889,327.778,1113.889,16.667,N
867,-0.090,1.035,-0.140,166.667,108.333,305.556,1069.444,44.444,N
868,-0.125,1.290,0.160,161.111,113.889,319.444,1036.111,33.333,N
869,-0.025,1.195,0.210,180.556,113.889,327.778,1080.556,44.444,N
870,0.010,1.390,0.230,186.111,111.111,333.333,1108.333,27.778,N
871,0.015,1.190,0.265,172.222,113.889,336.111,1116.667,8.333,N
872,0.040,1.340,0.250,180.556,111.111,325.000,1108.333,8.333,N
873,-0.095,1.105,0.200,169.444,113.889,319.444,1072.222,36.111,N
874,-0.070,1.190,0.145,163.889,113.889,325.000,1044.444,27.778,N
875,-0.245,1.065,0.020,169.444,102.778,327.778,1091.667,47.222,N
876,-0.260,0.875,0.050,177.778,113.889,344.444,1141.667,50.000,N
877,-0.195,1.050,0.030,180.556,116.667,341.667,1136.111,5.556,N
878,-0.250,0.950,0.060,186.111,113.889,325.000,1088.889,47.222,N
879,-0.150,1.140,0.075,169.444,111.111,308.333,1047.222,41.667,N
880,-0.185,0.945,0.060,191.667,108.333,341.667,1075.000,27.778,N
881,-0.155,1.085,0.090,169.444,116.667,355.556,1194.444,119.444,N
882,-0.240,0.980,0.020,191.667,102.778,322.222,1155.556,38.889,N
883,-0.190,1.075,-0.045,177.778,100.000,325.000,1086.111,69.444,N
884,-0.185,1.060,0.145,180.556,102.778,322.222,1066.667,19.444,N
885,-0.090,1.200,0.235,163.889,113.889,341.667,1086.111,19.444,N
886,-0.035,1.100,0.195,172.222,102.778,327.778,1141.667,55.556,N
887,-0.020,1.400,0.205,166.667,116.667,341.667,1144.444,2.778,N
888,-0.060,1.155,0.195,194.444,102.778,325.000,1127.778,16.667,N
889,-0.005,1.400,0.200,166.667,113.889,322.222,1108.333,19.444,N
890,-0.090,1.205,0.110,166.667,116.667,322.222,1066.667,41.667,N
891,-0.180,1.150,0.140,194.444,113.889,341.667,1094.444,27.778,N
892,-0.180,1.160,0.070,191.667,102.778,322.222,1127.778,33.333,N
893,-0.230,1.070,0.075,169.444,116.667,338.889,1144.444,16.667,N
894,-0.155,1.270,0.140,188.889,102.778,311.111,1105.556,38.889,N
895,-0.155,1.185,0.105,183.333,116.667,327.778,1061.111,44.444,N
896,-0.080,1.035,0.155,175.000,111.111,330.556,1072.222,11.111,N
897,-0.135,1.315,0.175,197.222,91.667,344.444,1155.556,83.333,N
898,-0.055,1.355,0.035,188.889,80.556,325.000,1127.778,27.778,N
899,-0.180,1.360,0.170,169.444,113.889,319.444,1094.444,33.333,N
900,-0.215,1.265,0.130,163.889,116.667,327.778,1044.444,50.000,N
901,-0.060,1.415,0.140,175.000,105.556,327.778,1027.778,16.667,N
902,-0.070,1.435,0.195,186.111,113.889,358.333,1061.111,33.333,N
903,-0.080,1.315,0.165,175.000,83.333,341.667,1088.889,27.778,N
904,-0.115,1.360,0.220,172.222,113.889,330.556,1066.667,22.222,N
905,-0.105,1.350,0.315,166.667,113.889,325.000,1055.556,11.111,N
906,-0.005,1.375,0.160,161.111,108.333,311.111,1013.889,41.667,N
907,-0.075,1.315,0.130,169.444,111.111,319.444,1027.778,13.889,N
908,-0.160,1.370,0.090,169.444,111.111,338.889,1050.000,22.222,N
909,-0.105,1.245,0.200,175.000,113.889,338.889,1108.333,58.333,N
910,-0.035,1.465,0.260,80.556,113.889,325.000,1100.000,8.333,N
911,-0.005,1.380,0.220,177.778,111.111,311.111,1080.556,19.444,N
912,-0.080,1.300,0.185,163.889,116.667,322.222,1038.889,41.667,N
913,-0.165,1.365,0.150,169.444,116.667,327.778,1033.333,5.556,N
914,-0.155,1.170,0.215,191.667,105.556,347.222,1141.667,108.333,N
915,-0.015,1.405,0.290,183.333,116.667,338.889,1108.333,33.333,N
916,0.000,1.210,0.130,172.222,111.111,308.333,1075.000,33.333,N
917,-0.385,0.905,-0.345,175.000,80.556,313.889,1036.111,38.889,N
918,-0.260,1.490,0.230,172.222,102.778,313.889,1011.111,25.000,N
919,-0.135,1.490,0.155,188.889,111.111,341.667,1036.111,25.000,N
920,-0.140,1.670,0.090,150.000,116.667,344.444,1088.889,52.778,N
921,-0.160,1.650,0.050,172.222,111.111,336.111,1041.667,47.222,N
922,-0.280,1.510,0.080,175.000,116.667,322.222,1011.111,30.556,N
923,-0.165,1.625,0.190,155.556,105.556,308.333,1025.000,13.889,N
924,-0.190,1.625,0.075,163.889,116.667,313.889,988.889,36.111,N
925,-0.250,1.470,0.095,175.000,111.111,325.000,1044.444,55.556,N
926,-0.265,1.535,0.160,166.667,116.667,325.000,1125.000,80.556,N
927,-0.210,1.620,0.125,180.556,113.889,325.000,1077.778,47.222,N
928,-0.270,1.600,0.145,155.556,111.111,313.889,1094.444,16.667,N
929,-0.215,1.510,0.170,172.222,116.667,316.667,1050.000,44.444,N
930,-0.110,1.655,0.205,172.222,113.889,322.222,1063.889,13.889,N
931,-0.170,1.565,0.175,183.333,116.667,361.111,1180.556,116.667,N
932,-0.140,1.645,0.225,169.444,113.889,336.111,1152.778,27.778,N
933,-0.125,1.580,0.160,172.222,105.556,313.889,1083.333,69.444,N
934,-0.120,1.690,0.215,169.444,116.667,322.222,1097.222,13.889,N
935,-0.155,1.515,0.125,183.333,116.667,338.889,1083.333,13.889,N
936,-0.185,1.545,0.170,186.111,113.889,352.778,1166.667,83.333,N
937,-0.170,1.645,0.125,180.556,113.889,341.667,1163.889,2.778,N
938,-0.260,1.440,0.060,163.889,116.667,327.778,1150.000,13.889,N
939,-0.215,1.525,0.095,175.000,108.333,325.000,1111.111,38.889,N
940,-0.240,1.485,0.110,175.000,113.889,327.778,1102.778,8.333,N
941,-0.245,1.490,0.120,177.778,111.111,341.667,1133.333,30.556,N
942,-0.285,1.430,-0.010,163.889,113.889,341.667,1152.778,19.444,N
943,-0.355,1.245,-0.050,180.556,113.889,338.889,1166.667,13.889,N
944,-0.235,1.560,0.170,175.000,102.778,327.778,1141.667,25.000,N
945,-0.120,1.620,0.155,169.444,111.111,322.222,1063.889,77.778,N
946,-0.160,1.545,0.130,183.333,116.667,338.889,1097.222,33.333,N
947,-0.120,1.580,0.140,191.667,102.778,341.667,1158.333,61.111,N
948,-0.130,1.560,0.130,183.333,113.889,338.889,1188.889,30.556,N
949,-0.120,1.595,0.170,175.000,113.889,325.000,1130.556,58.333,N
950,-0.160,1.505,0.055,166.667,113.889,327.778,1069.444,61.111,N
951,-0.225,1.510,0.125,175.000,100.000,325.000,1094.444,25.000,N
952,-0.175,1.595,0.145,188.889,113.889,352.778,1161.111,66.667,N
953,-0.180,1.685,0.070,180.556,113.889,338.889,1158.333,2.778,N
954,-0.175,1.660,0.105,183.333,113.889,336.111,1155.556,2.778,N
955,-0.165,1.815,0.155,175.000,116.667,325.000,1119.444,36.111,N
956,-0.190,1.695,0.075,183.333,116.667,325.000,1097.222,22.222,N
957,-0.210,1.575,0.085,180.556,116.667,341.667,1130.556,33.333,N
958,-0.185,1.745,0.065,163.889,111.111,338.889,1163.889,33.333,N
959,-0.180,1.570,0.070,180.556,113.889,338.889,1169.444,5.556,N
960,-0.145,1.590,0.180,177.778,111.111,325.000,1127.778,41.667,N
961,-0.145,1.640,0.075,172.222,100.000,308.333,1097.222,30.556,N
962,-0.195,1.565,0.080,169.444,116.667,338.889,1127.778,30.556,N
963,-0.105,1.835,0.140,191.667,102.778,341.667,1172.222,44.444,N
964,-0.125,1.775,0.135,194.444,113.889,327.778,1188.889,16.667,N
965,-0.120,1.735,0.140,175.000,100.000,308.333,1161.111,27.778,N
966,-0.220,1.620,-0.020,172.222,116.667,325.000,1080.556,80.556,N
967,-0.230,1.590,0.105,175.000,100.000,325.000,1119.444,38.889,N
968,-0.185,1.810,0.090,186.111,113.889,355.556,1177.778,58.333,N
969,-0.160,1.720,0.235,158.333,105.556,325.000,1222.222,44.444,N
970,-0.040,1.925,0.215,175.000,113.889,319.444,1163.889,58.333,N
971,-0.080,1.845,0.225,169.444,113.889,322.222,1113.889,50.000,N
972,-0.050,1.970,0.255,183.333,116.667,338.889,1163.889,50.000,N
973,-0.065,1.820,0.225,186.111,116.667,338.889,1186.111,22.222,N
974,-0.075,1.785,0.215,188.889,111.111,338.889,1200.000,13.889,N
975,-0.065,1.675,0.160,194.444,111.111,325.000,1158.333,41.667,N
976,-0.130,1.670,0.210,177.778,113.889,327.778,1136.111,22.222,N
977,-0.065,1.715,0.125,175.000,102.778,322.222,1127.778,8.333,N
978,-0.125,1.640,0.165,183.333,113.889,341.667,1155.556,27.778,N
979,-0.090,1.620,0.240,188.889,105.556,344.444,1211.111,55.556,N
980,-0.010,1.780,0.205,177.778,111.111,325.000,1186.111,25.000,N
981,-0.030,1.685,0.230,175.000,108.333,305.556,1130.556,55.556,N
982,-0.055,1.695,0.235,186.111,113.889,322.222,1111.111,19.444,N
983,-0.105,1.660,0.155,177.778,111.111,347.222,1138.889,27.778,N
984,-0.105,1.660,0.200,191.667,111.111,338.889,1219.444,80.556,N
985,-0.095,1.595,0.235,191.667,105.556,322.222,1211.111,8.333,N
986,-0.100,1.740,0.195,169.444,116.667,322.222,1127.778,83.333,N
987,-0.135,1.625,0.200,183.333,116.667,338.889,1133.333,5.556,N
988,-0.070,1.770,0.175,191.667,102.778,341.667,1188.889,55.556,N
989,-0.105,1.645,0.210,197.222,113.889,336.111,1225.000,36.111,N
990,-0.060,1.750,0.225,186.111,108.333,341.667,1208.333,16.667,N
991,-0.070,1.635,0.210,191.667,105.556,325.000,1150.000,58.333,N
992,-0.075,1.670,0.270,172.222,102.778,322.222,1150.000,0.000,N
993,-0.065,1.715,0.190,186.111,102.778,338.889,1163.889,13.889,N
994,-0.100,1.640,0.220,188.889,111.111,341.667,1216.667,52.778,N
995,-0.075,1.710,0.165,191.667,102.778,344.444,1219.444,2.778,N
996,-0.130,1.595,0.190,175.000,105.556,325.000,1163.889,55.556,N
997,-0.100,1.705,0.135,152.778,116.667,325.000,1094.444,69.444,N
998,-0.125,1.550,0.175,183.333,113.889,341.667,1130.556,36.111,N
999,-0.045,1.690,0.170,194.444,111.111,355.556,1180.556,50.000,N
1000,-0.115,1.510,0.140,191.667,108.333,341.667,1197.222,16.667,N
1001,-0.150,1.570,0.155,169.444,111.111,336.111,1144.444,52.778,N
1002,-0.145,1.620,0.115,172.222,116.667,319.444,1083.333,61.111,N
1003,-0.145,1.560,0.190,169.444,116.667,352.778,1133.333,50.000,N
1004,-0.120,1.680,0.150,191.667,111.111,350.000,1202.778,69.444,N
1005,-0.135,1.620,0.120,197.222,116.667,341.667,1205.556,2.778,N
1006,-0.145,1.700,0.140,186.111,105.556,325.000,1175.000,30.556,N
1007,-0.175,1.655,0.140,177.778,113.889,325.000,1122.222,52.778,N
1008,-0.165,1.760,0.205,183.333,113.889,327.778,1150.000,27.778,N
1009,-0.090,1.775,0.165,194.444,113.889,344.444,1163.889,13.889,N
1010,-0.095,1.805,0.240,180.556,116.667,344.444,1188.889,25.000,N
1011,-0.060,1.800,0.255,194.444,108.333,322.222,1211.111,22.222,N
1012,-0.115,1.735,0.130,188.889,102.778,308.333,1130.556,80.556,N
1013,-0.155,1.740,0.185,180.556,113.889,325.000,1122.222,8.333,N
1014,-0.090,1.825,0.215,188.889,105.556,325.000,1177.778,55.556,N
1015,-0.085,1.760,0.210,197.222,113.889,341.667,1172.222,5.556,N
1016,-0.105,1.740,0.235,194.444,111.111,325.000,1213.889,41.667,N
1017,-0.110,1.780,0.265,183.333,113.889,322.222,1138.889,75.000,N
1018,-0.105,1.860,0.230,183.333,113.889,336.111,1105.556,33.333,N
1019,-0.135,1.745,0.205,183.333,116.667,344.444,1211.111,105.556,N
1020,-0.090,1.875,0.240,186.111,116.667,341.667,1236.111,25.000,N
1021,-0.080,1.790,0.230,188.889,113.889,336.111,1169.444,66.667,N
1022,-0.080,1.745,0.280,175.000,100.000,322.222,1136.111,33.333,N
1023,0.025,1.920,0.265,183.333,116.667,325.000,1108.333,27.778,N
1024,-0.005,1.840,0.295,183.333,116.667,341.667,1183.333,75.000,N
1025,-0.040,1.965,0.260,191.667,105.556,341.667,1208.333,25.000,N
1026,-0.015,1.835,0.275,194.444,111.111,338.889,1188.889,19.444,N
1027,-0.040,1.970,0.255,180.556,113.889,322.222,1169.444,19.444,N
1028,-0.080,1.805,0.225,177.778,113.889,308.333,1113.889,55.556,N
1029,-0.080,1.800,0.225,188.889,100.000,341.667,1144.444,30.556,N
1030,-0.130,1.790,0.170,166.667,116.667,341.667,1191.667,47.222,N
1031,-0.130,1.735,0.225,191.667,108.333,341.667,1211.111,19.444,N
1032,-0.115,1.820,0.190,155.556,105.556,325.000,1163.889,47.222,N
1033,-0.130,1.715,0.285,155.556,113.889,336.111,1113.889,50.000,N
1034,0.050,1.530,0.195,197.222,86.111,319.444,497.222,616.667,A
1035,-0.100,1.745,0.235,191.667,111.111,358.333,1455.556,958.333,N
1036,-0.135,0.795,0.320,197.222,113.889,327.778,555.556,900.000,a
1037,0.320,0.825,0.195,136.111,108.333,308.333,411.111,144.444,a
1038,-0.140,1.720,0.080,172.222,113.889,338.889,1047.222,636.111,N
1039,-0.085,1.395,-0.095,197.222,113.889,305.556,513.889,533.333,A
1040,-0.155,1.660,0.210,183.333,116.667,344.444,1347.222,833.333,N
1041,0.000,0.880,0.295,197.222,113.889,305.556,522.222,825.000,a
1042,-0.170,1.615,0.190,158.333,111.111,363.889,1386.111,863.889,N
1043,-0.075,1.285,0.185,197.222,86.111,322.222,555.556,830.556,a
1044,-0.140,1.660,0.200,188.889,116.667,350.000,1411.111,855.556,N
1045,-0.155,0.765,0.280,197.222,105.556,311.111,547.222,863.889,a
1046,0.280,0.875,0.190,136.111,100.000,288.889,397.222,150.000,a
1047,-0.160,1.720,0.090,183.333,116.667,325.000,980.556,583.333,N
1048,-0.080,1.355,-0.085,197.222,111.111,288.889,502.778,477.778,A
1049,-0.085,1.710,0.230,180.556,116.667,344.444,1361.111,858.333,N
1050,-0.055,0.880,0.385,197.222,116.667,325.000,552.778,808.333,a
1051,0.385,1.015,0.175,138.889,102.778,305.556,405.556,147.222,a
1052,-0.160,1.625,0.130,186.111,113.889,338.889,1063.889,658.333,N
1053,-0.105,1.340,-0.085,197.222,88.889,311.111,527.778,536.111,A
1054,-0.085,1.630,-0.200,161.111,108.333,305.556,413.889,113.889,A
1055,-0.160,1.630,0.015,180.556,113.889,322.222,1002.778,588.889,N
1056,-0.095,1.270,-0.100,191.667,100.000,291.667,491.667,511.111,A
1057,-0.180,1.640,0.150,163.889,113.889,341.667,1375.000,883.333,N
1058,-0.160,0.885,0.340,186.111,116.667,322.222,555.556,819.444,a
1059,0.340,1.060,0.135,158.333,108.333,308.333,422.222,133.333,a
1060,0.135,1.530,-0.265,191.667,108.333,325.000,450.000,27.778,N
1061,-0.315,1.395,-0.275,191.667,111.111,322.222,486.111,36.111,N
1062,-0.360,1.515,-0.245,161.111,108.333,341.667,580.556,94.444,N
1063,-0.280,1.550,-0.155,136.111,116.667,325.000,644.444,63.889,N
1064,-0.250,1.710,-0.205,66.667,111.111,302.778,544.444,100.000,N
1065,-0.260,1.485,-0.285,136.111,100.000,305.556,508.333,36.111,N
1066,-0.315,1.340,-0.200,186.111,105.556,294.444,480.556,27.778,N
1067,-0.215,1.265,-0.185,191.667,111.111,316.667,455.556,25.000,N
1068,-0.315,1.355,-0.305,58.333,111.111,341.667,602.778,147.222,N
1069,-0.315,1.430,-0.245,191.667,111.111,327.778,597.222,5.556,N
1070,-0.300,1.460,-0.245,66.667,116.667,319.444,511.111,86.111,N
1071,-0.245,1.375,-0.285,175.000,108.333,311.111,438.889,72.222,N
1072,-0.305,1.410,-0.245,55.556,105.556,327.778,730.556,291.667,N
1073,-0.330,1.330,-0.215,72.222,116.667,333.333,683.333,47.222,N
1074,-0.310,1.485,-0.215,58.333,113.889,311.111,555.556,127.778,N
1075,-0.200,1.475,-0.245,58.333,108.333,294.444,513.889,41.667,N
1076,-0.250,1.370,-0.255,66.667,113.889,291.667,475.000,38.889,N
1077,-0.310,1.370,-0.255,58.333,108.333,308.333,575.000,100.000,N
1078,-0.260,1.315,-0.250,186.111,116.667,305.556,461.111,113.889,N
1079,-0.250,1.440,-0.160,186.111,116.667,322.222,433.333,27.778,N
1080,-0.160,1.680,-0.265,58.333,111.111,341.667,625.000,191.667,N
1081,-0.250,1.520,-0.270,175.000,108.333,111.111,563.889,61.111,N
1082,-0.290,1.390,-0.210,61.111,111.111,358.333,636.111,72.222,N
1083,-0.225,1.430,-0.205,163.889,111.111,341.667,552.778,83.333,N
1084,-0.225,1.555,-0.220,63.889,116.667,308.333,536.111,16.667,N
1085,-0.230,1.705,-0.255,58.333,111.111,322.222,661.111,125.000,N
1086,-0.150,1.550,-0.075,194.444,111.111,325.000,1283.333,622.222,N
1087,-0.090,1.730,0.015,188.889,116.667,319.444,1175.000,108.333,N
1088,-0.185,1.565,-0.130,197.222,116.667,325.000,513.889,661.111,A
1089,-0.130,1.645,-0.215,180.556,113.889,327.778,447.222,66.667,A
1090,-0.155,1.655,0.075,169.444,113.889,336.111,1188.889,741.667,N
1091,-0.085,1.695,-0.075,197.222,80.556,291.667,522.222,666.667,A
1092,-0.075,1.690,-0.295,186.111,113.889,319.444,427.778,94.444,A
1093,-0.215,1.595,0.050,175.000,105.556,297.222,1072.222,644.444,N
1094,-0.130,1.530,-0.145,194.444,108.333,291.667,483.333,588.889,A
1095,-0.145,1.735,-0.305,163.889,111.111,305.556,405.556,77.778,A
1096,-0.265,1.590,-0.005,186.111,105.556,313.889,1075.000,669.444,N
1097,-0.285,1.480,-0.210,191.667,105.556,308.333,519.444,555.556,A
1098,-0.215,1.605,-0.320,197.222,116.667,330.556,472.222,47.222,A
1099,-0.255,1.655,-0.075,194.444,111.111,305.556,1097.222,625.000,N
1100,-0.195,1.525,-0.135,197.222,113.889,302.778,502.778,594.444,A
1101,-0.160,1.660,0.075,183.333,116.667,319.444,1436.111,933.333,N
1102,-0.135,1.120,0.135,197.222,88.889,280.556,505.556,930.556,a
1103,-0.215,1.650,-0.055,186.111,116.667,308.333,1411.111,905.556,N
1104,-0.185,0.710,0.225,194.444,108.333,305.556,491.667,919.444,a
1105,0.225,1.620,-0.205,163.889,83.333,291.667,419.444,72.222,A
1106,-0.165,1.635,0.070,191.667,113.889,308.333,1083.333,663.889,N
1107,-0.135,1.370,0.010,197.222,83.333,302.778,502.778,580.556,a
1108,0.010,1.720,-0.255,197.222,113.889,311.111,447.222,55.556,A
1109,-0.155,1.615,0.060,188.889,113.889,305.556,1025.000,577.778,N
1110,-0.115,1.735,-0.105,194.444,100.000,272.222,488.889,536.111,N
1111,-0.105,1.580,-0.280,188.889,105.556,294.444,416.667,72.222,N
1112,-0.285,1.585,-0.125,61.111,113.889,308.333,736.111,319.444,N
1113,-0.175,1.570,-0.200,125.000,113.889,300.000,544.444,191.667,N
1114,-0.235,1.660,-0.195,172.222,108.333,327.778,533.333,11.111,N
1115,-0.195,1.580,-0.270,186.111,113.889,116.667,463.889,69.444,N
1116,-0.240,1.580,-0.140,58.333,108.333,308.333,922.222,458.333,N
1117,-0.245,1.620,-0.155,80.556,116.667,311.111,672.222,250.000,N
1118,-0.255,1.620,-0.250,63.889,113.889,288.889,519.444,152.778,N
1119,-0.270,1.535,-0.150,69.444,113.889,302.778,619.444,100.000,N
1120,-0.305,1.505,-0.050,172.222,116.667,316.667,869.444,250.000,N
1121,-0.270,1.575,-0.210,130.556,113.889,275.000,575.000,294.444,N
1122,-0.240,1.655,-0.185,61.111,116.667,313.889,661.111,86.111,N
1123,-0.260,1.480,-0.265,58.333,113.889,294.444,500.000,161.111,N
1124,-0.305,1.475,-0.320,58.333,116.667,305.556,511.111,11.111,N
1125,-0.330,1.460,-0.325,136.111,100.000,375.000,583.333,72.222,N
1126,-0.290,1.485,-0.290,69.444,113.889,405.556,483.333,100.000,N
1127,-0.245,1.595,-0.345,55.556,102.778,397.222,469.444,13.889,N
1128,-0.275,1.560,-0.340,61.111,113.889,388.889,491.667,22.222,N
1129,-0.290,1.435,-0.320,58.333,116.667,402.778,472.222,19.444,N
1130,-0.270,1.275,-0.310,55.556,100.000,391.667,469.444,2.778,N
1131,-0.265,1.550,-0.225,127.778,102.778,341.667,552.778,83.333,N
1132,-0.235,1.710,-0.245,180.556,116.667,297.222,538.889,13.889,N
1133,-0.280,1.490,-0.155,183.333,113.889,319.444,886.111,347.222,N
1134,-0.250,1.445,-0.130,188.889,116.667,300.000,538.889,347.222,N
1135,-0.185,1.690,-0.115,63.889,116.667,308.333,625.000,86.111,N
1136,-0.150,1.680,-0.230,111.111,113.889,113.889,580.556,44.444,N
1137,-0.200,1.505,-0.305,55.556,102.778,294.444,494.444,86.111,N
1138,-0.255,1.435,-0.250,66.667,113.889,288.889,494.444,0.000,N
1139,-0.220,1.410,-0.200,58.333,113.889,297.222,472.222,22.222,N
1140,-0.210,1.465,-0.240,61.111,113.889,291.667,488.889,16.667,N
1141,-0.200,1.460,-0.185,58.333,111.111,300.000,477.778,11.111,N
1142,-0.155,1.650,-0.145,55.556,102.778,397.222,516.667,38.889,N
1143,-0.090,1.735,-0.140,66.667,113.889,402.778,475.000,41.667,N
1144,-0.095,1.635,-0.170,94.444,102.778,391.667,477.778,2.778,N
1145,-0.115,1.595,-0.180,55.556,102.778,291.667,480.556,2.778,N
1146,-0.120,1.520,-0.165,63.889,113.889,305.556,475.000,5.556,N
1147,-0.095,1.525,-0.150,52.778,105.556,394.444,522.222,47.222,N
1148,-0.060,1.580,-0.195,61.111,116.667,397.222,505.556,16.667,N
1149,-0.105,1.595,-0.180,52.778,102.778,391.667,513.889,8.333,N
1150,-0.135,1.445,-0.225,66.667,113.889,405.556,477.778,36.111,N
1151,-0.185,1.445,-0.195,58.333,111.111,394.444,508.333,30.556,N
1152,-0.145,1.575,-0.145,66.667,113.889,402.778,658.333,150.000,N
1153,-0.085,1.545,-0.165,108.333,100.000,391.667,488.889,169.444,N
1154,-0.155,1.590,-0.190,119.444,100.000,375.000,477.778,11.111,N
1155,-0.215,1.475,-0.220,77.778,102.778,375.000,658.333,180.556,N
1156,-0.185,1.470,-0.210,61.111,113.889,308.333,619.444,38.889,N
1157,-0.215,1.475,-0.230,97.222,116.667,394.444,552.778,66.667,N
1158,-0.185,1.645,-0.240,61.111,113.889,327.778,697.222,144.444,N
1159,-0.190,1.440,-0.320,91.667,105.556,394.444,544.444,152.778,N
1160,-0.270,1.380,-0.295,77.778,100.000,388.889,502.778,41.667,N
1161,-0.285,1.265,-0.400,111.111,105.556,125.000,483.333,19.444,N
1162,-0.370,1.365,-0.275,66.667,116.667,391.667,472.222,11.111,N
1163,-0.245,1.495,-0.290,55.556,105.556,394.444,441.667,30.556,N
1164,-0.290,1.440,-0.285,63.889,105.556,394.444,452.778,11.111,N
1165,-0.260,1.430,-0.220,58.333,111.111,402.778,461.111,8.333,N
1166,-0.205,1.365,-0.175,72.222,105.556,391.667,452.778,8.333,N
1167,-0.145,1.530,-0.150,69.444,116.667,405.556,444.444,8.333,N
1168,-0.150,1.910,-0.145,197.222,113.889,352.778,613.889,169.444,N
1169,-0.085,1.745,-0.250,97.222,113.889,402.778,613.889,0.000,N
1170,-0.100,1.465,-0.180,58.333,102.778,294.444,480.556,133.333,N
1171,-0.065,1.500,-0.160,63.889,113.889,397.222,486.111,5.556,N
1172,-0.065,1.560,-0.125,69.444,116.667,405.556,475.000,11.111,N
1173,-0.030,1.610,-0.130,80.556,113.889,402.778,491.667,16.667,N
1174,-0.080,1.675,-0.100,116.667,113.889,402.778,519.444,27.778,N
1175,-0.085,1.485,-0.150,77.778,113.889,377.778,463.889,55.556,N
1176,-0.135,1.475,-0.080,63.889,113.889,391.667,452.778,11.111,N
1177,-0.070,1.395,-0.080,55.556,97.222,377.778,438.889,13.889,N
1178,-0.060,1.610,-0.040,66.667,113.889,394.444,461.111,22.222,N
1179,-0.035,1.710,-0.110,61.111,113.889,391.667,413.889,47.222,N
1180,-0.095,1.520,-0.160,55.556,105.556,397.222,458.333,44.444,N
1181,-0.135,1.430,-0.155,127.778,100.000,375.000,505.556,47.222,N
1182,-0.140,1.320,-0.155,83.333,113.889,402.778,458.333,47.222,N
1183,-0.115,1.430,-0.160,86.111,116.667,405.556,483.333,25.000,N
1184,-0.095,1.505,-0.160,69.444,113.889,402.778,483.333,0.000,N
1185,-0.085,1.510,-0.215,61.111,113.889,391.667,494.444,11.111,N
1186,-0.140,1.375,-0.185,58.333,113.889,402.778,475.000,19.444,N
1187,-0.155,1.385,-0.145,58.333,100.000,394.444,502.778,27.778,N
1188,-0.125,1.325,-0.115,61.111,102.778,377.778,469.444,33.333,N
1189,-0.110,1.625,-0.105,66.667,116.667,391.667,638.889,169.444,N
1190,-0.090,1.565,-0.165,133.333,111.111,288.889,500.000,138.889,N
1191,-0.140,1.430,-0.125,122.222,108.333,341.667,625.000,125.000,N
1192,-0.135,1.425,-0.175,86.111,113.889,405.556,611.111,13.889,N
1193,-0.140,1.395,-0.165,52.778,102.778,288.889,475.000,136.111,N
1194,-0.130,1.580,-0.190,58.333,102.778,391.667,497.222,22.222,N
1195,-0.160,1.400,-0.240,61.111,116.667,397.222,469.444,27.778,N
1196,-0.225,1.325,-0.245,88.889,113.889,380.556,477.778,8.333,N
1197,-0.225,1.305,-0.235,72.222,105.556,341.667,483.333,5.556,N
1198,-0.235,1.455,-0.205,116.667,116.667,308.333,494.444,11.111,N
1199,-0.205,1.660,-0.185,116.667,116.667,291.667,466.667,27.778,N
1200,-0.190,1.570,-0.215,97.222,111.111,391.667,577.778,111.111,N
1201,-0.205,1.345,-0.240,55.556,102.778,394.444,427.778,150.000,N
1202,-0.240,1.380,-0.265,113.889,113.889,369.444,461.111,33.333,N
1203,-0.260,1.350,-0.230,69.444,113.889,388.889,436.111,25.000,N
1204,-0.220,1.550,-0.260,116.667,97.222,372.222,480.556,44.444,N
1205,-0.260,1.450,-0.325,66.667,102.778,361.111,466.667,13.889,N
1206,-0.345,1.345,-0.325,75.000,105.556,338.889,708.333,241.667,N
1207,-0.325,1.340,-0.330,172.222,100.000,391.667,461.111,247.222,N
1208,-0.330,1.630,-0.290,166.667,116.667,308.333,513.889,52.778,N
1209,-0.220,1.590,-0.265,105.556,111.111,400.000,588.889,75.000,N
1210,-0.235,1.335,-0.255,83.333,113.889,405.556,494.444,94.444,N
1211,-0.260,1.505,-0.275,141.667,108.333,366.667,638.889,144.444,N
1212,-0.230,1.430,-0.210,61.111,113.889,272.222,575.000,63.889,N
1213,-0.215,1.760,-0.185,172.222,105.556,294.444,572.222,2.778,N
1214,-0.220,1.625,-0.290,127.778,111.111,361.111,575.000,2.778,N
1215,-0.285,1.645,-0.230,163.889,116.667,308.333,522.222,52.778,N
1216,-0.255,1.630,-0.165,186.111,116.667,302.778,702.778,180.556,N
1217,-0.235,1.630,-0.265,136.111,113.889,402.778,583.333,119.444,N
1218,-0.165,1.670,-0.190,55.556,111.111,297.222,650.000,66.667,N
1219,-0.190,1.615,-0.215,150.000,105.556,330.556,577.778,72.222,N
1220,-0.195,1.695,-0.180,113.889,113.889,272.222,616.667,38.889,N
1221,-0.150,1.710,-0.160,50.000,102.778,394.444,638.889,22.222,N
1222,-0.155,1.760,-0.205,63.889,113.889,402.778,430.556,208.333,N
1223,-0.255,1.560,-0.305,119.444,116.667,352.778,669.444,238.889,N
1224,-0.305,1.520,-0.335,113.889,113.889,388.889,427.778,241.667,N
1225,-0.335,1.355,-0.355,102.778,100.000,388.889,438.889,11.111,N
1226,-0.335,1.435,-0.305,63.889,116.667,405.556,427.778,11.111,N
1227,-0.285,1.450,-0.350,66.667,113.889,402.778,450.000,22.222,N
1228,-0.300,1.375,-0.345,66.667,116.667,388.889,469.444,19.444,N
1229,-0.320,1.325,-0.350,86.111,116.667,388.889,466.667,2.778,N
1230,-0.320,1.360,-0.355,69.444,113.889,405.556,452.778,13.889,N
1231,-0.320,1.370,-0.305,102.778,116.667,372.222,497.222,44.444,N
1232,-0.280,1.485,-0.240,66.667,116.667,405.556,447.222,50.000,N
1233,-0.190,1.675,-0.160,58.333,102.778,391.667,644.444,197.222,N
1234,-0.145,1.490,-0.190,58.333,100.000,341.667,450.000,194.444,N
1235,-0.190,1.530,-0.200,155.556,97.222,338.889,444.444,5.556,N
1236,-0.220,1.635,-0.170,80.556,100.000,294.444,644.444,200.000,N
1237,-0.210,1.760,-0.090,186.111,116.667,288.889,502.778,141.667,N
1238,-0.165,1.775,-0.140,66.667,113.889,405.556,600.000,97.222,N
1239,-0.150,1.710,-0.165,172.222,100.000,325.000,705.556,105.556,N
1240,-0.195,1.665,-0.110,194.444,108.333,288.889,486.111,219.444,N
1241,-0.240,1.785,-0.110,183.333,116.667,291.667,488.889,2.778,N
1242,-0.125,1.785,-0.140,66.667,113.889,347.222,816.667,327.778,N
1243,-0.130,1.720,-0.175,86.111,100.000,305.556,469.444,347.222,N
1244,-0.175,1.690,-0.185,172.222,105.556,294.444,436.111,33.333,N
1245,-0.185,1.570,-0.185,175.000,113.889,311.111,422.222,13.889,N
1246,-0.185,1.565,-0.150,172.222,105.556,391.667,427.778,5.556,N
1247,-0.150,1.705,-0.140,86.111,113.889,372.222,430.556,2.778,N
1248,-0.140,1.590,-0.140,63.889,116.667,397.222,427.778,2.778,N
1249,-0.135,1.540,-0.160,80.556,113.889,391.667,433.333,5.556,N
1250,-0.160,1.510,-0.165,55.556,100.000,394.444,441.667,8.333,N
1251,-0.140,1.500,-0.150,58.333,105.556,397.222,436.111,5.556,N
1252,-0.135,1.550,-0.150,97.222,116.667,380.556,455.556,19.444,N
1253,-0.140,1.640,-0.175,72.222,105.556,397.222,458.333,2.778,N
1254,-0.150,1.595,-0.200,55.556,102.778,391.667,455.556,2.778,N
1255,-0.195,1.465,-0.250,55.556,102.778,358.333,497.222,41.667,N
1256,-0.250,1.335,-0.200,161.111,100.000,388.889,469.444,27.778,N
1257,-0.200,1.445,-0.190,86.111,113.889,388.889,425.000,44.444,N
1258,-0.185,1.440,-0.180,58.333,100.000,391.667,438.889,13.889,N
1259,-0.180,1.505,-0.195,61.111,113.889,375.000,422.222,16.667,N
1260,-0.195,1.670,-0.230,130.556,100.000,344.444,450.000,27.778,N
1261,-0.230,1.675,-0.215,172.222,113.889,272.222,475.000,25.000,N
1262,-0.195,1.600,-0.225,119.444,111.111,372.222,580.556,105.556,N
1263,-0.225,1.455,-0.165,158.333,111.111,291.667,491.667,88.889,N
1264,-0.225,1.585,-0.175,63.889,113.889,391.667,586.111,94.444,N
1265,-0.145,1.550,-0.190,58.333,111.111,391.667,480.556,105.556,N
1266,-0.160,1.545,-0.245,66.667,116.667,377.778,472.222,8.333,N
1267,-0.220,1.385,-0.285,100.000,116.667,363.889,463.889,8.333,N
1268,-0.275,1.305,-0.275,55.556,105.556,361.111,444.444,19.444,N
1269,-0.250,1.415,-0.225,66.667,111.111,388.889,441.667,2.778,N
1270,-0.220,1.410,-0.270,77.778,113.889,366.667,441.667,0.000,N
1271,-0.265,1.300,-0.340,75.000,108.333,366.667,433.333,8.333,N
1272,-0.340,1.240,-0.365,63.889,113.889,375.000,422.222,11.111,N
1273,-0.320,1.400,-0.260,133.333,111.111,388.889,619.444,197.222,N
1274,-0.235,1.585,-0.150,111.111,113.889,313.889,911.111,291.667,N
1275,-0.180,1.610,-0.205,136.111,113.889,405.556,608.333,302.778,N
1276,-0.205,1.435,-0.185,133.333,116.667,375.000,480.556,127.778,N
1277,-0.180,1.345,-0.300,55.556,102.778,386.111,455.556,25.000,N
1278,-0.245,1.420,-0.140,80.556,116.667,372.222,444.444,11.111,N
1279,-0.130,1.550,-0.235,80.556,111.111,375.000,461.111,16.667,N
1280,-0.230,1.415,-0.245,77.778,105.556,377.778,450.000,11.111,N
1281,-0.220,1.435,-0.190,66.667,116.667,361.111,452.778,2.778,N
1282,-0.190,1.360,-0.160,119.444,113.889,402.778,422.222,30.556,N
1283,-0.140,1.410,-0.135,63.889,113.889,375.000,427.778,5.556,N
1284,-0.135,1.445,-0.100,136.111,111.111,319.444,455.556,27.778,N
1285,-0.110,1.785,-0.095,163.889,116.667,308.333,477.778,22.222,N
1286,-0.095,1.895,-0.125,147.222,113.889,375.000,400.000,77.778,N
1287,-0.120,1.685,-0.150,66.667,102.778,341.667,422.222,22.222,N
1288,-0.150,1.565,-0.190,169.444,102.778,327.778,480.556,58.333,N
1289,-0.190,1.455,-0.185,188.889,102.778,311.111,472.222,8.333,N
1290,-0.205,1.505,-0.130,169.444,116.667,291.667,477.778,5.556,N
1291,-0.145,1.730,-0.095,166.667,113.889,341.667,863.889,386.111,N
1292,-0.095,1.640,-0.125,197.222,113.889,294.444,483.333,380.556,N
1293,-0.160,1.580,-0.165,138.889,100.000,325.000,841.667,358.333,N
1294,-0.165,1.565,-0.135,133.333,116.667,341.667,427.778,413.889,N
1295,-0.135,1.555,-0.135,152.778,100.000,305.556,436.111,8.333,N
1296,-0.135,1.485,-0.140,136.111,113.889,319.444,400.000,36.111,N
1297,-0.140,1.365,-0.150,144.444,113.889,330.556,408.333,8.333,N
1298,-0.150,1.435,-0.135,50.000,102.778,361.111,405.556,2.778,N
1299,-0.135,1.650,-0.095,144.444,111.111,325.000,461.111,55.556,N
1300,-0.125,1.645,-0.145,97.222,113.889,375.000,836.111,375.000,N
1301,-0.115,1.560,-0.180,63.889,113.889,377.778,466.667,369.444,N
1302,-0.180,1.460,-0.245,141.667,111.111,375.000,463.889,2.778,N
1303,-0.235,1.430,-0.245,94.444,100.000,341.667,450.000,13.889,N
1304,-0.250,1.470,-0.160,183.333,113.889,305.556,502.778,52.778,N
1305,-0.195,1.725,-0.110,186.111,116.667,283.333,458.333,44.444,N
1306,-0.115,0.355,0.335,183.333,102.778,261.111,611.111,152.778,V
1307,-0.150,1.625,-0.190,163.889,116.667,294.444,613.889,2.778,N
1308,-0.190,1.505,-0.170,172.222,100.000,291.667,408.333,205.556,N
1309,-0.175,1.560,-0.195,197.222,113.889,288.889,444.444,36.111,N
1310,-0.170,1.725,-0.150,61.111,88.889,383.333,827.778,383.333,N
1311,-0.140,1.590,-0.200,52.778,102.778,341.667,477.778,350.000,N
1312,-0.200,1.450,-0.200,158.333,102.778,375.000,455.556,22.222,N
1313,-0.195,1.450,-0.230,88.889,111.111,369.444,461.111,5.556,N
1314,-0.225,1.355,-0.230,69.444,113.889,402.778,433.333,27.778,N
1315,-0.220,1.345,-0.190,80.556,113.889,375.000,441.667,8.333,N
1316,-0.175,1.480,-0.145,63.889,116.667,358.333,436.111,5.556,N
1317,-0.140,1.460,-0.185,88.889,111.111,402.778,438.889,2.778,N
1318,-0.180,1.430,-0.195,58.333,113.889,405.556,430.556,8.333,N
1319,-0.195,1.350,-0.190,72.222,111.111,405.556,419.444,11.111,N
1320,-0.190,1.295,-0.170,69.444,111.111,402.778,416.667,2.778,N
1321,-0.170,1.360,-0.135,55.556,111.111,402.778,430.556,13.889,N
1322,-0.130,1.475,-0.180,61.111,113.889,375.000,411.111,19.444,N
1323,-0.180,1.520,-0.225,175.000,111.111,377.778,494.444,83.333,N
1324,-0.225,1.365,-0.235,113.889,111.111,388.889,438.889,55.556,N
1325,-0.235,1.325,-0.225,125.000,108.333,308.333,461.111,22.222,N
1326,-0.225,1.365,-0.230,63.889,116.667,377.778,422.222,38.889,N
1327,-0.205,1.200,-0.230,58.333,108.333,375.000,444.444,22.222,N
1328,-0.230,1.280,-0.220,66.667,116.667,375.000,425.000,19.444,N
1329,-0.210,1.345,-0.225,55.556,108.333,380.556,455.556,30.556,N
1330,-0.205,1.315,-0.205,88.889,111.111,386.111,450.000,5.556,N
1331,-0.190,1.315,-0.180,50.000,102.778,358.333,433.333,16.667,N
1332,-0.180,1.265,-0.205,97.222,113.889,308.333,441.667,8.333,N
1333,-0.205,1.335,-0.135,108.333,113.889,402.778,425.000,16.667,N
1334,-0.135,1.485,-0.105,50.000,102.778,261.111,394.444,30.556,N
1335,-0.140,1.580,-0.095,55.556,102.778,275.000,572.222,177.778,N
1336,-0.135,1.635,-0.145,58.333,111.111,308.333,1055.556,483.333,N
1337,-0.110,1.625,-0.045,55.556,111.111,311.111,1597.222,541.667,N
1338,-0.030,1.685,-0.100,191.667,102.778,272.222,1383.333,213.889,N
1339,-0.180,1.650,0.000,58.333,105.556,255.556,450.000,933.333,A
1340,0.035,1.710,-0.240,58.333,113.889,402.778,1630.556,1180.556,F
1341,-0.095,1.760,-0.070,58.333,105.556,258.333,469.444,1161.111,A
1342,-0.190,1.740,-0.170,69.444,113.889,305.556,511.111,41.667,A
1343,-0.125,1.715,-0.050,197.222,111.111,294.444,1255.556,744.444,N
1344,-0.105,1.790,-0.010,58.333,102.778,275.000,480.556,775.000,A
1345,-0.025,1.815,-0.020,183.333,116.667,288.889,1561.111,1080.556,N
1346,-0.040,1.840,0.085,100.000,116.667,272.222,466.667,1094.444,N
1347,-0.020,1.975,-0.050,63.889,116.667,277.778,447.222,19.444,N
1348,-0.140,1.855,-0.120,58.333,116.667,291.667,886.111,438.889,N
1349,-0.105,1.750,-0.120,188.889,111.111,286.111,638.889,247.222,N
1350,-0.095,1.720,0.025,66.667,113.889,288.889,791.667,152.778,N
1351,-0.095,1.830,-0.040,138.889,116.667,291.667,605.556,186.111,N
1352,-0.155,1.805,-0.085,58.333,116.667,272.222,483.333,122.222,N
1353,-0.230,1.565,-0.150,58.333,113.889,275.000,525.000,41.667,N
1354,-0.210,1.725,-0.060,133.333,116.667,275.000,705.556,180.556,N
1355,-0.090,1.875,-0.070,72.222,102.778,275.000,1286.111,580.556,N
1356,-0.105,1.850,0.055,72.222,111.111,283.333,702.778,583.333,N
1357,-0.070,1.855,0.020,127.778,105.556,258.333,533.333,169.444,N
1358,-0.115,1.780,-0.135,63.889,113.889,272.222,591.667,58.333,N
1359,-0.150,1.785,-0.040,69.444,113.889,305.556,819.444,227.778,N
1360,-0.150,1.665,-0.135,58.333,105.556,258.333,488.889,330.556,N
1361,-0.190,1.740,-0.170,194.444,113.889,291.667,438.889,50.000,N
1362,-0.215,1.760,-0.180,63.889,116.667,308.333,852.778,413.889,N
1363,-0.205,1.790,-0.185,50.000,102.778,394.444,872.222,19.444,N
1364,-0.185,1.735,-0.165,141.667,113.889,261.111,488.889,383.333,N
1365,-0.260,1.695,-0.225,55.556,111.111,277.778,800.000,311.111,N
1366,-0.235,1.690,-0.160,86.111,113.889,291.667,758.333,41.667,N
1367,-0.230,1.685,-0.260,105.556,105.556,280.556,552.778,205.556,N
1368,-0.260,1.675,-0.205,58.333,111.111,291.667,455.556,97.222,N
1369,-0.265,1.400,-0.235,61.111,111.111,308.333,919.444,463.889,N
1370,-0.225,1.380,-0.150,58.333,102.778,291.667,730.556,188.889,N
1371,-0.215,1.620,-0.105,197.222,116.667,272.222,458.333,272.222,N
1372,-0.200,1.535,-0.190,69.444,116.667,405.556,450.000,8.333,N
1373,-0.205,1.615,-0.170,161.111,108.333,272.222,391.667,58.333,N
1374,-0.175,1.590,-0.140,186.111,116.667,322.222,758.333,366.667,N
1375,-0.165,1.605,-0.225,183.333,116.667,288.889,633.333,125.000,N
1376,-0.225,1.470,-0.150,58.333,105.556,277.778,505.556,127.778,N
1377,-0.195,1.530,-0.120,100.000,116.667,305.556,577.778,72.222,N
1378,-0.170,1.585,-0.120,100.000,113.889,294.444,597.222,19.444,N
1379,-0.170,1.475,-0.095,58.333,113.889,286.111,522.222,75.000,N
1380,-0.130,1.600,-0.090,191.667,111.111,308.333,588.889,66.667,N
1381,-0.090,1.680,-0.135,183.333,116.667,277.778,438.889,150.000,N
1382,-0.195,1.555,-0.170,100.000,116.667,305.556,469.444,30.556,N
1383,-0.185,1.440,-0.095,55.556,102.778,288.889,741.667,272.222,N
1384,-0.170,1.400,0.025,191.667,105.556,402.778,550.000,191.667,N
1385,-0.200,1.565,-0.020,150.000,116.667,269.444,375.000,175.000,N
1386,-0.060,1.480,0.065,119.444,113.889,402.778,452.778,77.778,N
1387,0.090,1.645,0.140,197.222,116.667,305.556,580.556,127.778,N
1388,-0.040,1.375,-0.085,105.556,102.778,291.667,669.444,88.889,N
1389,-0.160,1.345,-0.125,130.556,111.111,288.889,741.667,72.222,N
1390,-0.150,1.375,-0.175,197.222,113.889,291.667,450.000,291.667,N
1391,-0.250,1.230,-0.155,122.222,116.667,305.556,591.667,141.667,N
1392,-0.155,1.335,-0.145,191.667,111.111,275.000,438.889,152.778,N
1393,-0.240,1.270,-0.165,55.556,102.778,291.667,663.889,225.000,N
1394,-0.165,1.245,-0.260,183.333,116.667,275.000,427.778,236.111,N
1395,-0.235,1.305,-0.070,102.778,116.667,305.556,933.333,505.556,N
1396,-0.145,1.350,-0.235,197.222,113.889,191.667,594.444,338.889,N
1397,-0.180,1.265,-0.115,66.667,105.556,277.778,722.222,127.778,N
1398,-0.135,1.325,-0.110,72.222,105.556,275.000,722.222,0.000,N
1399,-0.165,1.265,-0.035,158.333,111.111,283.333,816.667,94.444,N
1400,-0.140,1.230,0.000,158.333,105.556,272.222,566.667,250.000,N
1401,-0.135,1.390,-0.015,55.556,105.556,277.778,650.000,83.333,N
1402,-0.095,1.290,0.005,197.222,113.889,258.333,488.889,161.111,N
1403,-0.090,1.485,0.030,144.444,108.333,255.556,630.556,141.667,N
1404,-0.055,1.420,0.615,138.889,108.333,397.222,511.111,119.444,N
1405,0.000,0.595,0.205,111.111,111.111,111.111,322.222,188.889,a
1406,0.090,0.570,0.330,125.000,108.333,108.333,397.222,75.000,a
1407,-0.155,1.245,-0.050,52.778,102.778,275.000,633.333,236.111,N
1408,-0.055,1.345,-0.010,63.889,113.889,308.333,905.556,272.222,N
1409,-0.015,1.340,0.030,58.333,105.556,272.222,561.111,344.444,N
1410,-0.050,1.610,0.045,91.667,111.111,308.333,1102.778,541.667,N
1411,-0.005,1.430,0.085,80.556,113.889,275.000,569.444,533.333,N
1412,0.085,1.515,0.025,161.111,111.111,258.333,380.556,188.889,N
1413,-0.140,1.480,-0.030,58.333,113.889,286.111,577.778,197.222,N
1414,-0.115,1.480,0.010,55.556,108.333,258.333,619.444,41.667,N
1415,-0.070,1.610,0.005,150.000,113.889,288.889,691.667,72.222,N
1416,-0.100,1.540,-0.050,55.556,111.111,277.778,758.333,66.667,N
1417,-0.090,1.380,0.065,75.000,102.778,277.778,750.000,8.333,N
1418,-0.100,1.420,0.090,177.778,105.556,275.000,802.778,52.778,N
1419,-0.015,1.580,0.080,191.667,116.667,283.333,713.889,88.889,N
1420,0.000,1.565,0.035,194.444,113.889,269.444,447.222,266.667,N
1421,-0.090,1.350,-0.095,83.333,116.667,288.889,713.889,266.667,N
1422,-0.165,1.315,-0.075,105.556,111.111,266.667,619.444,94.444,N
1423,-0.155,1.255,0.040,58.333,102.778,275.000,736.111,116.667,N
1424,-0.095,1.410,-0.075,130.556,116.667,275.000,558.333,177.778,N
1425,-0.195,1.315,-0.095,66.667,116.667,275.000,683.333,125.000,N
1426,-0.200,1.235,-0.030,75.000,116.667,286.111,805.556,122.222,N
1427,-0.185,1.270,-0.020,158.333,100.000,291.667,786.111,19.444,N
1428,-0.185,1.400,-0.075,63.889,116.667,294.444,788.889,2.778,N
1429,-0.150,1.215,-0.130,83.333,116.667,291.667,502.778,286.111,N
1430,-0.215,1.315,-0.075,188.889,111.111,269.444,788.889,286.111,N
1431,-0.185,1.330,-0.050,125.000,102.778,275.000,936.111,147.222,N
1432,-0.155,1.325,0.000,94.444,111.111,275.000,552.778,383.333,N
1433,-0.235,1.345,-0.140,144.444,116.667,280.556,550.000,2.778,N
1434,-0.190,1.370,-0.015,77.778,111.111,291.667,900.000,350.000,N
1435,-0.110,1.380,-0.060,63.889,116.667,288.889,591.667,308.333,N
1436,-0.180,1.370,-0.045,155.556,102.778,275.000,669.444,77.778,N
1437,-0.140,1.365,-0.030,55.556,102.778,280.556,569.444,100.000,N
1438,-0.135,1.545,-0.060,97.222,113.889,291.667,738.889,169.444,N
1439,-0.080,1.495,0.005,191.667,108.333,263.889,644.444,94.444,N
1440,-0.120,1.390,-0.005,83.333,113.889,269.444,561.111,83.333,N
1441,-0.150,1.450,-0.010,133.333,116.667,275.000,716.667,155.556,N
1442,-0.110,1.455,-0.070,141.667,113.889,250.000,488.889,227.778,N
1443,-0.185,1.420,-0.125,125.000,108.333,272.222,452.778,36.111,N
1444,-0.185,1.420,-0.090,133.333,116.667,305.556,841.667,388.889,N
1445,-0.185,1.370,-0.075,125.000,102.778,275.000,638.889,202.778,N
1446,-0.230,1.345,-0.090,83.333,102.778,275.000,544.444,94.444,N
1447,-0.210,1.490,-0.180,75.000,100.000,275.000,655.556,111.111,N
1448,-0.200,1.380,-0.125,197.222,116.667,275.000,458.333,197.222,N
1449,-0.250,1.260,-0.200,191.667,111.111,277.778,561.111,102.778,N
1450,-0.300,1.360,-0.185,61.111,111.111,291.667,783.333,222.222,N
1451,-0.225,1.420,-0.105,113.889,111.111,288.889,719.444,63.889,N
1452,-0.150,1.655,-0.135,188.889,108.333,283.333,641.667,77.778,N
1453,-0.200,1.465,-0.125,58.333,113.889,275.000,575.000,66.667,N
1454,-0.205,1.475,-0.055,197.222,113.889,288.889,669.444,94.444,N
1455,-0.175,1.465,-0.050,66.667,113.889,291.667,752.778,83.333,N
1456,-0.150,1.240,-0.050,77.778,113.889,291.667,591.667,161.111,N
1457,-0.185,1.365,-0.080,111.111,113.889,275.000,566.667,25.000,N
1458,-0.185,1.470,-0.160,188.889,102.778,255.556,461.111,105.556,N
1459,-0.225,1.435,-0.200,141.667,108.333,261.111,636.111,175.000,N
1460,-0.200,1.225,-0.130,113.889,116.667,277.778,738.889,102.778,N
1461,-0.105,1.350,0.060,102.778,100.000,275.000,1172.222,433.333,N
1462,-0.120,1.535,-0.070,152.778,113.889,294.444,750.000,422.222,N
1463,-0.135,1.490,-0.045,55.556,111.111,294.444,838.889,88.889,N
1464,-0.160,1.470,-0.005,66.667,116.667,291.667,758.333,80.556,N
1465,-0.170,1.560,-0.010,125.000,102.778,275.000,725.000,33.333,N
1466,-0.160,1.530,-0.035,130.556,111.111,272.222,638.889,86.111,N
1467,-0.190,1.425,-0.005,155.556,105.556,272.222,808.333,169.444,N
1468,-0.215,1.385,-0.025,105.556,102.778,272.222,766.667,41.667,N
1469,-0.180,1.445,-0.080,58.333,113.889,283.333,583.333,183.333,N
1470,-0.225,1.480,-0.075,191.667,113.889,283.333,900.000,316.667,N
1471,-0.245,1.245,-0.175,152.778,113.889,291.667,563.889,336.111,N
1472,-0.305,1.345,-0.140,136.111,113.889,302.778,650.000,86.111,N
1473,-0.180,1.410,-0.245,197.222,116.667,294.444,461.111,188.889,N
1474,-0.305,1.270,-0.215,172.222,111.111,302.778,691.667,230.556,N
1475,-0.270,1.105,-0.235,88.889,113.889,277.778,513.889,177.778,N
1476,-0.340,1.265,-0.250,58.333,116.667,277.778,594.444,80.556,N
1477,-0.280,1.390,-0.230,155.556,102.778,275.000,591.667,2.778,N
1478,-0.325,1.380,-0.190,55.556,111.111,291.667,736.111,144.444,N
1479,-0.260,1.375,-0.200,155.556,108.333,283.333,613.889,122.222,N
1480,-0.250,1.330,-0.105,55.556,102.778,291.667,916.667,302.778,N
1481,-0.205,1.450,-0.135,69.444,116.667,305.556,1211.111,294.444,N
1482,-0.215,1.320,-0.035,52.778,102.778,275.000,869.444,341.667,N
1483,-0.180,1.455,-0.105,97.222,113.889,272.222,611.111,258.333,N
1484,-0.255,1.365,-0.100,52.778,102.778,263.889,736.111,125.000,N
1485,-0.230,1.305,-0.070,125.000,102.778,275.000,822.222,86.111,N
1486,-0.180,1.285,-0.110,55.556,100.000,272.222,483.333,338.889,N
1487,-0.200,1.450,-0.105,61.111,111.111,305.556,805.556,322.222,N
1488,-0.215,1.185,-0.165,52.778,105.556,277.778,558.333,247.222,N
1489,-0.265,1.190,-0.125,80.556,113.889,291.667,608.333,50.000,N
1490,-0.250,1.370,-0.145,66.667,116.667,275.000,702.778,94.444,N
1491,-0.195,1.350,-0.130,55.556,105.556,275.000,522.222,180.556,N
1492,-0.210,1.375,-0.075,63.889,111.111,288.889,691.667,169.444,N
1493,-0.075,1.330,-0.065,194.444,108.333,272.222,430.556,261.111,N
1494,-0.205,1.305,-0.160,61.111,102.778,275.000,447.222,16.667,N
1495,-0.240,1.390,-0.190,50.000,102.778,261.111,627.778,180.556,N
1496,-0.235,1.325,-0.250,141.667,100.000,272.222,652.778,25.000,N
1497,-0.250,1.195,-0.175,155.556,102.778,277.778,483.333,169.444,N
1498,-0.280,1.265,-0.175,63.889,116.667,305.556,627.778,144.444,N
1499,-0.230,1.505,-0.205,102.778,102.778,325.000,1052.778,425.000,N
1500,-0.185,1.290,-0.120,69.444,113.889,288.889,550.000,502.778,N
1501,-0.235,1.360,-0.165,116.667,116.667,294.444,761.111,211.111,N
1502,-0.155,1.170,-0.145,50.000,100.000,269.444,505.556,255.556,N
1503,-0.210,1.405,-0.180,58.333,111.111,355.556,508.333,2.778,N
1504,-0.180,1.335,-0.130,122.222,102.778,277.778,425.000,83.333,N
1505,-0.200,1.360,-0.160,166.667,105.556,258.333,566.667,141.667,N
1506,-0.175,1.210,-0.140,88.889,105.556,263.889,452.778,113.889,N
1507,-0.200,1.435,-0.165,172.222,116.667,402.778,597.222,144.444,N
1508,-0.160,1.410,-0.165,63.889,113.889,372.222,794.444,197.222,N
1509,-0.155,1.260,-0.085,94.444,113.889,311.111,827.778,33.333,N
1510,-0.175,1.310,-0.090,147.222,116.667,297.222,638.889,188.889,N
1511,-0.220,1.430,-0.125,66.667,116.667,305.556,636.111,2.778,N
1512,-0.250,1.435,-0.185,194.444,108.333,263.889,658.333,22.222,N
1513,-0.205,1.335,-0.065,86.111,116.667,288.889,808.333,150.000,N
1514,-0.245,1.220,-0.185,113.889,113.889,275.000,511.111,297.222,N
1515,-0.200,1.395,-0.145,66.667,116.667,291.667,669.444,158.333,N
1516,-0.225,1.300,-0.165,152.778,116.667,288.889,586.111,83.333,N
1517,-0.245,1.305,-0.080,69.444,116.667,305.556,750.000,163.889,N
1518,-0.190,1.405,-0.125,105.556,113.889,302.778,669.444,80.556,N
1519,-0.225,1.385,-0.155,80.556,105.556,277.778,505.556,163.889,N
1520,-0.300,1.280,-0.245,105.556,105.556,275.000,630.556,125.000,N
1521,-0.240,1.195,-0.115,61.111,102.778,288.889,872.222,241.667,N
1522,-0.200,1.325,-0.165,172.222,113.889,300.000,627.778,244.444,N
1523,-0.250,1.290,-0.135,94.444,111.111,275.000,686.111,58.333,N
1524,-0.145,1.265,-0.140,194.444,113.889,277.778,433.333,252.778,N
1525,-0.240,1.370,-0.160,77.778,113.889,311.111,683.333,250.000,N
1526,-0.225,1.275,-0.225,61.111,111.111,294.444,680.556,2.778,N
1527,-0.275,1.120,-0.160,69.444,113.889,288.889,477.778,202.778,N
1528,-0.330,1.240,-0.270,188.889,113.889,302.778,586.111,108.333,N
1529,-0.335,1.155,-0.265,138.889,105.556,261.111,563.889,22.222,N
1530,-0.350,1.225,-0.350,66.667,116.667,288.889,613.889,50.000,N
1531,-0.360,1.035,-0.330,197.222,113.889,291.667,613.889,0.000,N
1532,-0.355,1.025,-0.305,197.222,116.667,272.222,450.000,163.889,N
1533,-0.340,1.095,-0.260,155.556,111.111,283.333,588.889,138.889,N
1534,-0.380,1.350,-0.330,55.556,108.333,280.556,586.111,2.778,N
1535,-0.350,1.230,-0.290,116.667,116.667,275.000,441.667,144.444,N
1536,-0.310,1.225,-0.275,72.222,116.667,305.556,738.889,297.222,N
1537,-0.320,1.175,-0.245,133.333,116.667,288.889,463.889,275.000,N
1538,-0.255,1.375,-0.265,175.000,105.556,313.889,688.889,225.000,N
1539,-0.280,1.285,-0.175,94.444,116.667,308.333,725.000,36.111,N
1540,-0.250,1.360,-0.155,58.333,116.667,288.889,852.778,127.778,N
1541,-0.265,1.450,-0.185,97.222,116.667,294.444,811.111,41.667,N
1542,-0.250,1.380,-0.170,55.556,102.778,275.000,677.778,133.333,N
1543,-0.205,1.285,-0.085,58.333,105.556,280.556,766.667,88.889,N
1544,-0.205,1.265,-0.100,52.778,102.778,288.889,613.889,152.778,N
1545,-0.250,1.460,-0.170,66.667,116.667,288.889,627.778,13.889,N
1546,-0.235,1.310,-0.155,125.000,113.889,300.000,891.667,263.889,N
1547,-0.215,1.305,-0.105,147.222,116.667,291.667,775.000,116.667,N
1548,-0.220,1.400,-0.140,69.444,113.889,288.889,586.111,188.889,N
1549,-0.235,1.435,-0.180,55.556,100.000,288.889,622.222,36.111,N
1550,-0.180,1.420,-0.085,52.778,102.778,272.222,794.444,172.222,N
1551,-0.180,1.365,-0.055,116.667,116.667,275.000,647.222,147.222,N
1552,-0.180,1.560,-0.050,152.778,113.889,288.889,686.111,38.889,N
1553,-0.145,1.540,-0.070,144.444,113.889,291.667,627.778,58.333,N
1554,-0.155,1.495,-0.055,69.444,116.667,308.333,652.778,25.000,N
1555,-0.220,1.450,-0.125,172.222,111.111,288.889,652.778,0.000,N
1556,-0.160,1.445,-0.100,86.111,113.889,308.333,816.667,163.889,N
1557,-0.115,1.480,-0.005,111.111,111.111,288.889,894.444,77.778,N
1558,-0.075,1.555,0.025,130.556,116.667,244.444,650.000,244.444,N
1559,-0.065,1.565,0.040,141.667,108.333,277.778,444.444,205.556,N
1560,-0.125,1.560,-0.105,158.333,113.889,297.222,700.000,255.556,N
1561,-0.135,1.405,-0.155,177.778,111.111,294.444,550.000,150.000,N
1562,-0.175,1.395,-0.100,100.000,116.667,305.556,641.667,91.667,N
1563,-0.195,1.375,-0.120,58.333,111.111,330.556,758.333,116.667,N
1564,-0.200,1.475,-0.150,63.889,116.667,305.556,825.000,66.667,N
1565,-0.180,1.405,-0.155,197.222,113.889,291.667,630.556,194.444,N
1566,-0.210,1.410,-0.105,177.778,113.889,288.889,633.333,2.778,N
1567,-0.260,1.135,-0.150,150.000,113.889,272.222,519.444,113.889,N
1568,-0.245,1.220,-0.170,63.889,113.889,291.667,647.222,127.778,N
1569,-0.250,1.350,-0.220,169.444,116.667,275.000,686.111,38.889,N
1570,-0.255,1.330,-0.155,86.111,116.667,308.333,833.333,147.222,N
1571,-0.230,1.250,-0.160,55.556,105.556,308.333,738.889,94.444,N
1572,-0.250,1.230,-0.125,55.556,100.000,291.667,633.333,105.556,N
1573,-0.255,1.390,-0.140,116.667,116.667,286.111,680.556,47.222,N
1574,-0.220,1.525,-0.160,58.333,116.667,280.556,722.222,41.667,N
1575,-0.205,1.440,-0.110,152.778,116.667,272.222,641.667,80.556,N
1576,-0.230,1.120,-0.155,88.889,108.333,261.111,486.111,155.556,N
1577,-0.265,1.305,-0.115,91.667,111.111,275.000,722.222,236.111,N
1578,-0.135,1.505,-0.130,58.333,83.333,291.667,930.556,208.333,N
1579,-0.145,1.360,-0.075,136.111,116.667,291.667,541.667,388.889,N
1580,-0.115,1.495,-0.075,58.333,108.333,288.889,977.778,436.111,N
1581,-0.145,1.290,-0.140,75.000,105.556,277.778,563.889,413.889,N
1582,-0.210,1.545,-0.195,183.333,113.889,308.333,644.444,80.556,N
1583,-0.240,1.370,-0.175,105.556,111.111,302.778,619.444,25.000,N
1584,-0.175,1.270,-0.220,180.556,113.889,291.667,425.000,194.444,N
1585,-0.295,1.305,-0.185,119.444,113.889,305.556,638.889,213.889,N
1586,-0.220,1.345,-0.215,136.111,116.667,255.556,550.000,88.889,N
1587,-0.200,1.390,-0.205,58.333,113.889,288.889,627.778,77.778,N
1588,-0.185,1.175,-0.170,58.333,116.667,283.333,480.556,147.222,N
1589,-0.250,1.275,-0.195,116.667,116.667,294.444,588.889,108.333,N
1590,-0.170,1.425,-0.115,127.778,113.889,308.333,663.889,75.000,N
1591,-0.170,1.535,-0.125,61.111,113.889,308.333,633.333,30.556,N
1592,-0.125,1.370,-0.150,197.222,113.889,291.667,450.000,183.333,N
1593,-0.220,1.230,-0.180,58.333,111.111,300.000,527.778,77.778,N
1594,-0.210,1.210,-0.220,194.444,111.111,294.444,452.778,75.000,N
1595,-0.175,1.470,-0.125,144.444,105.556,308.333,883.333,430.556,N
1596,-0.195,1.475,-0.180,63.889,116.667,311.111,702.778,180.556,N
1597,-0.205,1.400,-0.150,119.444,116.667,269.444,558.333,144.444,N
1598,-0.205,1.285,-0.095,63.889,113.889,272.222,461.111,97.222,N
1599,-0.175,1.360,-0.160,188.889,113.889,283.333,438.889,22.222,N
1600,-0.155,1.480,-0.105,97.222,111.111,305.556,641.667,202.778,N
1601,-0.135,1.305,-0.080,127.778,111.111,291.667,530.556,111.111,N
1602,-0.080,1.520,-0.055,152.778,116.667,288.889,391.667,138.889,N
1603,-0.115,1.405,-0.095,61.111,113.889,308.333,661.111,269.444,N
1604,-0.100,1.550,-0.065,161.111,111.111,291.667,647.222,13.889,N
1605,-0.085,1.470,-0.130,55.556,105.556,277.778,561.111,86.111,N
1606,-0.130,1.460,-0.075,155.556,102.778,277.778,750.000,188.889,N
1607,-0.075,1.340,-0.020,180.556,113.889,275.000,411.111,338.889,N
1608,-0.145,1.310,-0.095,63.889,111.111,288.889,483.333,72.222,N
1609,-0.085,1.555,-0.055,66.667,113.889,305.556,702.778,219.444,N
1610,-0.035,1.490,-0.010,61.111,116.667,313.889,861.111,158.333,N
1611,-0.035,1.445,0.025,55.556,102.778,308.333,744.444,116.667,N
1612,-0.050,1.645,0.005,63.889,113.889,258.333,805.556,61.111,N
1613,-0.030,1.665,-0.035,133.333,116.667,275.000,602.778,202.778,N
1614,-0.100,1.460,-0.015,97.222,116.667,294.444,866.667,263.889,N
1615,-0.105,1.285,-0.055,58.333,102.778,275.000,475.000,391.667,N
1616,-0.160,1.620,-0.110,163.889,113.889,277.778,605.556,130.556,N
1617,-0.195,1.525,-0.135,188.889,113.889,288.889,738.889,133.333,N
1618,-0.130,1.445,0.005,58.333,111.111,305.556,1091.667,352.778,N
1619,-0.130,1.720,-0.085,55.556,113.889,294.444,886.111,205.556,N
1620,-0.105,1.470,-0.025,91.667,102.778,277.778,594.444,291.667,N
1621,-0.155,1.420,0.015,55.556,100.000,291.667,766.667,172.222,N
1622,-0.150,1.410,-0.035,136.111,116.667,288.889,577.778,188.889,N
1623,-0.180,1.615,-0.135,61.111,116.667,280.556,841.667,263.889,N
1624,-0.155,1.375,-0.075,161.111,111.111,263.889,630.556,211.111,N
1625,-0.075,1.355,-0.045,191.667,111.111,275.000,402.778,227.778,N
1626,-0.140,1.290,-0.190,52.778,102.778,275.000,441.667,38.889,N
1627,-0.215,1.450,-0.195,61.111,116.667,308.333,661.111,219.444,N
1628,-0.225,1.210,-0.240,63.889,116.667,311.111,516.667,144.444,N
1629,-0.220,1.235,-0.075,58.333,113.889,302.778,775.000,258.333,N
1630,-0.130,1.230,-0.130,61.111,113.889,294.444,488.889,286.111,N
1631,-0.160,1.430,-0.160,169.444,113.889,302.778,691.667,202.778,N
1632,-0.235,1.240,-0.185,133.333,116.667,291.667,897.222,205.556,N
1633,-0.160,1.470,-0.100,88.889,113.889,305.556,919.444,22.222,N
1634,-0.105,1.290,-0.025,55.556,105.556,263.889,519.444,400.000,N
1635,-0.100,1.345,-0.155,197.222,108.333,283.333,433.333,86.111,N
1636,-0.215,1.160,-0.185,61.111,108.333,305.556,488.889,55.556,N
1637,-0.150,1.435,-0.095,61.111,113.889,325.000,869.444,380.556,N
1638,-0.145,1.490,-0.180,69.444,113.889,288.889,688.889,180.556,N
1639,-0.145,1.380,-0.130,80.556,113.889,291.667,611.111,77.778,N
1640,-0.170,1.250,-0.135,169.444,113.889,275.000,552.778,58.333,N
1641,-0.150,1.360,-0.105,152.778,113.889,302.778,752.778,200.000,N
1642,-0.225,1.345,-0.185,175.000,113.889,297.222,722.222,30.556,N
1643,-0.215,1.235,-0.190,58.333,108.333,261.111,450.000,272.222,N
1644,-0.265,1.315,-0.200,58.333,116.667,288.889,575.000,125.000,N
1645,-0.265,1.140,-0.215,63.889,116.667,294.444,513.889,61.111,N
1646,-0.245,1.415,-0.210,63.889,113.889,338.889,700.000,186.111,N
1647,-0.235,1.265,-0.260,55.556,108.333,244.444,675.000,25.000,N
1648,-0.270,1.320,-0.185,58.333,113.889,302.778,830.556,155.556,N
1649,-0.235,1.320,-0.190,52.778,102.778,297.222,850.000,19.444,N
1650,-0.250,1.420,-0.120,58.333,113.889,275.000,708.333,141.667,N
1651,-0.210,1.405,-0.155,194.444,113.889,275.000,583.333,125.000,N
1652,-0.155,1.325,-0.180,180.556,113.889,272.222,400.000,183.333,N
1653,-0.280,1.455,-0.190,122.222,113.889,319.444,858.333,458.333,N
1654,-0.260,1.385,-0.250,177.778,111.111,297.222,788.889,69.444,N
1655,-0.230,1.455,-0.115,58.333,113.889,313.889,963.889,175.000,N
1656,-0.190,1.470,-0.100,175.000,102.778,275.000,650.000,313.889,N
1657,-0.215,1.485,-0.145,105.556,116.667,302.778,847.222,197.222,N
1658,-0.215,1.475,-0.140,63.889,111.111,255.556,775.000,72.222,N
1659,-0.240,1.460,-0.090,86.111,116.667,272.222,805.556,30.556,N
1660,-0.170,1.375,-0.115,66.667,116.667,275.000,513.889,291.667,N
1661,-0.235,1.450,-0.110,138.889,116.667,302.778,1019.444,505.556,N
1662,-0.235,1.380,-0.135,105.556,102.778,291.667,669.444,350.000,N
1663,-0.230,1.445,-0.135,55.556,111.111,308.333,686.111,16.667,N
1664,-0.250,1.485,-0.210,58.333,116.667,286.111,513.889,172.222,N
1665,-0.290,1.315,-0.160,55.556,111.111,297.222,569.444,55.556,N
1666,-0.305,1.370,-0.245,147.222,113.889,272.222,622.222,52.778,N
1667,-0.275,1.390,-0.125,122.222,116.667,288.889,588.889,33.333,N
1668,-0.195,1.600,-0.140,152.778,113.889,252.778,633.333,44.444,N
1669,-0.215,1.385,-0.155,61.111,111.111,277.778,741.667,108.333,N
1670,-0.220,1.380,-0.170,186.111,113.889,286.111,675.000,66.667,N
1671,-0.170,1.290,-0.030,194.444,113.889,277.778,425.000,250.000,N
1672,-0.135,1.610,-0.145,55.556,111.111,327.778,833.333,408.333,N
1673,-0.170,1.445,-0.105,180.556,113.889,291.667,716.667,116.667,N
1674,-0.170,1.500,-0.055,55.556,111.111,291.667,630.556,86.111,N
1675,-0.160,1.485,-0.040,194.444,116.667,291.667,722.222,91.667,N
1676,-0.070,1.745,0.000,152.778,113.889,275.000,669.444,52.778,N
1677,-0.095,1.520,-0.055,61.111,111.111,291.667,677.778,8.333,N
1678,-0.115,1.435,-0.100,55.556,102.778,275.000,675.000,2.778,N
1679,-0.110,1.610,-0.005,83.333,113.889,291.667,827.778,152.778,N
1680,-0.130,1.520,-0.040,122.222,105.556,291.667,772.222,55.556,N
1681,-0.155,1.460,-0.015,66.667,116.667,288.889,497.222,275.000,N
1682,-0.145,1.510,-0.025,66.667,113.889,308.333,750.000,252.778,N
1683,-0.145,1.610,-0.100,61.111,113.889,291.667,813.889,63.889,N
1684,-0.140,1.550,-0.105,63.889,116.667,291.667,483.333,330.556,N
1685,-0.110,1.450,0.035,88.889,105.556,291.667,808.333,325.000,N
1686,-0.105,1.375,-0.045,133.333,116.667,272.222,561.111,247.222,N
1687,-0.020,1.580,-0.005,88.889,80.556,277.778,688.889,127.778,N
1688,-0.080,1.520,-0.005,75.000,102.778,275.000,466.667,222.222,N
1689,-0.115,1.390,-0.035,63.889,108.333,291.667,638.889,172.222,N
1690,-0.125,1.350,-0.065,91.667,102.778,308.333,763.889,125.000,N
1691,-0.115,1.650,-0.035,186.111,116.667,291.667,725.000,38.889,N
1692,-0.110,1.395,-0.145,138.889,80.556,255.556,588.889,136.111,N
1693,-0.160,1.260,-0.160,158.333,105.556,344.444,483.333,105.556,N
1694,-0.170,1.450,-0.100,186.111,116.667,272.222,494.444,11.111,N
1695,-0.135,1.355,-0.085,111.111,116.667,394.444,561.111,66.667,N
1696,-0.085,1.395,-0.065,108.333,105.556,377.778,444.444,116.667,N
1697,-0.065,1.450,-0.095,136.111,100.000,308.333,461.111,16.667,N
1698,-0.095,1.305,-0.085,183.333,102.778,291.667,450.000,11.111,N
1699,-0.100,1.350,-0.055,197.222,116.667,291.667,447.222,2.778,N
1700,-0.090,1.410,-0.050,183.333,113.889,288.889,450.000,2.778,N
1701,-0.110,1.490,-0.025,197.222,116.667,308.333,469.444,19.444,N
1702,-0.060,1.545,-0.100,194.444,113.889,327.778,475.000,5.556,N
1703,-0.145,1.385,-0.150,194.444,111.111,308.333,486.111,11.111,N
1704,-0.150,1.245,-0.155,197.222,102.778,327.778,452.778,33.333,N
1705,-0.155,1.215,-0.130,186.111,105.556,327.778,469.444,16.667,N
1706,-0.130,1.175,-0.130,163.889,113.889,375.000,444.444,25.000,N
1707,-0.130,1.140,-0.095,127.778,111.111,372.222,450.000,5.556,N
1708,-0.095,1.140,-0.085,133.333,116.667,377.778,452.778,2.778,N
1709,-0.085,1.310,-0.065,100.000,113.889,355.556,450.000,2.778,N
1710,-0.065,1.295,-0.090,158.333,100.000,375.000,458.333,8.333,N
1711,-0.090,1.255,-0.100,127.778,100.000,344.444,452.778,5.556,N
1712,-0.100,1.205,-0.155,152.778,100.000,358.333,458.333,5.556,N
1713,-0.155,1.200,-0.100,116.667,116.667,377.778,480.556,22.222,N
1714,-0.100,1.210,-0.050,147.222,116.667,375.000,466.667,13.889,N
1715,-0.050,1.450,-0.050,172.222,105.556,341.667,488.889,22.222,N
1716,-0.050,1.395,-0.100,194.444,111.111,327.778,488.889,0.000,N
1717,-0.125,1.300,-0.090,116.667,116.667,341.667,488.889,0.000,N
1718,-0.105,1.365,-0.050,197.222,116.667,294.444,516.667,27.778,N
1719,-0.070,1.355,0.010,191.667,108.333,294.444,675.000,158.333,N
1720,-0.010,1.370,-0.060,122.222,100.000,388.889,597.222,77.778,N
1721,-0.055,1.225,-0.005,72.222,77.778,325.000,466.667,130.556,N
1722,-0.005,1.370,-0.030,52.778,102.778,344.444,433.333,33.333,N
1723,-0.030,1.335,-0.045,116.667,111.111,355.556,444.444,11.111,N
1724,-0.045,1.240,-0.075,136.111,100.000,305.556,452.778,8.333,N
1725,-0.075,1.200,-0.105,166.667,116.667,325.000,430.556,22.222,N
1726,-0.105,1.190,-0.090,152.778,105.556,330.556,452.778,22.222,N
1727,-0.090,1.295,-0.065,158.333,108.333,341.667,472.222,19.444,N
1728,-0.065,1.370,-0.085,186.111,100.000,341.667,477.778,5.556,N
1729,-0.085,1.300,-0.100,188.889,105.556,341.667,486.111,8.333,N
1730,-0.100,1.295,-0.125,136.111,100.000,322.222,480.556,5.556,N
1731,-0.125,1.150,-0.115,180.556,108.333,322.222,458.333,22.222,N
1732,-0.115,1.225,-0.110,188.889,102.778,322.222,461.111,2.778,N
1733,-0.110,1.270,-0.105,163.889,108.333,308.333,438.889,22.222,N
1734,-0.105,1.235,-0.155,172.222,108.333,358.333,430.556,8.333,N
1735,-0.155,1.155,-0.140,127.778,100.000,297.222,436.111,5.556,N
1736,-0.140,1.140,-0.150,177.778,108.333,322.222,433.333,2.778,N
1737,-0.150,1.140,-0.120,172.222,105.556,305.556,444.444,11.111,N
1738,-0.120,1.235,-0.120,172.222,100.000,305.556,433.333,11.111,N
1739,-0.120,1.260,-0.155,194.444,111.111,341.667,455.556,22.222,N
1740,-0.155,1.160,-0.175,163.889,113.889,358.333,469.444,13.889,N
1741,-0.175,1.095,-0.185,152.778,102.778,344.444,469.444,0.000,N
1742,-0.185,1.085,-0.165,180.556,113.889,322.222,480.556,11.111,N
1743,-0.165,1.170,-0.145,191.667,111.111,325.000,461.111,19.444,N
1744,-0.145,1.260,-0.150,180.556,113.889,338.889,455.556,5.556,N
1745,-0.150,1.165,-0.175,172.222,102.778,305.556,455.556,0.000,N
1746,-0.175,1.075,-0.180,177.778,108.333,322.222,438.889,16.667,N
1747,-0.180,1.030,-0.190,144.444,105.556,302.778,433.333,5.556,N
1748,-0.190,1.040,-0.175,177.778,105.556,308.333,433.333,0.000,N
1749,-0.175,1.105,-0.145,177.778,108.333,319.444,436.111,2.778,N
1750,-0.145,1.205,-0.160,175.000,108.333,325.000,444.444,8.333,N
1751,-0.160,1.155,-0.160,166.667,113.889,355.556,441.667,2.778,N
1752,-0.160,1.060,-0.175,158.333,100.000,105.556,458.333,16.667,N
1753,-0.190,1.000,-0.160,175.000,108.333,322.222,469.444,11.111,N
1754,-0.160,1.105,-0.175,183.333,116.667,341.667,455.556,13.889,N
1755,-0.175,1.045,-0.165,180.556,111.111,322.222,463.889,8.333,N
1756,-0.165,1.055,-0.160,186.111,116.667,322.222,455.556,8.333,N
1757,-0.165,1.120,-0.130,197.222,113.889,325.000,463.889,8.333,N
1758,-0.130,1.220,-0.160,186.111,102.778,308.333,455.556,8.333,N
1759,-0.160,1.100,-0.195,177.778,111.111,327.778,438.889,16.667,N
1760,-0.195,1.115,-0.195,175.000,105.556,305.556,450.000,11.111,N
1761,-0.195,1.060,-0.195,172.222,108.333,294.444,430.556,19.444,N
1762,-0.195,1.135,-0.145,175.000,108.333,305.556,436.111,5.556,N
1763,-0.145,1.225,-0.090,180.556,111.111,302.778,436.111,0.000,N
1764,-0.090,1.315,-0.130,177.778,111.111,308.333,430.556,5.556,N
1765,-0.130,1.180,-0.180,188.889,105.556,294.444,447.222,16.667,N
1766,-0.195,1.215,-0.130,172.222,102.778,291.667,447.222,0.000,N
1767,-0.130,1.275,-0.170,175.000,102.778,308.333,419.444,27.778,N
1768,-0.170,1.125,-0.125,197.222,113.889,325.000,455.556,36.111,N
1769,-0.125,1.325,-0.100,186.111,116.667,338.889,455.556,0.000,N
1770,-0.100,1.335,-0.185,183.333,113.889,341.667,463.889,8.333,N
1771,-0.185,1.210,-0.175,177.778,113.889,325.000,463.889,0.000,N
1772,-0.175,1.105,-0.185,166.667,100.000,311.111,436.111,27.778,N
1773,-0.185,1.080,-0.190,166.667,102.778,311.111,436.111,0.000,N
1774,-0.190,1.135,-0.170,136.111,102.778,325.000,416.667,19.444,N
1775,-0.170,1.245,-0.165,116.667,116.667,327.778,413.889,2.778,N
1776,-0.165,1.230,-0.230,72.222,108.333,372.222,427.778,13.889,N
1777,-0.230,1.165,-0.200,102.778,105.556,363.889,427.778,0.000,N
1778,-0.200,1.075,-0.190,122.222,108.333,325.000,436.111,8.333,N
1779,-0.190,1.090,-0.175,144.444,102.778,361.111,422.222,13.889,N
1780,-0.175,1.070,-0.145,75.000,83.333,375.000,447.222,25.000,N
1781,-0.140,1.260,-0.120,72.222,111.111,391.667,461.111,13.889,N
1782,-0.115,1.290,-0.140,108.333,111.111,383.333,469.444,8.333,N
1783,-0.135,1.210,-0.120,58.333,97.222,355.556,466.667,2.778,N
1784,-0.120,1.160,-0.135,116.667,116.667,375.000,458.333,8.333,N
1785,-0.135,1.130,-0.110,119.444,116.667,388.889,436.111,22.222,N
1786,-0.110,1.160,-0.125,97.222,113.889,377.778,444.444,8.333,N
1787,-0.125,1.205,-0.150,72.222,108.333,327.778,427.778,16.667,N
1788,-0.150,1.190,-0.205,63.889,113.889,327.778,425.000,2.778,N
1789,-0.200,1.045,-0.205,66.667,100.000,325.000,419.444,5.556,N
1790,-0.205,1.090,-0.180,150.000,102.778,361.111,433.333,13.889,N
1791,-0.180,1.140,-0.170,80.556,116.667,394.444,430.556,2.778,N
1792,-0.150,1.300,-0.180,55.556,102.778,358.333,438.889,8.333,N
1793,-0.180,1.245,-0.190,108.333,100.000,291.667,436.111,2.778,N
1794,-0.180,1.180,-0.230,55.556,111.111,397.222,450.000,13.889,N
1795,-0.230,1.195,-0.175,102.778,116.667,305.556,644.444,194.444,N
1796,-0.160,1.330,-0.230,183.333,116.667,305.556,633.333,11.111,N
1797,-0.185,1.370,-0.260,80.556,113.889,288.889,713.889,80.556,N
1798,-0.265,1.145,-0.345,83.333,116.667,308.333,619.444,94.444,N
1799,-0.340,1.205,-0.335,166.667,116.667,291.667,583.333,36.111,N
1800,-0.245,1.305,-0.225,55.556,113.889,308.333,777.778,194.444,N
1801,-0.235,1.390,-0.285,188.889,102.778,269.444,641.667,136.111,N
1802,-0.285,1.195,-0.245,161.111,102.778,275.000,522.222,119.444,N
1803,-0.270,1.270,-0.240,55.556,111.111,258.333,816.667,294.444,N
1804,-0.190,1.485,-0.210,61.111,111.111,308.333,686.111,130.556,N
1805,-0.205,1.250,-0.130,105.556,116.667,291.667,538.889,147.222,N
1806,-0.230,1.275,-0.165,91.667,102.778,258.333,1072.222,533.333,N
1807,-0.185,0.085,0.500,113.889,61.111,255.556,622.222,450.000,V
1808,-0.325,1.300,-0.345,127.778,113.889,377.778,963.889,341.667,N
1809,-0.315,1.300,-0.240,58.333,113.889,272.222,711.111,252.778,N
1810,-0.345,1.150,-0.175,163.889,113.889,275.000,527.778,183.333,N
1811,-0.180,1.470,-0.215,61.111,105.556,308.333,925.000,397.222,N
1812,-0.240,1.400,-0.215,105.556,116.667,269.444,763.889,161.111,N
1813,-0.260,1.340,-0.150,113.889,113.889,291.667,775.000,11.111,N
1814,-0.235,1.530,-0.190,183.333,116.667,275.000,702.778,72.222,N
1815,-0.180,1.415,-0.180,122.222,111.111,269.444,572.222,130.556,N
1816,-0.210,1.485,-0.190,194.444,105.556,255.556,422.222,150.000,N
1817,-0.290,1.310,-0.215,58.333,116.667,283.333,613.889,191.667,N
1818,-0.265,1.350,-0.170,58.333,102.778,272.222,583.333,30.556,N
1819,-0.230,1.350,-0.230,141.667,111.111,308.333,1033.333,450.000,N
1820,-0.245,1.170,-0.185,119.444,116.667,305.556,594.444,438.889,N
1821,-0.230,1.220,-0.205,58.333,111.111,291.667,672.222,77.778,N
1822,-0.225,1.435,-0.210,163.889,116.667,244.444,705.556,33.333,N
1823,-0.200,1.315,-0.210,58.333,100.000,272.222,561.111,144.444,N
1824,-0.210,1.215,-0.185,52.778,102.778,261.111,661.111,100.000,N
1825,-0.270,1.175,-0.210,80.556,113.889,272.222,627.778,33.333,N
1826,-0.250,1.390,-0.180,80.556,116.667,275.000,716.667,88.889,N
1827,-0.235,1.395,-0.155,88.889,116.667,272.222,705.556,11.111,N
1828,-0.210,1.225,-0.130,66.667,113.889,291.667,547.222,158.333,N
1829,-0.255,1.300,-0.175,58.333,111.111,288.889,477.778,69.444,N
1830,-0.215,1.340,-0.190,147.222,116.667,294.444,652.778,175.000,N
1831,-0.240,1.415,-0.245,191.667,111.111,308.333,777.778,125.000,N
1832,-0.195,1.355,-0.160,172.222,113.889,302.778,711.111,66.667,N
1833,-0.160,1.275,-0.210,169.444,116.667,288.889,413.889,297.222,N
1834,-0.280,1.400,-0.200,197.222,116.667,311.111,880.556,466.667,N
1835,-0.185,1.535,-0.230,194.444,113.889,225.000,666.667,213.889,N
1836,-0.250,1.150,-0.165,91.667,111.111,261.111,477.778,188.889,N
1837,-0.205,1.220,-0.175,88.889,102.778,294.444,761.111,283.333,N
1838,-0.240,1.290,-0.145,144.444,113.889,277.778,691.667,69.444,N
1839,-0.265,1.460,-0.255,161.111,113.889,241.667,700.000,8.333,N
1840,-0.245,1.290,-0.215,80.556,116.667,308.333,952.778,252.778,N
