id,Pamp,Ramp,Tamp,PR,QRS,QT,RRI,dRRI,label
1,-0.625,0.175,-0.940,166.667,100.000,375.000,850.000,2.778,R
2,-0.790,0.205,-0.875,175.000,116.667,405.556,844.444,5.556,R
3,-0.605,0.130,-0.775,161.111,94.444,388.889,841.667,2.778,R
4,-0.620,0.180,-0.820,169.444,97.222,386.111,811.111,30.556,R
5,-0.600,0.185,-0.765,197.222,91.667,380.556,822.222,11.111,R
6,-0.670,0.245,-0.845,172.222,91.667,388.889,833.333,11.111,R
7,-0.680,0.095,-0.805,166.667,97.222,377.778,808.333,25.000,R
8,-0.715,0.190,-0.955,183.333,94.444,380.556,800.000,8.333,R
9,-0.935,-0.100,-0.835,169.444,97.222,-9302.778,861.111,61.111,R
10,-0.940,-0.140,-0.835,163.889,97.222,-10166.667,861.111,0.000,R
11,-0.860,-0.065,-0.835,166.667,91.667,-11005.556,844.444,16.667,R
12,-0.750,0.045,-0.930,172.222,91.667,380.556,844.444,0.000,R
13,-0.540,0.415,-0.665,161.111,88.889,372.222,827.778,16.667,R
14,-0.495,0.310,-0.735,175.000,105.556,405.556,841.667,13.889,R
15,-0.570,0.320,-0.760,163.889,83.333,369.444,800.000,41.667,R
16,-0.630,0.215,-0.855,197.222,83.333,388.889,813.889,13.889,R
17,-0.775,-0.030,-0.835,197.222,77.778,-15969.444,827.778,13.889,R
18,-0.825,-0.080,-0.910,197.222,102.778,383.333,819.444,8.333,R
19,-0.835,-0.170,-0.835,17641.667,88.889,-17602.778,816.667,2.778,R
20,-0.835,-0.165,-0.835,18455.556,97.222,-18413.889,813.889,2.778,R
21,-0.895,0.035,-0.835,161.111,94.444,-19205.556,791.667,22.222,R
22,-0.835,0.235,-0.835,175.000,102.778,-19994.444,794.444,2.778,R
23,-0.820,0.320,-0.845,166.667,100.000,380.556,808.333,13.889,R
24,-0.665,0.245,-0.860,172.222,100.000,388.889,797.222,11.111,R
25,-0.655,0.355,-0.820,163.889,100.000,383.333,802.778,5.556,R
26,-0.635,0.460,-0.810,177.778,91.667,391.667,822.222,19.444,R
27,-0.605,0.360,-0.815,169.444,100.000,394.444,794.444,27.778,R
28,-0.590,0.345,-0.805,175.000,91.667,369.444,838.889,44.444,R
29,-0.565,0.480,-0.790,180.556,83.333,383.333,833.333,5.556,R
30,-0.605,0.500,-0.845,169.444,97.222,380.556,830.556,2.778,R
31,-0.640,0.375,-0.875,172.222,91.667,377.778,861.111,30.556,R
32,-0.615,0.450,-0.830,175.000,88.889,372.222,841.667,19.444,R
33,-0.595,0.590,-0.765,172.222,80.556,380.556,838.889,2.778,R
34,-0.545,0.505,-0.830,175.000,94.444,377.778,858.333,19.444,R
35,0.825,-1.585,-0.465,55.556,0.000,30.556,713.889,144.444,V
36,-0.540,0.605,-0.770,166.667,86.111,380.556,936.111,222.222,R
37,-0.605,0.460,-0.840,169.444,97.222,380.556,844.444,91.667,R
38,-0.615,0.450,-0.855,172.222,105.556,405.556,844.444,0.000,R
39,-0.615,0.625,-0.885,180.556,86.111,388.889,841.667,2.778,R
40,-0.645,0.520,-0.925,177.778,97.222,386.111,836.111,5.556,R
41,-0.685,0.410,-0.930,197.222,102.778,391.667,841.667,5.556,R
42,-0.665,0.640,-0.985,175.000,97.222,175.000,836.111,5.556,R
43,-0.750,0.340,-0.700,172.222,100.000,383.333,827.778,8.333,R
44,-0.380,0.385,-0.570,163.889,100.000,372.222,813.889,13.889,R
45,-0.365,0.560,-0.555,175.000,97.222,386.111,780.556,33.333,R
46,-0.340,0.735,-0.635,163.889,91.667,355.556,800.000,19.444,R
47,-0.560,0.190,-0.835,194.444,94.444,-40619.444,775.000,25.000,R
48,-0.835,0.145,-0.835,41433.333,100.000,-41388.889,772.222,2.778,R
49,-0.815,0.375,-0.835,172.222,86.111,-42205.556,813.889,41.667,R
50,-0.725,0.525,-0.920,197.222,94.444,394.444,800.000,13.889,R
51,-0.715,0.460,-0.875,163.889,94.444,383.333,811.111,11.111,R
52,-0.615,0.600,-0.840,175.000,100.000,383.333,836.111,25.000,R
53,-0.555,0.480,-0.795,197.222,88.889,391.667,841.667,5.556,R
54,-0.480,0.675,-0.655,175.000,91.667,383.333,855.556,13.889,R
55,-0.450,0.735,-0.665,175.000,91.667,383.333,847.222,8.333,R
56,-0.465,0.495,-0.740,194.444,91.667,383.333,852.778,5.556,R
57,-0.555,0.410,-0.770,169.444,86.111,372.222,858.333,5.556,R
58,-0.465,0.625,-0.720,172.222,94.444,369.444,863.889,5.556,R
59,-0.450,0.750,-0.690,169.444,91.667,375.000,861.111,2.778,R
60,-0.510,0.505,-0.750,172.222,91.667,391.667,847.222,13.889,R
61,-0.520,0.410,-0.755,166.667,91.667,380.556,850.000,2.778,R
62,-0.500,0.610,-0.775,172.222,91.667,375.000,841.667,8.333,R
63,-0.590,0.575,-0.885,169.444,86.111,372.222,838.889,2.778,R
64,-0.665,0.250,-0.980,169.444,75.000,386.111,838.889,0.000,R
65,-0.770,0.160,-0.975,166.667,86.111,380.556,816.667,22.222,R
66,-0.820,0.140,-0.835,169.444,83.333,-56516.667,847.222,30.556,R
67,-0.710,0.380,-0.865,158.333,94.444,383.333,819.444,27.778,R
68,-0.545,0.465,-0.710,166.667,91.667,377.778,838.889,19.444,R
69,-0.470,0.610,-0.715,172.222,91.667,383.333,861.111,22.222,R
70,-0.475,0.495,-0.710,197.222,83.333,375.000,830.556,30.556,R
71,-0.410,0.460,-0.655,166.667,88.889,383.333,838.889,8.333,R
72,-0.450,0.475,-0.690,180.556,94.444,388.889,855.556,16.667,R
73,-0.545,0.360,-0.720,166.667,83.333,383.333,827.778,27.778,R
74,-0.510,0.490,-0.620,169.444,86.111,383.333,841.667,13.889,R
75,-0.500,0.360,-0.705,169.444,88.889,388.889,830.556,11.111,R
76,-0.490,0.540,-0.730,166.667,83.333,366.667,825.000,5.556,R
77,-0.560,0.415,-0.735,166.667,97.222,380.556,816.667,8.333,R
78,-0.540,0.370,-0.755,172.222,100.000,386.111,836.111,19.444,R
79,-0.545,0.325,-0.765,166.667,102.778,377.778,844.444,8.333,R
80,-0.645,0.335,-0.940,175.000,100.000,383.333,816.667,27.778,R
81,-0.740,0.195,-0.925,169.444,83.333,386.111,825.000,8.333,R
82,-0.725,0.180,-0.915,175.000,88.889,380.556,850.000,25.000,R
83,-0.665,0.205,-0.815,175.000,91.667,391.667,844.444,5.556,R
84,-0.560,0.370,-0.760,166.667,100.000,383.333,838.889,5.556,R
85,-0.515,0.410,-0.700,177.778,100.000,386.111,841.667,2.778,R
86,-0.480,0.440,-0.725,172.222,83.333,386.111,825.000,16.667,R
87,-0.580,0.315,-0.830,197.222,83.333,363.889,830.556,5.556,R
88,-0.605,0.375,-0.840,175.000,83.333,386.111,838.889,8.333,R
89,-0.625,0.270,-0.770,197.222,80.556,386.111,838.889,0.000,R
90,-0.595,0.230,-0.795,172.222,86.111,388.889,825.000,13.889,R
91,-0.590,0.430,-0.825,169.444,94.444,375.000,827.778,2.778,R
92,-0.565,0.480,-0.740,177.778,83.333,388.889,844.444,16.667,R
93,-0.515,0.265,-0.690,197.222,94.444,386.111,811.111,33.333,R
94,-0.485,0.370,-0.640,197.222,94.444,383.333,827.778,16.667,R
95,-0.475,0.560,-0.715,172.222,91.667,380.556,813.889,13.889,R
96,-0.510,0.495,-0.835,169.444,88.889,372.222,805.556,8.333,R
97,-0.620,0.300,-0.835,166.667,91.667,375.000,827.778,22.222,R
98,-0.635,0.575,-0.830,177.778,94.444,386.111,830.556,2.778,R
99,-0.590,0.335,-0.805,169.444,80.556,372.222,813.889,16.667,R
100,-0.555,0.375,-0.775,166.667,91.667,377.778,825.000,11.111,R
101,-0.525,0.495,-0.720,172.222,86.111,386.111,813.889,11.111,R
102,-0.520,0.590,-0.690,169.444,100.000,388.889,808.333,5.556,R
103,-0.535,0.540,-0.735,175.000,91.667,386.111,808.333,0.000,R
104,-0.500,0.515,-0.710,166.667,88.889,363.889,811.111,2.778,R
105,-0.535,0.530,-0.725,169.444,88.889,383.333,783.333,27.778,R
106,-0.565,0.475,-0.790,169.444,86.111,388.889,794.444,11.111,R
107,-0.625,0.325,-0.855,197.222,88.889,386.111,800.000,5.556,R
108,-0.680,0.480,-0.840,172.222,97.222,391.667,805.556,5.556,R
109,-0.620,0.550,-0.875,172.222,94.444,380.556,808.333,2.778,R
110,-0.655,0.485,-0.850,172.222,88.889,388.889,800.000,8.333,R
111,-0.895,0.440,-0.880,61.111,91.667,377.778,630.556,169.444,A
112,-0.610,0.490,-0.875,169.444,94.444,386.111,908.333,277.778,R
113,-0.620,0.375,-0.860,161.111,91.667,388.889,852.778,55.556,R
114,-0.675,0.370,-0.800,166.667,91.667,388.889,800.000,52.778,R
115,-0.605,0.440,-0.705,163.889,116.667,405.556,794.444,5.556,R
116,-0.525,0.540,-0.790,175.000,94.444,358.333,797.222,2.778,R
117,-0.795,0.545,-0.740,50.000,94.444,380.556,650.000,147.222,A
118,-0.490,0.475,-0.695,197.222,97.222,380.556,875.000,225.000,R
119,-0.525,0.595,-0.810,172.222,86.111,366.667,813.889,61.111,R
120,-0.550,0.370,-0.735,161.111,108.333,388.889,788.889,25.000,R
121,-0.490,0.610,-0.585,166.667,94.444,386.111,794.444,5.556,R
122,-0.365,0.615,-0.625,197.222,80.556,383.333,777.778,16.667,R
123,-0.430,0.545,-0.700,169.444,88.889,372.222,800.000,22.222,R
124,-0.485,0.555,-0.680,169.444,102.778,388.889,800.000,0.000,R
125,-0.425,0.580,-0.630,169.444,77.778,369.444,797.222,2.778,R
126,-0.670,0.730,-0.680,61.111,83.333,377.778,625.000,172.222,A
127,-0.470,0.525,-0.670,197.222,100.000,380.556,913.889,288.889,R
128,-0.710,1.000,-0.345,80.556,105.556,133.333,633.333,280.556,V
129,-0.485,0.465,-0.695,197.222,88.889,388.889,1005.556,372.222,R
130,-0.555,0.415,-0.800,175.000,86.111,369.444,822.222,183.333,R
131,-0.790,0.015,-0.960,163.889,97.222,405.556,783.333,38.889,R
132,-0.650,0.495,-0.670,166.667,91.667,355.556,791.667,8.333,R
133,-0.555,0.355,-0.785,180.556,111.111,400.000,780.556,11.111,R
134,-0.540,0.410,-0.760,197.222,91.667,350.000,805.556,25.000,R
135,-0.790,0.445,-0.710,80.556,94.444,380.556,655.556,150.000,A
136,-0.365,0.705,-0.615,191.667,91.667,377.778,852.778,197.222,R
137,-0.415,0.600,-0.670,197.222,91.667,386.111,830.556,22.222,R
138,-0.420,0.540,-0.635,197.222,88.889,380.556,797.222,33.333,R
139,-0.430,0.565,-0.535,172.222,97.222,377.778,816.667,19.444,R
140,-0.410,0.695,-0.585,172.222,91.667,391.667,808.333,8.333,R
141,-0.395,0.490,-0.605,158.333,88.889,391.667,800.000,8.333,R
142,-0.445,0.490,-0.590,169.444,88.889,377.778,822.222,22.222,R
143,-0.420,0.565,-0.560,175.000,100.000,380.556,816.667,5.556,R
144,-0.385,0.600,-0.515,172.222,97.222,386.111,830.556,13.889,R
145,-0.330,0.560,-0.565,169.444,97.222,383.333,827.778,2.778,R
146,-0.415,0.480,-0.610,166.667,94.444,377.778,813.889,13.889,R
147,-0.465,0.325,-0.665,172.222,94.444,361.111,819.444,5.556,R
148,-0.530,0.455,-0.670,175.000,83.333,358.333,802.778,16.667,R
149,-0.480,0.300,-0.675,197.222,94.444,380.556,811.111,8.333,R
150,-0.505,0.225,-0.720,172.222,88.889,388.889,813.889,2.778,R
151,-0.515,0.250,-0.680,172.222,94.444,372.222,822.222,8.333,R
152,-0.485,0.285,-0.650,197.222,108.333,400.000,808.333,13.889,R
153,-0.465,0.395,-0.705,172.222,100.000,394.444,800.000,8.333,R
154,-0.515,0.185,-0.720,166.667,100.000,388.889,836.111,36.111,R
155,-0.565,0.110,-0.760,177.778,75.000,386.111,816.667,19.444,R
156,-0.555,0.155,-0.730,166.667,72.222,380.556,802.778,13.889,R
157,-0.500,0.270,-0.595,175.000,113.889,405.556,825.000,22.222,R
158,-0.415,0.395,-0.620,166.667,91.667,380.556,813.889,11.111,R
159,-0.470,0.170,-0.720,197.222,86.111,386.111,788.889,25.000,R
160,-0.550,0.265,-0.760,169.444,97.222,380.556,813.889,25.000,R
161,-0.545,0.240,-0.710,158.333,88.889,383.333,794.444,19.444,R
162,-0.525,0.335,-0.700,166.667,97.222,383.333,783.333,11.111,R
163,-0.475,0.400,-0.680,169.444,91.667,386.111,791.667,8.333,R
164,-0.505,0.395,-0.650,166.667,83.333,388.889,822.222,30.556,R
165,-0.485,0.235,-0.660,169.444,105.556,405.556,791.667,30.556,R
166,-0.415,0.450,-0.645,158.333,91.667,380.556,816.667,25.000,R
167,-0.415,0.540,-0.630,169.444,94.444,380.556,811.111,5.556,R
168,-0.440,0.440,-0.605,163.889,94.444,380.556,822.222,11.111,R
169,-0.405,0.465,-0.700,169.444,94.444,380.556,827.778,5.556,R
170,-0.490,0.340,-0.790,161.111,88.889,383.333,836.111,8.333,R
171,-0.535,0.450,-0.655,197.222,94.444,383.333,844.444,8.333,R
172,-0.320,0.475,-0.470,169.444,100.000,377.778,833.333,11.111,R
173,-0.260,0.615,-0.515,197.222,86.111,366.667,841.667,8.333,R
174,-0.280,0.825,-0.450,169.444,94.444,386.111,850.000,8.333,R
175,-0.235,0.880,-0.450,169.444,97.222,377.778,844.444,5.556,R
176,-0.235,0.625,-0.645,197.222,88.889,369.444,825.000,19.444,R
177,-0.410,0.530,-0.645,169.444,91.667,375.000,847.222,22.222,R
178,-0.405,0.665,-0.600,169.444,83.333,380.556,850.000,2.778,R
179,-0.355,0.660,-0.570,169.444,94.444,386.111,838.889,11.111,R
180,-0.365,0.740,-0.615,172.222,88.889,388.889,852.778,13.889,R
181,-0.370,0.675,-0.665,172.222,94.444,383.333,852.778,0.000,R
182,-0.475,0.455,-0.740,169.444,94.444,391.667,841.667,11.111,R
183,-0.475,0.615,-0.655,175.000,94.444,386.111,855.556,13.889,R
184,-0.470,0.585,-0.670,172.222,72.222,386.111,855.556,0.000,R
185,-0.440,0.450,-0.670,169.444,97.222,377.778,833.333,22.222,R
186,-0.395,0.470,-0.675,163.889,86.111,380.556,841.667,8.333,R
187,-0.410,0.615,-0.470,163.889,94.444,380.556,863.889,22.222,R
188,-0.155,0.980,-0.400,169.444,97.222,383.333,838.889,25.000,R
189,-0.240,0.660,-0.520,197.222,97.222,380.556,838.889,0.000,R
190,-0.335,0.690,-0.560,175.000,91.667,380.556,858.333,19.444,R
191,-0.350,0.640,-0.590,169.444,83.333,372.222,819.444,38.889,R
192,-0.410,0.470,-0.570,169.444,75.000,383.333,836.111,16.667,R
193,-0.370,0.575,-0.610,172.222,97.222,388.889,830.556,5.556,R
194,-0.415,0.515,-0.635,163.889,94.444,375.000,813.889,16.667,R
195,-0.515,0.430,-0.655,197.222,102.778,405.556,830.556,16.667,R
196,-0.445,0.530,-0.715,175.000,97.222,386.111,797.222,33.333,R
197,-0.545,0.560,-0.715,169.444,80.556,366.667,822.222,25.000,R
198,-0.490,0.430,-0.625,169.444,100.000,380.556,819.444,2.778,R
199,-0.380,0.605,-0.570,166.667,86.111,377.778,816.667,2.778,R
200,-0.375,0.670,-0.595,169.444,97.222,383.333,819.444,2.778,R
201,-0.425,0.605,-0.635,166.667,88.889,388.889,816.667,2.778,R
202,-0.405,0.655,-0.575,163.889,94.444,366.667,791.667,25.000,R
203,-0.355,0.755,-0.570,172.222,91.667,391.667,805.556,13.889,R
204,-0.620,0.795,-0.600,69.444,83.333,375.000,633.333,172.222,A
205,-0.395,0.395,-0.625,191.667,91.667,386.111,888.889,255.556,R
206,-0.450,0.450,-0.580,155.556,88.889,386.111,816.667,72.222,R
207,-0.380,0.575,-0.495,197.222,86.111,372.222,822.222,5.556,R
208,-0.315,0.655,-0.550,197.222,94.444,380.556,791.667,30.556,R
209,-0.405,0.625,-0.535,163.889,94.444,377.778,805.556,13.889,R
210,-0.315,0.810,-0.555,172.222,88.889,372.222,813.889,8.333,R
211,-0.345,0.735,-0.605,166.667,94.444,380.556,788.889,25.000,R
212,-0.400,0.600,-0.610,169.444,86.111,388.889,813.889,25.000,R
213,-0.395,0.495,-0.530,169.444,91.667,383.333,808.333,5.556,R
214,-0.370,0.615,-0.505,163.889,88.889,377.778,808.333,0.000,R
215,-0.345,0.595,-0.605,172.222,100.000,383.333,813.889,5.556,R
216,-0.375,0.435,-0.615,166.667,91.667,375.000,822.222,8.333,R
217,-0.715,-0.980,-0.585,83.333,0.000,311.111,222.222,600.000,x
218,-0.390,0.545,-0.620,186.111,100.000,388.889,1205.556,983.333,R
219,-0.445,0.395,-0.640,194.444,88.889,383.333,894.444,311.111,R
220,-0.420,0.485,-0.575,169.444,83.333,388.889,830.556,63.889,R
221,-0.365,0.490,-0.605,169.444,86.111,375.000,819.444,11.111,R
222,-0.415,0.460,-0.635,169.444,80.556,366.667,805.556,13.889,R
223,-0.455,0.365,-0.680,172.222,97.222,383.333,794.444,11.111,R
224,-0.445,0.485,-0.615,169.444,94.444,375.000,833.333,38.889,R
225,-0.450,0.385,-0.695,175.000,102.778,383.333,808.333,25.000,R
226,-0.515,0.325,-0.725,166.667,102.778,375.000,805.556,2.778,R
227,-0.515,0.320,-0.710,169.444,86.111,366.667,827.778,22.222,R
228,-0.490,0.385,-0.670,169.444,86.111,375.000,822.222,5.556,R
229,-0.470,0.435,-0.680,163.889,100.000,377.778,811.111,11.111,R
230,-0.450,0.490,-0.635,172.222,83.333,380.556,844.444,33.333,R
231,-0.445,0.625,-0.510,169.444,91.667,344.444,844.444,0.000,R
232,-0.740,-0.825,-0.510,147.222,58.333,77.778,283.333,561.111,x
233,-0.445,0.315,-0.715,183.333,94.444,383.333,1255.556,972.222,R
234,-0.480,0.565,-0.630,161.111,91.667,388.889,894.444,361.111,R
235,-0.390,0.510,-0.660,191.667,88.889,383.333,863.889,30.556,R
236,-0.495,0.345,-0.650,194.444,88.889,386.111,863.889,0.000,R
237,-0.475,0.470,-0.660,194.444,102.778,405.556,819.444,44.444,R
238,-0.385,0.555,-0.540,197.222,86.111,372.222,830.556,11.111,R
239,-0.295,0.555,-0.520,197.222,88.889,380.556,819.444,11.111,R
240,-0.340,0.405,-0.610,197.222,83.333,386.111,825.000,5.556,R
241,-0.595,0.685,-0.510,66.667,94.444,386.111,686.111,138.889,A
242,-0.335,0.520,-0.580,194.444,100.000,402.778,975.000,288.889,R
243,-0.620,0.825,-0.540,66.667,86.111,369.444,663.889,311.111,A
244,-0.440,0.530,-0.695,191.667,97.222,386.111,1041.667,377.778,R
245,-0.515,0.550,-0.725,166.667,105.556,394.444,891.667,150.000,R
246,-0.515,0.595,-0.755,197.222,86.111,363.889,863.889,27.778,R
247,-0.525,0.695,-0.725,169.444,102.778,377.778,875.000,11.111,R
248,-0.450,0.715,-0.610,194.444,94.444,377.778,850.000,25.000,R
249,-0.415,0.670,-0.670,197.222,83.333,386.111,827.778,22.222,R
250,-0.405,0.430,-0.640,175.000,91.667,386.111,855.556,27.778,R
251,-0.455,0.460,-0.610,158.333,94.444,375.000,836.111,19.444,R
252,-0.465,0.515,-0.685,197.222,97.222,369.444,811.111,25.000,R
253,-0.500,0.505,-0.705,166.667,88.889,386.111,805.556,5.556,R
254,-0.530,0.630,-0.780,166.667,91.667,377.778,833.333,27.778,R
255,-0.600,0.375,-0.805,175.000,97.222,386.111,827.778,5.556,R
256,-0.620,0.300,-0.840,194.444,83.333,388.889,830.556,2.778,R
257,-0.600,0.245,-0.810,163.889,97.222,386.111,836.111,5.556,R
258,-0.575,0.445,-0.760,172.222,97.222,383.333,833.333,2.778,R
259,-0.570,0.280,-0.730,163.889,94.444,386.111,830.556,2.778,R
260,-0.515,0.380,-0.715,169.444,94.444,383.333,841.667,11.111,R
261,-0.475,0.525,-0.685,169.444,102.778,391.667,844.444,2.778,R
262,-0.505,0.305,-0.685,163.889,102.778,391.667,830.556,13.889,R
263,-0.495,0.475,-0.690,166.667,97.222,380.556,830.556,0.000,R
264,-0.480,0.585,-0.605,172.222,88.889,388.889,855.556,25.000,R
265,-0.410,0.420,-0.605,169.444,97.222,383.333,850.000,5.556,R
266,-0.415,0.430,-0.600,163.889,91.667,375.000,838.889,11.111,R
267,-0.420,0.550,-0.680,177.778,91.667,366.667,841.667,2.778,R
268,-0.520,0.375,-0.720,169.444,83.333,388.889,833.333,8.333,R
269,-0.505,0.330,-0.595,172.222,86.111,386.111,838.889,5.556,R
270,-0.445,0.405,-0.595,197.222,97.222,377.778,863.889,25.000,R
271,0.890,-1.185,-0.790,58.333,58.333,347.222,736.111,127.778,V
272,-0.540,0.380,-0.695,161.111,94.444,388.889,922.222,186.111,R
273,-0.535,0.390,-0.720,175.000,102.778,400.000,838.889,83.333,R
274,-0.570,0.390,-0.720,194.444,105.556,391.667,847.222,8.333,R
275,-0.590,0.165,-0.815,169.444,111.111,405.556,816.667,30.556,R
276,-0.600,0.180,-0.800,152.778,91.667,377.778,816.667,0.000,R
277,-0.625,0.330,-0.860,163.889,86.111,372.222,819.444,2.778,R
278,-0.645,0.250,-0.835,163.889,94.444,377.778,816.667,2.778,R
279,-0.665,0.240,-0.905,166.667,86.111,361.111,816.667,0.000,R
280,-0.765,0.000,-0.920,188.889,105.556,405.556,811.111,5.556,R
281,-0.610,0.285,-0.770,161.111,102.778,388.889,819.444,8.333,R
282,-0.640,0.150,-0.845,169.444,94.444,391.667,800.000,19.444,R
283,-0.615,0.050,-0.645,161.111,100.000,386.111,788.889,11.111,R
284,-0.435,0.450,-0.660,169.444,102.778,388.889,802.778,13.889,R
285,-0.450,0.580,-0.625,194.444,94.444,375.000,800.000,2.778,R
286,-0.460,0.565,-0.630,188.889,105.556,377.778,805.556,5.556,R
287,-0.510,0.580,-0.710,158.333,100.000,388.889,811.111,5.556,R
288,-0.550,0.430,-0.670,188.889,94.444,391.667,802.778,8.333,R
289,-0.520,0.405,-0.725,197.222,100.000,366.667,800.000,2.778,R
290,-0.445,0.445,-0.730,152.778,102.778,394.444,811.111,11.111,R
291,-0.440,0.615,-0.590,163.889,94.444,391.667,827.778,16.667,R
292,-0.415,0.645,-0.585,197.222,94.444,369.444,783.333,44.444,R
293,-0.335,0.505,-0.575,158.333,100.000,383.333,794.444,11.111,R
294,-0.415,0.715,-0.590,172.222,88.889,386.111,830.556,36.111,R
295,-0.380,0.595,-0.610,197.222,77.778,383.333,791.667,38.889,R
296,-0.405,0.430,-0.630,166.667,75.000,352.778,827.778,36.111,R
297,-0.435,0.670,-0.630,166.667,97.222,380.556,811.111,16.667,R
298,-0.360,0.465,-0.870,197.222,86.111,375.000,822.222,11.111,R
299,-0.575,0.690,-0.950,169.444,97.222,383.333,852.778,30.556,R
300,-0.860,0.410,-0.960,166.667,86.111,377.778,833.333,19.444,R
301,-0.610,0.565,-0.865,197.222,100.000,375.000,844.444,11.111,R
302,-0.600,0.720,-0.825,169.444,91.667,380.556,827.778,16.667,R
303,-0.525,0.635,-0.755,166.667,88.889,377.778,833.333,5.556,R
304,-0.520,0.680,-0.600,177.778,94.444,375.000,866.667,33.333,R
305,-0.475,0.775,-0.755,172.222,97.222,383.333,866.667,0.000,R
306,-0.485,0.665,-0.710,191.667,91.667,363.889,833.333,33.333,R
307,-0.500,0.845,-0.675,172.222,91.667,391.667,850.000,16.667,R
308,-0.445,0.705,-0.700,169.444,91.667,383.333,855.556,5.556,R
309,-0.415,0.710,-0.670,197.222,91.667,380.556,858.333,2.778,R
310,-0.435,0.725,-0.720,175.000,91.667,391.667,877.778,19.444,R
311,-0.465,0.745,-0.675,169.444,91.667,383.333,880.556,2.778,R
312,-0.475,0.565,-0.665,197.222,91.667,380.556,869.444,11.111,R
313,-0.455,0.630,-0.635,183.333,94.444,386.111,902.778,33.333,R
314,-0.365,0.735,-0.610,175.000,88.889,388.889,888.889,13.889,R
315,-0.395,0.765,-0.485,169.444,83.333,380.556,883.333,5.556,R
316,-0.400,0.690,-0.690,177.778,94.444,380.556,830.556,52.778,R
317,-0.365,0.615,-0.730,161.111,100.000,363.889,866.667,36.111,R
318,-0.335,0.760,-0.730,163.889,108.333,383.333,847.222,19.444,R
319,-0.540,0.540,-0.835,169.444,94.444,375.000,866.667,19.444,R
320,-0.585,0.580,-0.775,163.889,91.667,386.111,822.222,44.444,R
321,-0.570,0.455,-0.845,166.667,100.000,391.667,811.111,11.111,R
322,-0.745,0.245,-0.990,169.444,97.222,386.111,808.333,2.778,R
323,-0.725,0.525,-0.875,172.222,94.444,372.222,797.222,11.111,R
324,-0.655,0.535,-0.860,163.889,94.444,383.333,816.667,19.444,R
325,-0.635,0.395,-0.830,194.444,86.111,363.889,816.667,0.000,R
326,-0.505,0.615,-0.705,169.444,94.444,400.000,800.000,16.667,R
327,-0.530,0.420,-0.725,166.667,100.000,386.111,811.111,11.111,R
328,-0.540,0.465,-0.765,166.667,88.889,369.444,822.222,11.111,R
329,-0.575,0.460,-0.765,169.444,94.444,383.333,819.444,2.778,R
330,-0.550,0.375,-0.750,175.000,88.889,383.333,844.444,25.000,R
331,-0.540,0.275,-0.770,197.222,97.222,352.778,825.000,19.444,R
332,-0.865,0.605,-0.755,58.333,97.222,380.556,597.222,227.778,A
333,-0.530,0.420,-0.930,169.444,94.444,363.889,913.889,316.667,R
334,-0.690,0.490,-0.810,194.444,111.111,391.667,852.778,61.111,R
335,-0.590,0.520,-0.665,197.222,86.111,363.889,808.333,44.444,R
336,-0.480,0.690,-0.590,169.444,91.667,377.778,805.556,2.778,R
337,-0.340,0.790,-0.525,197.222,100.000,391.667,813.889,8.333,R
338,-0.615,0.795,-0.595,91.667,105.556,388.889,619.444,194.444,A
339,-0.350,0.610,-0.600,191.667,91.667,400.000,886.111,266.667,R
340,-0.450,0.650,-0.660,169.444,100.000,375.000,852.778,33.333,R
341,-0.445,0.660,-0.650,169.444,86.111,377.778,797.222,55.556,R
342,-0.330,0.595,-0.610,169.444,86.111,369.444,800.000,2.778,R
343,-0.465,0.430,-0.665,172.222,83.333,380.556,816.667,16.667,R
344,-0.710,0.755,-0.720,75.000,91.667,375.000,652.778,163.889,A
345,-0.485,0.320,-0.750,169.444,100.000,386.111,927.778,275.000,R
346,-0.555,0.385,-0.785,163.889,94.444,386.111,891.667,36.111,R
347,0.650,-1.020,-0.770,191.667,27.778,161.111,197.222,694.444,x
348,-0.535,0.410,-0.795,152.778,100.000,386.111,1263.889,1066.667,R
349,-0.600,0.365,-0.795,163.889,94.444,377.778,911.111,352.778,R
350,-0.550,0.420,-0.825,169.444,105.556,391.667,833.333,77.778,R
351,-0.590,0.565,-0.695,169.444,100.000,383.333,819.444,13.889,R
352,-0.585,0.420,-0.805,158.333,97.222,388.889,841.667,22.222,R
353,-0.595,0.475,-0.705,166.667,113.889,402.778,813.889,27.778,R
354,-0.610,0.670,-0.680,180.556,91.667,383.333,772.222,41.667,R
355,-0.480,0.560,-0.700,158.333,100.000,375.000,875.000,102.778,R
356,-0.540,0.460,-0.735,163.889,100.000,380.556,819.444,55.556,R
357,-0.505,0.635,-0.665,169.444,100.000,372.222,833.333,13.889,R
358,-0.475,0.735,-0.620,169.444,86.111,388.889,811.111,22.222,R
359,-0.385,0.720,-0.625,161.111,94.444,386.111,811.111,0.000,R
360,-0.465,0.760,-0.630,169.444,88.889,391.667,858.333,47.222,R
361,-0.425,0.660,-0.595,194.444,88.889,372.222,822.222,36.111,R
362,-0.380,0.545,-0.655,161.111,91.667,388.889,813.889,8.333,R
363,-0.480,0.530,-0.735,166.667,88.889,388.889,825.000,11.111,R
364,-0.375,0.630,-0.455,188.889,100.000,386.111,819.444,5.556,R
365,-0.250,0.750,-0.540,169.444,97.222,372.222,808.333,11.111,R
366,-0.360,0.745,-0.625,194.444,94.444,380.556,758.333,50.000,R
367,-0.410,0.560,-0.665,194.444,91.667,377.778,794.444,36.111,R
368,-0.480,0.600,-0.710,197.222,91.667,155.556,766.667,27.778,R
369,-0.740,0.485,-0.715,175.000,80.556,377.778,661.111,105.556,A
370,-0.525,0.520,-0.820,191.667,105.556,388.889,852.778,191.667,R
371,-0.625,0.380,-0.735,194.444,91.667,375.000,802.778,50.000,R
372,-0.545,0.595,-0.725,163.889,88.889,383.333,788.889,13.889,R
373,-0.530,0.585,-0.730,158.333,80.556,386.111,788.889,0.000,R
374,-0.530,0.460,-0.750,172.222,86.111,363.889,797.222,8.333,R
375,-0.795,0.620,-0.800,52.778,83.333,388.889,641.667,155.556,A
376,-0.545,0.330,-0.810,194.444,91.667,380.556,908.333,266.667,R
377,-0.605,0.480,-0.875,163.889,94.444,386.111,836.111,72.222,R
378,-0.635,0.350,-0.915,166.667,91.667,377.778,836.111,0.000,R
379,-0.670,0.405,-0.870,197.222,83.333,361.111,811.111,25.000,R
380,-0.640,0.310,-0.845,163.889,80.556,383.333,808.333,2.778,R
381,-0.595,0.430,-0.760,166.667,88.889,386.111,847.222,38.889,R
382,-0.540,0.385,-0.765,197.222,80.556,377.778,805.556,41.667,R
383,-0.575,0.595,-0.745,166.667,83.333,386.111,813.889,8.333,R
384,-0.525,0.460,-0.775,172.222,88.889,388.889,830.556,16.667,R
385,-0.525,0.435,-0.725,163.889,88.889,383.333,816.667,13.889,R
386,-0.540,0.410,-0.735,169.444,83.333,383.333,825.000,8.333,R
387,-0.545,0.550,-0.740,166.667,102.778,388.889,825.000,0.000,R
388,-0.480,0.585,-0.675,197.222,88.889,375.000,827.778,2.778,R
389,-0.465,0.450,-0.695,172.222,94.444,377.778,830.556,2.778,R
390,-0.495,0.390,-0.720,166.667,88.889,380.556,825.000,5.556,R
391,-0.545,0.485,-0.780,172.222,86.111,383.333,836.111,11.111,R
392,-0.570,0.390,-0.795,166.667,105.556,388.889,838.889,2.778,R
393,-0.545,0.375,-0.755,169.444,88.889,377.778,836.111,2.778,R
394,-0.535,0.460,-0.700,177.778,91.667,380.556,822.222,13.889,R
395,-0.505,0.540,-0.705,166.667,97.222,383.333,838.889,16.667,R
396,-0.560,0.430,-0.810,166.667,91.667,380.556,833.333,5.556,R
397,-0.645,0.390,-0.805,197.222,97.222,380.556,800.000,33.333,R
398,-0.630,0.430,-0.895,166.667,83.333,386.111,819.444,19.444,R
399,-0.720,0.340,-0.945,166.667,88.889,380.556,816.667,2.778,R
400,-0.750,0.225,-0.955,169.444,83.333,386.111,813.889,2.778,R
401,-0.745,0.205,-0.935,172.222,88.889,386.111,847.222,33.333,R
402,-0.715,0.175,-0.880,172.222,86.111,361.111,822.222,25.000,R
403,-0.660,0.325,-0.785,166.667,97.222,391.667,827.778,5.556,R
404,-0.585,0.445,-0.750,175.000,94.444,386.111,827.778,0.000,R
405,-0.525,0.335,-0.730,194.444,97.222,386.111,855.556,27.778,R
406,-0.560,0.450,-0.680,180.556,94.444,377.778,838.889,16.667,R
407,-0.530,0.525,-0.760,172.222,94.444,377.778,813.889,25.000,R
408,-0.575,0.400,-0.730,194.444,94.444,377.778,858.333,44.444,R
409,-0.560,0.460,-0.725,166.667,100.000,388.889,827.778,30.556,R
410,-0.530,0.580,-0.720,169.444,100.000,383.333,841.667,13.889,R
411,-0.535,0.585,-0.715,166.667,86.111,372.222,836.111,5.556,R
412,-0.555,0.400,-0.760,161.111,97.222,383.333,819.444,16.667,R
413,-0.600,0.245,-0.725,158.333,100.000,380.556,836.111,16.667,R
414,-0.550,0.535,-0.755,172.222,91.667,386.111,786.111,50.000,R
415,-0.625,0.460,-0.805,161.111,100.000,386.111,805.556,19.444,R
416,-0.640,0.485,-0.815,158.333,97.222,383.333,838.889,33.333,R
417,-0.650,0.365,-0.835,197.222,80.556,363.889,788.889,50.000,R
418,-0.610,0.475,-0.875,197.222,91.667,380.556,819.444,30.556,R
419,-0.690,0.130,-0.900,158.333,102.778,380.556,816.667,2.778,R
420,-0.685,0.170,-0.915,161.111,102.778,405.556,805.556,11.111,R
421,-0.690,0.420,-0.865,172.222,83.333,386.111,833.333,27.778,R
422,-0.645,0.515,-0.795,166.667,97.222,388.889,777.778,55.556,R
423,-0.890,0.560,-0.850,102.778,83.333,363.889,616.667,161.111,A
424,-0.675,0.505,-0.840,197.222,102.778,380.556,963.889,347.222,R
425,-0.610,0.420,-0.740,188.889,94.444,388.889,852.778,111.111,R
426,-0.610,0.595,-0.735,197.222,94.444,386.111,833.333,19.444,R
427,-0.605,0.660,-0.835,158.333,100.000,311.111,811.111,22.222,R
428,-0.850,0.850,-0.770,58.333,102.778,383.333,591.667,219.444,A
429,-0.555,0.415,-0.855,197.222,88.889,377.778,875.000,283.333,R
430,-0.850,0.385,-0.850,66.667,80.556,377.778,652.778,222.222,A
431,-0.630,0.630,-0.920,197.222,100.000,377.778,961.111,308.333,R
432,-0.960,0.735,-0.900,186.111,86.111,355.556,647.222,313.889,A
433,-0.645,0.555,-0.890,197.222,100.000,388.889,936.111,288.889,R
434,-0.910,0.620,-0.830,52.778,77.778,361.111,644.444,291.667,A
435,-0.650,0.730,-0.830,183.333,97.222,388.889,969.444,325.000,R
436,-0.665,0.805,-0.780,163.889,86.111,375.000,833.333,136.111,R
437,-0.500,0.850,-0.825,194.444,94.444,377.778,816.667,16.667,R
438,-0.790,0.985,-0.720,58.333,91.667,347.222,566.667,250.000,A
439,-0.490,0.665,-0.755,197.222,94.444,377.778,886.111,319.444,R
440,-0.550,0.460,-0.800,197.222,88.889,380.556,822.222,63.889,R
441,-0.910,0.190,-0.820,191.667,108.333,375.000,805.556,16.667,R
442,-0.685,0.650,-0.835,161.111,94.444,-364388.889,800.000,5.556,R
443,-0.835,0.335,-0.820,365208.333,102.778,391.667,783.333,16.667,R
444,-0.470,0.380,-0.500,169.444,83.333,333.333,755.556,27.778,R
445,-0.425,0.895,-0.560,161.111,88.889,363.889,777.778,22.222,R
446,-0.185,1.015,-0.210,197.222,86.111,344.444,775.000,2.778,R
447,0.070,0.840,-0.395,180.556,100.000,200.000,752.778,22.222,R
448,-0.315,0.455,-0.530,188.889,100.000,402.778,744.444,8.333,R
449,-0.305,0.495,-0.615,191.667,94.444,386.111,769.444,25.000,R
450,-0.445,0.715,-0.580,180.556,88.889,355.556,755.556,13.889,R
451,-0.390,0.950,-0.600,194.444,88.889,369.444,752.778,2.778,R
452,-0.510,0.850,-0.490,197.222,108.333,397.222,772.222,19.444,R
453,-0.330,0.720,-0.540,188.889,80.556,363.889,777.778,5.556,R
454,-0.270,0.830,-0.355,188.889,91.667,377.778,750.000,27.778,R
455,-0.215,0.900,-0.370,197.222,100.000,383.333,766.667,16.667,R
456,-0.260,0.755,-0.520,155.556,97.222,358.333,769.444,2.778,R
457,-0.410,0.340,-0.530,141.667,97.222,375.000,738.889,30.556,R
458,-0.375,0.560,-0.610,183.333,94.444,363.889,747.222,8.333,R
459,-0.450,0.445,-0.685,177.778,86.111,366.667,722.222,25.000,R
460,-0.460,0.475,-0.725,183.333,83.333,375.000,738.889,16.667,R
461,-0.545,0.410,-0.760,175.000,83.333,380.556,730.556,8.333,R
462,-0.540,0.395,-0.760,172.222,86.111,375.000,741.667,11.111,R
463,-0.560,0.530,-0.715,177.778,86.111,341.667,733.333,8.333,R
464,-0.490,0.315,-0.765,191.667,83.333,350.000,736.111,2.778,R
465,-0.575,0.295,-0.850,194.444,86.111,180.556,736.111,0.000,R
466,-0.885,-0.180,-0.835,175.000,105.556,-382433.333,730.556,5.556,R
467,-0.740,0.245,-0.905,150.000,105.556,402.778,750.000,19.444,R
468,-0.685,0.395,-0.750,191.667,86.111,377.778,750.000,0.000,R
469,-0.580,0.350,-0.725,177.778,116.667,386.111,738.889,11.111,R
470,-0.540,0.440,-0.690,180.556,80.556,372.222,711.111,27.778,R
471,-0.495,0.585,-0.620,188.889,88.889,350.000,755.556,44.444,R
472,-0.490,0.685,-0.640,180.556,88.889,386.111,733.333,22.222,R
473,-0.460,0.480,-0.635,186.111,83.333,386.111,727.778,5.556,R
474,-0.480,0.555,-0.685,188.889,97.222,375.000,741.667,13.889,R
475,-0.470,0.360,-0.655,180.556,80.556,344.444,750.000,8.333,R
476,-0.500,0.460,-0.690,177.778,102.778,377.778,727.778,22.222,R
477,-0.510,0.400,-0.630,172.222,105.556,388.889,730.556,2.778,R
478,-0.475,0.635,-0.645,197.222,86.111,388.889,758.333,27.778,R
479,-0.450,0.405,-0.765,194.444,91.667,372.222,733.333,25.000,R
480,-0.565,0.505,-0.520,194.444,86.111,380.556,736.111,2.778,R
481,-0.565,0.890,-0.480,61.111,80.556,352.778,652.778,83.333,A
482,-0.335,0.655,-0.445,191.667,86.111,347.222,800.000,147.222,R
483,-0.330,0.675,-0.450,197.222,100.000,386.111,716.667,83.333,R
484,-0.350,0.630,-0.485,197.222,94.444,394.444,730.556,13.889,R
485,-0.430,0.485,-0.650,172.222,86.111,341.667,716.667,13.889,R
486,-0.550,0.375,-0.825,144.444,83.333,344.444,716.667,0.000,R
487,-0.675,0.320,-0.900,188.889,102.778,386.111,705.556,11.111,R
488,-0.800,0.150,-0.835,177.778,86.111,-398536.111,708.333,2.778,R
489,-0.905,0.120,-0.950,183.333,75.000,366.667,702.778,5.556,R
490,-0.825,0.155,-0.895,183.333,75.000,363.889,711.111,8.333,R
491,-0.665,0.320,-0.880,188.889,83.333,383.333,705.556,5.556,R
492,-0.700,0.465,-0.840,191.667,94.444,344.444,702.778,2.778,R
493,-0.790,0.370,-0.835,180.556,83.333,-402041.667,686.111,16.667,R
494,-0.805,-0.005,-0.980,186.111,94.444,375.000,700.000,13.889,R
495,-0.800,0.075,-0.835,183.333,91.667,-403450.000,705.556,5.556,R
496,-0.845,0.300,-0.835,177.778,100.000,-404119.444,688.889,16.667,R
497,-0.830,0.195,-0.940,186.111,88.889,358.333,708.333,19.444,R
498,-0.755,0.155,-0.970,133.333,75.000,352.778,702.778,5.556,R
499,-0.785,0.160,-0.875,186.111,80.556,377.778,688.889,13.889,R
500,-0.705,0.140,-0.815,180.556,91.667,350.000,677.778,11.111,R
501,-0.680,0.570,-0.785,158.333,108.333,391.667,708.333,30.556,R
502,-0.625,0.545,-0.795,197.222,88.889,386.111,705.556,2.778,R
503,-0.670,0.415,-0.900,191.667,83.333,336.111,686.111,19.444,R
504,-0.810,0.150,-0.875,175.000,75.000,350.000,672.222,13.889,R
505,-0.670,0.475,-0.775,177.778,88.889,366.667,686.111,13.889,R
506,-0.590,0.540,-0.710,183.333,100.000,355.556,683.333,2.778,R
507,-0.525,0.630,-0.715,183.333,91.667,388.889,675.000,8.333,R
508,-0.615,0.555,-0.800,194.444,80.556,330.556,680.556,5.556,R
509,-0.655,0.245,-0.750,188.889,86.111,341.667,683.333,2.778,R
510,-0.535,0.525,-0.630,169.444,94.444,383.333,675.000,8.333,R
511,-0.445,0.570,-0.610,177.778,94.444,363.889,675.000,0.000,R
512,-0.450,0.660,-0.635,180.556,88.889,341.667,680.556,5.556,R
513,-0.565,0.440,-0.720,175.000,105.556,380.556,683.333,2.778,R
514,-0.595,0.445,-0.740,188.889,97.222,361.111,683.333,0.000,R
515,-0.645,0.620,-0.685,183.333,86.111,383.333,683.333,0.000,R
516,-0.485,0.605,-0.670,177.778,77.778,327.778,680.556,2.778,R
517,-0.560,0.490,-0.860,188.889,83.333,383.333,663.889,16.667,R
518,-0.700,0.365,-0.820,194.444,88.889,380.556,683.333,19.444,R
519,-0.685,0.540,-0.840,141.667,102.778,369.444,675.000,8.333,R
520,-0.665,0.500,-0.790,197.222,77.778,350.000,675.000,0.000,R
521,-0.640,0.595,-0.810,183.333,80.556,355.556,666.667,8.333,R
522,-0.570,0.640,-0.670,188.889,105.556,350.000,683.333,16.667,R
523,-0.530,0.700,-0.805,186.111,86.111,350.000,666.667,16.667,R
524,-0.670,0.375,-0.855,175.000,86.111,325.000,658.333,8.333,R
525,-0.650,0.360,-0.785,175.000,83.333,355.556,658.333,0.000,R
526,-0.690,0.575,-0.815,191.667,83.333,341.667,691.667,33.333,R
527,-0.665,0.565,-0.725,191.667,86.111,355.556,669.444,22.222,R
528,-0.620,0.635,-0.720,186.111,88.889,338.889,663.889,5.556,R
529,-0.620,0.630,-0.760,186.111,100.000,341.667,661.111,2.778,R
530,-0.560,0.490,-0.845,186.111,91.667,358.333,688.889,27.778,R
531,-0.630,0.490,-0.775,180.556,77.778,327.778,658.333,30.556,R
532,-0.610,0.530,-0.755,191.667,97.222,363.889,669.444,11.111,R
533,-0.560,0.650,-0.650,183.333,100.000,375.000,683.333,13.889,R
534,-0.560,0.645,-0.750,191.667,100.000,369.444,694.444,11.111,R
535,-0.615,0.450,-0.775,186.111,88.889,350.000,669.444,25.000,R
536,-0.645,0.525,-0.790,155.556,83.333,369.444,686.111,16.667,R
537,-0.675,0.470,-0.750,191.667,86.111,377.778,680.556,5.556,R
538,-0.665,0.400,-0.845,197.222,83.333,355.556,691.667,11.111,R
539,-0.770,0.360,-0.875,177.778,80.556,344.444,677.778,13.889,R
540,-0.705,0.390,-0.825,186.111,88.889,358.333,680.556,2.778,R
541,-0.640,0.445,-0.780,183.333,91.667,350.000,669.444,11.111,R
542,-0.590,0.525,-0.700,186.111,83.333,363.889,672.222,2.778,R
543,-0.545,0.700,-0.645,186.111,94.444,358.333,680.556,8.333,R
544,-0.475,0.625,-0.605,188.889,77.778,350.000,680.556,0.000,R
545,-0.440,0.615,-0.635,183.333,80.556,363.889,672.222,8.333,R
546,-0.530,0.425,-0.755,191.667,91.667,344.444,683.333,11.111,R
547,-0.620,0.375,-0.765,188.889,97.222,366.667,688.889,5.556,R
548,-0.710,0.625,-0.675,69.444,77.778,158.333,527.778,161.111,A
549,-0.505,0.575,-0.665,197.222,83.333,341.667,788.889,261.111,R
550,-0.560,0.630,-0.660,188.889,94.444,327.778,716.667,72.222,R
551,-0.505,0.495,-0.695,197.222,94.444,355.556,705.556,11.111,R
552,-0.625,0.440,-0.675,188.889,97.222,375.000,705.556,0.000,R
553,-0.495,0.565,-0.670,188.889,77.778,325.000,694.444,11.111,R
554,-0.610,0.500,-0.650,158.333,86.111,377.778,708.333,13.889,R
555,-0.530,0.445,-0.640,191.667,88.889,375.000,700.000,8.333,R
556,-0.560,0.445,-0.770,186.111,94.444,344.444,691.667,8.333,R
557,-0.630,0.355,-0.825,194.444,86.111,366.667,705.556,13.889,R
558,-0.720,0.370,-0.850,197.222,83.333,327.778,713.889,8.333,R
559,-0.685,0.315,-0.855,172.222,91.667,347.222,691.667,22.222,R
560,-0.715,0.150,-0.835,183.333,77.778,-447841.667,688.889,2.778,R
561,-0.835,-0.065,-0.835,448569.444,88.889,316.667,688.889,0.000,R
562,-0.835,0.280,-0.930,449094.444,97.222,394.444,525.000,163.889,A
563,-0.785,0.335,-0.835,191.667,86.111,391.667,763.889,238.889,R
564,-0.685,0.475,-0.750,191.667,88.889,366.667,702.778,61.111,R
565,-0.630,0.405,-0.740,188.889,88.889,308.333,688.889,13.889,R
566,-0.655,0.450,-0.765,177.778,97.222,350.000,688.889,0.000,R
567,-0.630,0.385,-0.730,183.333,91.667,330.556,688.889,0.000,R
568,-0.630,0.400,-0.795,177.778,86.111,366.667,700.000,11.111,R
569,-0.715,0.320,-0.830,191.667,88.889,372.222,711.111,11.111,R
570,-0.730,0.175,-0.790,158.333,75.000,325.000,702.778,8.333,R
571,-0.655,0.375,-0.740,197.222,83.333,377.778,716.667,13.889,R
572,-0.600,0.415,-0.755,186.111,80.556,325.000,719.444,2.778,R
573,-0.685,0.195,-0.820,180.556,94.444,352.778,705.556,13.889,R
574,-0.645,0.325,-0.750,158.333,97.222,352.778,736.111,30.556,R
575,-0.615,0.365,-0.735,183.333,83.333,327.778,722.222,13.889,R
576,-0.630,0.255,-0.705,186.111,75.000,355.556,716.667,5.556,R
577,-0.565,0.410,-0.670,191.667,94.444,391.667,713.889,2.778,R
578,-0.520,0.505,-0.690,191.667,77.778,361.111,736.111,22.222,R
579,-0.690,0.760,-0.595,158.333,63.889,88.889,480.556,255.556,V
580,-0.600,0.380,-0.640,161.111,86.111,333.333,716.667,236.111,A
581,-0.630,0.145,-0.745,186.111,83.333,386.111,875.000,158.333,R
582,-0.610,0.280,-0.685,147.222,83.333,363.889,766.667,108.333,R
583,-0.565,0.460,-0.675,177.778,83.333,383.333,730.556,36.111,R
584,-0.590,0.375,-0.740,183.333,80.556,325.000,738.889,8.333,R
585,-0.615,0.490,-0.690,191.667,94.444,380.556,741.667,2.778,R
586,-0.585,0.420,-0.830,177.778,91.667,336.111,747.222,5.556,R
587,-0.610,0.395,-0.800,197.222,91.667,386.111,736.111,11.111,R
588,-0.515,0.415,-0.730,150.000,94.444,377.778,738.889,2.778,R
589,-0.530,0.560,-0.670,150.000,80.556,330.556,733.333,5.556,R
590,-0.445,0.485,-0.700,188.889,80.556,380.556,716.667,16.667,R
591,-0.530,0.335,-0.875,188.889,80.556,350.000,727.778,11.111,R
592,-0.705,0.345,-0.810,191.667,83.333,358.333,722.222,5.556,R
593,-0.675,0.325,-0.835,191.667,83.333,-471372.222,730.556,8.333,R
594,-0.745,0.105,-0.835,186.111,80.556,-472086.111,713.889,16.667,R
595,-0.860,0.250,-0.920,186.111,86.111,338.889,713.889,0.000,R
596,-0.660,0.470,-0.805,188.889,86.111,341.667,700.000,13.889,R
597,-0.665,0.320,-0.805,183.333,80.556,333.333,738.889,38.889,R
598,-0.580,0.530,-0.685,186.111,94.444,386.111,713.889,25.000,R
599,-0.410,0.295,-0.615,186.111,69.444,155.556,730.556,16.667,R
600,-0.600,0.395,-0.760,194.444,83.333,158.333,697.222,33.333,R
601,-0.535,0.440,-0.605,194.444,80.556,152.778,736.111,38.889,R
602,-0.360,0.565,-0.755,188.889,83.333,305.556,719.444,16.667,R
603,-0.765,0.450,-0.695,188.889,94.444,363.889,719.444,0.000,R
604,-0.460,0.635,-0.655,197.222,86.111,350.000,738.889,19.444,R
605,-0.485,0.650,-0.740,175.000,100.000,347.222,733.333,5.556,R
606,-0.525,0.350,-0.835,188.889,91.667,-480738.889,708.333,25.000,R
607,-0.835,-0.285,-0.835,481472.222,86.111,-481430.556,697.222,11.111,R
608,-0.835,-0.165,-0.910,482208.333,88.889,375.000,736.111,38.889,R
609,-0.520,0.375,-0.580,175.000,97.222,369.444,702.778,33.333,R
610,-0.240,0.760,-0.375,188.889,102.778,366.667,716.667,13.889,R
611,-0.150,0.920,-0.340,183.333,88.889,333.333,697.222,19.444,R
612,-0.225,0.680,-0.395,152.778,88.889,338.889,719.444,22.222,R
613,-0.135,0.780,-0.355,188.889,91.667,338.889,688.889,30.556,R
614,-0.270,0.755,-0.450,197.222,105.556,347.222,722.222,33.333,R
615,-0.310,0.605,-0.440,158.333,91.667,347.222,713.889,8.333,R
616,-0.245,0.855,-0.425,191.667,91.667,325.000,730.556,16.667,R
617,-0.315,0.655,-0.440,186.111,86.111,344.444,697.222,33.333,R
618,-0.435,0.795,-0.600,197.222,83.333,333.333,722.222,25.000,R
619,-0.455,0.385,-0.555,191.667,91.667,388.889,716.667,5.556,R
620,-0.615,0.755,-0.635,113.889,100.000,169.444,691.667,25.000,R
621,-0.420,0.745,-0.595,197.222,77.778,347.222,775.000,83.333,R
622,-0.450,0.520,-0.775,186.111,91.667,375.000,722.222,52.778,R
623,-0.660,0.315,-0.495,152.778,102.778,391.667,711.111,11.111,R
624,-0.740,0.370,-0.565,141.667,100.000,380.556,722.222,11.111,R
625,-0.520,1.115,-0.420,52.778,66.667,108.333,475.000,247.222,V
626,-0.280,0.925,-0.170,144.444,86.111,372.222,858.333,383.333,R
627,-0.070,0.850,-0.125,144.444,100.000,350.000,850.000,8.333,R
628,0.030,0.590,-0.320,188.889,97.222,194.444,738.889,111.111,R
629,-0.605,0.260,-0.535,183.333,94.444,363.889,725.000,13.889,R
630,-0.535,0.210,-0.605,133.333,100.000,152.778,713.889,11.111,R
631,-0.330,0.415,-0.525,175.000,94.444,350.000,744.444,30.556,R
632,-0.530,0.410,-0.480,180.556,100.000,380.556,630.556,113.889,A
633,-0.480,0.310,-0.575,186.111,102.778,363.889,808.333,177.778,R
634,-0.575,0.775,-0.785,47.222,63.889,363.889,547.222,261.111,V
635,-0.480,0.235,-0.250,138.889,116.667,316.667,922.222,375.000,R
636,-0.185,0.390,-0.280,180.556,88.889,394.444,725.000,197.222,R
637,0.765,1.585,0.735,100.000,113.889,205.556,719.444,5.556,R
638,0.265,0.250,-0.115,105.556,91.667,172.222,738.889,19.444,R
639,-0.150,0.000,-0.845,188.889,116.667,219.444,719.444,19.444,R
640,-0.730,-0.040,-0.970,172.222,94.444,363.889,711.111,8.333,R
641,-0.735,0.045,-0.785,144.444,88.889,158.333,719.444,8.333,R
642,-0.575,0.555,-0.470,72.222,116.667,338.889,680.556,38.889,R
643,-0.120,0.210,-0.525,194.444,97.222,194.444,761.111,80.556,R
644,-0.420,0.385,-0.580,186.111,83.333,316.667,733.333,27.778,R
645,-0.390,0.205,-0.220,197.222,111.111,197.222,708.333,25.000,R
646,-0.280,0.035,-0.735,180.556,94.444,369.444,716.667,8.333,R
647,-0.565,0.175,-0.685,183.333,94.444,372.222,713.889,2.778,R
648,-0.625,0.325,-0.375,186.111,88.889,372.222,719.444,5.556,R
649,0.420,-1.390,1.575,33.333,2.778,347.222,591.667,127.778,A
650,-0.835,2.300,1.125,512441.667,512500.000,512533.333,811.111,219.444,R
651,0.790,1.360,0.615,194.444,88.889,366.667,722.222,88.889,R
652,0.635,0.950,0.460,183.333,63.889,161.111,716.667,5.556,R
653,0.070,0.495,0.100,150.000,83.333,166.667,713.889,2.778,R
654,0.285,-1.800,-0.610,30.556,11.111,94.444,777.778,63.889,R
655,-0.970,-0.400,-0.835,197.222,83.333,-516013.889,680.556,97.222,R
656,-0.835,-0.420,-0.835,516755.556,66.667,-516716.667,702.778,22.222,R
657,-0.835,-0.370,-0.835,517452.778,91.667,322.222,697.222,5.556,R
658,-0.835,-0.015,-0.940,517977.778,91.667,155.556,525.000,172.222,A
659,-0.880,-0.190,-0.835,133.333,83.333,-518725.000,788.889,263.889,R
660,-0.835,-0.195,-0.835,519472.222,105.556,-519413.889,705.556,83.333,R
661,-0.835,-0.215,-0.835,520191.667,86.111,-520152.778,719.444,13.889,R
662,-0.920,0.015,-0.835,172.222,77.778,-520869.444,713.889,5.556,R
663,-0.835,-0.185,-0.835,521588.889,83.333,-521550.000,683.333,30.556,R
664,-0.835,-0.095,-0.835,522286.111,100.000,-522244.444,697.222,13.889,R
665,-0.935,0.195,-0.835,197.222,86.111,-522938.889,697.222,0.000,R
666,-0.930,0.175,-0.835,188.889,75.000,-523644.444,700.000,2.778,R
667,-0.915,0.195,-0.835,180.556,86.111,-524330.556,688.889,11.111,R
668,-0.835,-0.165,-0.835,525069.444,91.667,-525027.778,697.222,8.333,R
669,-0.835,-0.005,-0.835,525758.333,80.556,-525719.444,688.889,8.333,R
670,-0.990,0.295,-0.985,177.778,80.556,355.556,686.111,2.778,R
671,-0.785,0.330,-0.940,172.222,86.111,333.333,686.111,0.000,R
672,-0.825,0.345,-0.770,188.889,88.889,344.444,700.000,13.889,R
673,-0.545,0.700,-0.555,186.111,83.333,380.556,688.889,11.111,R
674,-0.365,0.880,-0.510,180.556,77.778,325.000,686.111,2.778,R
675,-0.320,0.885,-0.230,172.222,86.111,327.778,691.667,5.556,R
676,-0.470,0.935,-0.610,180.556,88.889,169.444,502.778,188.889,A
677,-0.405,0.700,-0.495,177.778,86.111,361.111,772.222,269.444,R
678,-0.310,1.015,-0.370,194.444,80.556,327.778,716.667,55.556,R
679,-0.195,0.815,-0.470,186.111,91.667,355.556,691.667,25.000,R
680,-0.430,0.530,-0.695,169.444,97.222,347.222,688.889,2.778,R
681,-0.755,0.405,-0.790,183.333,88.889,344.444,688.889,0.000,R
682,-0.580,0.585,-0.625,172.222,80.556,375.000,700.000,11.111,R
683,-0.375,0.705,-0.515,177.778,83.333,327.778,683.333,16.667,R
684,-0.400,0.845,-0.215,183.333,83.333,347.222,683.333,0.000,R
685,-0.025,1.280,-0.180,188.889,83.333,350.000,700.000,16.667,R
686,-0.200,1.150,-0.295,177.778,77.778,347.222,622.222,77.778,R
687,-0.180,1.000,-0.465,180.556,83.333,341.667,761.111,138.889,R
688,-0.350,0.835,-0.530,180.556,80.556,352.778,705.556,55.556,R
689,-0.430,0.940,-0.465,194.444,86.111,361.111,733.333,27.778,R
690,-0.320,0.985,-0.475,191.667,88.889,341.667,719.444,13.889,R
691,-0.335,0.885,-0.570,188.889,77.778,341.667,722.222,2.778,R
692,-0.465,0.715,-0.785,191.667,83.333,327.778,727.778,5.556,R
693,-0.785,0.305,-0.835,191.667,83.333,-542419.444,741.667,13.889,R
694,-0.835,0.075,-0.835,543186.111,80.556,-543147.222,727.778,13.889,R
695,-0.835,0.180,-0.835,543925.000,83.333,-543883.333,738.889,11.111,R
696,-0.835,0.285,-0.925,544658.333,83.333,375.000,733.333,5.556,R
697,-0.660,0.670,-0.690,197.222,86.111,341.667,741.667,8.333,R
698,-0.515,0.825,-0.570,183.333,83.333,338.889,738.889,2.778,R
699,-0.420,0.765,-0.620,186.111,75.000,347.222,750.000,11.111,R
700,-0.445,0.870,-0.570,194.444,86.111,369.444,750.000,0.000,R
701,-0.395,0.850,-0.525,188.889,88.889,350.000,755.556,5.556,R
702,-0.360,0.845,-0.450,177.778,83.333,333.333,747.222,8.333,R
703,-0.320,0.945,-0.445,186.111,77.778,316.667,750.000,2.778,R
704,-0.240,1.050,-0.250,188.889,86.111,369.444,747.222,2.778,R
705,-0.060,1.225,-0.145,188.889,83.333,352.778,755.556,8.333,R
706,0.025,1.300,-0.110,188.889,83.333,363.889,750.000,5.556,R
707,0.035,1.200,-0.140,188.889,83.333,338.889,761.111,11.111,R
708,-0.105,1.025,-0.345,180.556,86.111,361.111,772.222,11.111,R
709,-0.225,1.125,-0.040,197.222,86.111,302.778,766.667,5.556,R
710,-0.350,1.245,-0.225,66.667,88.889,330.556,530.556,236.111,A
711,-0.065,1.140,-0.295,177.778,80.556,336.111,844.444,313.889,R
712,-0.200,1.000,-0.260,194.444,80.556,347.222,791.667,52.778,R
713,-0.495,0.850,-0.555,197.222,80.556,313.889,541.667,250.000,A
714,-0.370,0.785,-0.535,180.556,80.556,355.556,877.778,336.111,R
715,-0.410,0.840,-0.555,183.333,80.556,352.778,761.111,116.667,R
716,-0.395,0.720,-0.665,188.889,86.111,352.778,769.444,8.333,R
717,-0.660,0.610,-0.765,183.333,80.556,358.333,758.333,11.111,R
718,-0.595,0.750,-0.620,194.444,80.556,350.000,777.778,19.444,R
719,-0.495,0.815,-0.625,188.889,86.111,350.000,772.222,5.556,R
720,-0.565,0.785,-0.710,133.333,91.667,341.667,777.778,5.556,R
721,-0.670,0.565,-0.900,194.444,86.111,350.000,783.333,5.556,R
722,-0.770,0.530,-0.760,133.333,83.333,358.333,777.778,5.556,R
723,-0.620,0.700,-0.720,186.111,86.111,372.222,794.444,16.667,R
724,-0.595,0.655,-0.755,144.444,75.000,355.556,788.889,5.556,R
725,-0.680,0.620,-0.855,127.778,83.333,313.889,777.778,11.111,R
726,-0.765,0.495,-0.990,141.667,83.333,336.111,783.333,5.556,R
727,-0.990,0.825,-0.835,183.333,63.889,-567811.111,483.333,300.000,V
728,-0.745,0.485,-0.790,125.000,94.444,380.556,1075.000,591.667,R
729,-0.675,0.710,-0.745,183.333,83.333,369.444,780.556,294.444,R
730,-0.640,0.650,-0.815,197.222,80.556,327.778,794.444,13.889,R
731,-0.725,0.530,-0.915,136.111,77.778,325.000,769.444,25.000,R
732,-0.805,0.365,-0.790,133.333,83.333,338.889,758.333,11.111,R
733,-0.650,0.720,-0.720,191.667,91.667,386.111,791.667,33.333,R
734,-0.600,0.745,-0.720,175.000,86.111,375.000,780.556,11.111,R
735,-0.600,0.800,-0.700,141.667,83.333,361.111,775.000,5.556,R
736,-0.610,0.685,-0.840,186.111,86.111,350.000,775.000,0.000,R
737,-0.775,0.570,-0.835,188.889,77.778,355.556,794.444,19.444,R
738,-0.675,0.690,-0.750,141.667,80.556,361.111,766.667,27.778,R
739,-0.575,0.775,-0.665,186.111,83.333,352.778,772.222,5.556,R
740,-0.535,0.845,-0.645,197.222,88.889,372.222,780.556,8.333,R
741,-0.580,0.700,-0.745,191.667,80.556,347.222,761.111,19.444,R
742,-0.600,0.680,-0.630,138.889,83.333,372.222,775.000,13.889,R
743,-0.485,0.885,-0.635,194.444,83.333,344.444,758.333,16.667,R
744,-0.520,0.885,-0.680,136.111,86.111,366.667,775.000,16.667,R
745,-0.600,0.825,-0.885,144.444,83.333,363.889,769.444,5.556,R
746,-0.800,0.385,-0.880,197.222,69.444,336.111,772.222,2.778,R
747,-0.735,0.720,-0.820,144.444,86.111,375.000,761.111,11.111,R
748,-0.630,0.815,-0.750,141.667,80.556,341.667,775.000,13.889,R
749,-0.615,0.755,-0.810,191.667,80.556,333.333,769.444,5.556,R
750,-0.735,0.610,-0.785,136.111,77.778,369.444,761.111,8.333,R
751,-0.645,0.815,-0.635,147.222,83.333,380.556,786.111,25.000,R
752,-0.485,0.900,-0.620,188.889,80.556,355.556,755.556,30.556,R
753,-0.480,0.895,-0.650,183.333,83.333,388.889,738.889,16.667,R
754,-0.590,0.760,-0.830,197.222,83.333,341.667,744.444,5.556,R
755,-0.690,0.665,-0.725,136.111,86.111,350.000,763.889,19.444,R
756,-0.540,0.875,-0.640,138.889,86.111,338.889,747.222,16.667,R
757,-0.515,0.835,-0.635,197.222,75.000,325.000,736.111,11.111,R
758,-0.550,0.645,-0.860,194.444,83.333,147.222,755.556,19.444,R
759,-0.795,0.485,-0.870,188.889,83.333,330.556,750.000,5.556,R
760,-0.700,0.760,-0.720,194.444,83.333,347.222,747.222,2.778,R
761,-0.550,0.865,-0.670,191.667,77.778,352.778,761.111,13.889,R
762,-0.535,0.755,-0.795,194.444,83.333,336.111,777.778,16.667,R
763,-0.700,0.655,-0.775,183.333,83.333,380.556,752.778,25.000,R
764,-0.620,0.805,-0.655,136.111,77.778,344.444,766.667,13.889,R
765,-0.470,0.915,-0.605,188.889,88.889,380.556,775.000,8.333,R
766,-0.450,0.900,-0.600,177.778,86.111,363.889,775.000,0.000,R
767,-0.430,0.970,-0.585,191.667,83.333,350.000,788.889,13.889,R
768,-0.515,0.650,-0.715,177.778,77.778,338.889,766.667,22.222,R
769,-0.565,0.725,-0.640,136.111,80.556,369.444,777.778,11.111,R
770,-0.500,0.870,-0.590,188.889,80.556,358.333,777.778,0.000,R
771,-0.400,0.800,-0.575,186.111,80.556,350.000,775.000,2.778,R
772,-0.425,0.800,-0.555,183.333,83.333,308.333,777.778,2.778,R
773,-0.830,0.680,-0.755,186.111,80.556,386.111,552.778,225.000,A
774,-0.565,0.670,-0.680,175.000,86.111,375.000,850.000,297.222,R
775,-0.510,0.690,-0.665,186.111,86.111,344.444,769.444,80.556,R
776,-0.535,0.780,-0.720,197.222,83.333,361.111,772.222,2.778,R
777,-0.675,0.380,-0.835,186.111,75.000,361.111,769.444,2.778,R
778,-0.735,0.460,-0.790,183.333,83.333,338.889,763.889,5.556,R
779,-0.655,0.705,-0.735,183.333,83.333,361.111,741.667,22.222,R
780,-0.615,0.715,-0.765,186.111,80.556,358.333,769.444,27.778,R
781,-0.700,0.340,-0.920,177.778,75.000,336.111,758.333,11.111,R
782,-0.825,0.275,-0.880,136.111,83.333,375.000,755.556,2.778,R
783,-0.725,0.605,-0.780,138.889,86.111,372.222,775.000,19.444,R
784,-0.615,0.745,-0.705,183.333,80.556,333.333,766.667,8.333,R
785,-0.480,0.680,-0.725,186.111,77.778,344.444,750.000,16.667,R
786,-0.550,0.630,-0.700,186.111,80.556,363.889,763.889,13.889,R
787,-0.505,0.845,-0.600,191.667,83.333,341.667,786.111,22.222,R
788,-0.390,0.825,-0.615,188.889,83.333,361.111,738.889,47.222,R
789,-0.410,0.560,-0.595,183.333,77.778,358.333,772.222,33.333,R
790,-0.440,0.795,-0.680,150.000,80.556,161.111,761.111,11.111,R
791,-0.575,0.560,-0.705,172.222,83.333,338.889,761.111,0.000,R
792,-0.505,0.730,-0.610,150.000,77.778,361.111,747.222,13.889,R
793,-0.430,0.715,-0.605,191.667,83.333,366.667,755.556,8.333,R
794,-0.380,0.865,-0.565,191.667,86.111,344.444,763.889,8.333,R
795,-0.395,0.735,-0.650,186.111,83.333,344.444,758.333,5.556,R
796,-0.495,0.610,-0.550,186.111,75.000,347.222,763.889,5.556,R
797,-0.400,0.865,-0.490,183.333,83.333,363.889,755.556,8.333,R
798,-0.300,0.945,-0.510,188.889,83.333,341.667,761.111,5.556,R
799,-0.320,0.875,-0.525,188.889,83.333,369.444,766.667,5.556,R
800,-0.365,0.695,-0.660,175.000,75.000,333.333,761.111,5.556,R
801,-0.515,0.695,-0.650,197.222,83.333,372.222,772.222,11.111,R
802,-0.370,0.845,-0.565,188.889,80.556,386.111,752.778,19.444,R
803,-0.370,0.770,-0.575,188.889,80.556,325.000,763.889,11.111,R
804,-0.410,0.715,-0.710,186.111,80.556,355.556,761.111,2.778,R
805,-0.575,0.655,-0.700,197.222,83.333,347.222,794.444,33.333,R
806,-0.440,0.820,-0.580,194.444,91.667,294.444,752.778,41.667,R
807,-0.770,0.855,-0.595,191.667,80.556,344.444,530.556,222.222,A
808,-0.405,0.770,-0.620,186.111,86.111,372.222,844.444,313.889,R
809,-0.535,0.775,-0.790,194.444,80.556,341.667,794.444,50.000,R
810,-0.715,0.565,-0.770,141.667,77.778,358.333,752.778,41.667,R
811,-0.650,0.675,-0.720,188.889,86.111,375.000,747.222,5.556,R
812,-0.585,0.810,-0.655,141.667,83.333,352.778,758.333,11.111,R
813,-0.525,0.880,-0.605,130.556,83.333,363.889,719.444,38.889,R
814,-0.505,0.895,-0.640,191.667,83.333,344.444,752.778,33.333,R
815,-0.580,0.755,-0.780,183.333,80.556,352.778,758.333,5.556,R
816,-0.665,0.675,-0.750,188.889,75.000,347.222,769.444,11.111,R
817,-0.550,0.815,-0.645,141.667,83.333,336.111,755.556,13.889,R
818,-0.450,0.885,-0.610,194.444,77.778,338.889,769.444,13.889,R
819,-0.455,0.855,-0.630,194.444,83.333,358.333,763.889,5.556,R
820,-0.495,0.705,-0.820,183.333,80.556,366.667,763.889,0.000,R
821,-0.725,0.545,-0.485,138.889,83.333,375.000,791.667,27.778,R
822,-0.290,0.610,-0.505,183.333,75.000,344.444,755.556,36.111,R
823,-0.390,0.415,-0.655,183.333,77.778,327.778,763.889,8.333,R
824,-0.690,0.335,-0.895,150.000,83.333,355.556,769.444,5.556,R
825,-0.705,0.520,-0.855,194.444,86.111,372.222,758.333,11.111,R
826,-0.590,0.280,-0.835,186.111,83.333,-643569.444,755.556,2.778,R
827,-0.965,-0.065,-0.835,186.111,80.556,-644361.111,788.889,33.333,R
828,-0.825,0.315,-0.995,188.889,88.889,344.444,755.556,33.333,R
829,-0.730,0.455,-0.885,183.333,80.556,386.111,747.222,8.333,R
830,-0.555,0.580,-0.685,194.444,83.333,347.222,775.000,27.778,R
831,-0.540,0.480,-0.840,188.889,97.222,375.000,769.444,5.556,R
832,-0.675,0.580,-0.605,152.778,86.111,369.444,780.556,11.111,R
833,-0.400,0.915,-0.690,194.444,94.444,363.889,733.333,47.222,R
834,-0.605,0.335,-0.835,188.889,75.000,-649700.000,777.778,44.444,R
835,-0.995,0.120,-0.835,188.889,80.556,-650483.333,786.111,8.333,R
836,-0.855,0.090,-0.935,197.222,86.111,375.000,766.667,19.444,R
837,-0.815,0.325,-0.780,197.222,88.889,302.778,802.778,36.111,R
838,-0.970,0.470,-0.980,197.222,91.667,319.444,547.222,255.556,A
839,-0.850,0.145,-0.835,197.222,91.667,-653447.222,852.778,305.556,R
840,-0.755,0.205,-0.900,152.778,77.778,350.000,772.222,80.556,R
841,-0.770,0.145,-0.840,191.667,102.778,355.556,788.889,16.667,R
842,-0.770,-0.145,-0.955,191.667,83.333,375.000,772.222,16.667,R
843,-0.800,-0.110,-0.960,180.556,77.778,333.333,775.000,2.778,R
844,-0.745,0.375,-0.900,180.556,83.333,358.333,761.111,13.889,R
845,-0.710,0.125,-0.885,186.111,83.333,352.778,783.333,22.222,R
846,-0.730,0.005,-0.895,183.333,102.778,377.778,788.889,5.556,R
847,-0.655,0.355,-0.810,186.111,83.333,161.111,794.444,5.556,R
848,-0.645,0.000,-0.860,197.222,91.667,361.111,797.222,2.778,R
849,-0.685,0.235,-0.795,197.222,111.111,363.889,794.444,2.778,R
850,-0.660,0.360,-0.790,191.667,97.222,380.556,794.444,0.000,R
851,-0.650,0.345,-0.815,188.889,88.889,155.556,791.667,2.778,R
852,-0.750,0.130,-0.910,186.111,100.000,194.444,827.778,36.111,R
853,-0.760,0.175,-0.980,197.222,83.333,344.444,791.667,36.111,R
854,-0.940,0.350,-0.840,75.000,88.889,341.667,541.667,250.000,A
855,-0.725,0.080,-0.890,191.667,86.111,383.333,877.778,336.111,R
856,-0.710,0.055,-0.875,175.000,77.778,380.556,791.667,86.111,R
857,-0.720,0.155,-0.835,197.222,83.333,369.444,797.222,5.556,R
858,-0.930,0.250,-0.910,175.000,83.333,158.333,602.778,194.444,A
859,-0.740,0.250,-0.905,188.889,83.333,377.778,969.444,366.667,R
860,-0.790,0.370,-0.915,191.667,86.111,377.778,819.444,150.000,R
861,-0.845,0.280,-0.910,191.667,94.444,377.778,833.333,13.889,R
862,-0.725,0.370,-0.860,194.444,86.111,366.667,844.444,11.111,R
863,-0.715,0.505,-0.770,144.444,91.667,380.556,827.778,16.667,R
864,-0.680,0.610,-0.790,152.778,86.111,347.222,858.333,30.556,R
865,-0.735,0.600,-0.705,175.000,83.333,372.222,838.889,19.444,R
866,-0.595,0.700,-0.645,144.444,80.556,383.333,861.111,22.222,R
867,-0.510,0.720,-0.600,197.222,83.333,372.222,880.556,19.444,R
868,-0.450,0.630,-0.600,147.222,94.444,388.889,847.222,33.333,R
869,-0.540,0.665,-0.590,150.000,88.889,347.222,877.778,30.556,R
870,-0.585,0.590,-0.705,144.444,97.222,352.778,855.556,22.222,R
871,-0.650,0.630,-0.775,197.222,94.444,372.222,841.667,13.889,R
872,-0.640,0.485,-0.665,141.667,83.333,388.889,883.333,41.667,R
873,-0.565,0.735,-0.675,150.000,94.444,400.000,861.111,22.222,R
874,-0.455,0.720,-0.580,144.444,83.333,372.222,833.333,27.778,R
875,-0.510,0.745,-0.625,147.222,86.111,172.222,866.667,33.333,R
876,-0.500,0.475,-0.755,144.444,86.111,341.667,850.000,16.667,R
877,-0.615,0.510,-0.825,144.444,94.444,380.556,827.778,22.222,R
878,-0.750,0.510,-0.885,197.222,94.444,386.111,844.444,16.667,R
879,-0.740,0.455,-0.925,191.667,94.444,363.889,833.333,11.111,R
880,-0.760,0.330,-0.845,147.222,86.111,377.778,816.667,16.667,R
881,-0.690,0.590,-0.745,197.222,97.222,377.778,833.333,16.667,R
882,-0.560,0.540,-0.725,186.111,72.222,333.333,838.889,5.556,R
883,-0.535,0.555,-0.720,194.444,88.889,363.889,827.778,11.111,R
884,-0.585,0.610,-0.760,194.444,86.111,366.667,816.667,11.111,R
885,-0.525,0.660,-0.715,191.667,88.889,383.333,841.667,25.000,R
886,-0.560,0.645,-0.775,197.222,91.667,375.000,869.444,27.778,R
887,-0.615,0.565,-0.735,197.222,86.111,375.000,863.889,5.556,R
888,-0.570,0.670,-0.785,197.222,91.667,377.778,869.444,5.556,R
889,-0.560,0.635,-0.740,194.444,100.000,377.778,894.444,25.000,R
890,-0.590,0.455,-0.810,188.889,97.222,361.111,886.111,8.333,R
891,-0.610,0.485,-0.705,158.333,97.222,383.333,875.000,11.111,R
892,-0.550,0.720,-0.735,194.444,111.111,400.000,891.667,16.667,R
893,-0.550,0.510,-0.735,191.667,80.556,363.889,880.556,11.111,R
894,-0.545,0.600,-0.770,194.444,97.222,175.000,869.444,11.111,R
895,-0.615,0.630,-0.735,186.111,97.222,380.556,883.333,13.889,R
896,-0.650,0.480,-0.770,188.889,97.222,377.778,852.778,30.556,R
897,-0.570,0.530,-0.850,191.667,91.667,388.889,861.111,8.333,R
898,-0.650,0.430,-0.770,186.111,91.667,366.667,861.111,0.000,R
899,-0.665,0.435,-0.800,180.556,94.444,347.222,822.222,38.889,R
900,-0.840,0.750,-0.810,194.444,97.222,147.222,558.333,263.889,A
901,-0.575,0.395,-0.770,188.889,94.444,386.111,958.333,400.000,R
902,-0.585,0.645,-0.740,194.444,83.333,377.778,847.222,111.111,R
903,-0.540,0.530,-0.825,197.222,83.333,380.556,858.333,11.111,R
904,-0.690,0.475,-0.845,197.222,91.667,383.333,875.000,16.667,R
905,-0.655,0.580,-0.860,197.222,91.667,388.889,861.111,13.889,R
906,-0.680,0.465,-0.810,191.667,94.444,383.333,894.444,33.333,R
907,-0.625,0.535,-0.805,197.222,94.444,380.556,900.000,5.556,R
908,-0.705,0.345,-0.830,138.889,88.889,377.778,877.778,22.222,R
909,-0.695,0.380,-0.800,141.667,83.333,383.333,877.778,0.000,R
910,-0.680,0.565,-0.770,152.778,97.222,386.111,880.556,2.778,R
911,-0.670,0.495,-0.745,141.667,83.333,383.333,880.556,0.000,R
912,-0.530,0.615,-0.650,155.556,86.111,352.778,883.333,2.778,R
913,-0.540,0.550,-0.710,150.000,83.333,366.667,852.778,30.556,R
914,-0.525,0.520,-0.610,150.000,86.111,388.889,872.222,19.444,R
915,-0.410,0.780,-0.540,194.444,91.667,369.444,869.444,2.778,R
916,-0.405,0.705,-0.600,158.333,100.000,161.111,866.667,2.778,R
917,-0.455,0.565,-0.615,150.000,97.222,380.556,880.556,13.889,R
918,-0.420,0.560,-0.640,186.111,94.444,347.222,861.111,19.444,R
919,-0.505,0.610,-0.690,197.222,94.444,391.667,858.333,2.778,R
920,-0.480,0.310,-0.685,188.889,77.778,150.000,877.778,19.444,R
921,-0.505,0.565,-0.675,194.444,97.222,372.222,847.222,30.556,R
922,-0.500,0.470,-0.725,147.222,83.333,361.111,844.444,2.778,R
923,-0.485,0.425,-0.615,197.222,94.444,366.667,852.778,8.333,R
924,-0.430,0.615,-0.600,194.444,94.444,388.889,836.111,16.667,R
925,-0.650,0.640,-0.570,52.778,88.889,355.556,616.667,219.444,A
926,-0.400,0.625,-0.530,152.778,83.333,388.889,1000.000,383.333,R
927,-0.440,0.525,-0.530,147.222,88.889,355.556,830.556,169.444,R
928,-0.395,0.610,-0.555,150.000,86.111,361.111,844.444,13.889,R
929,-0.510,0.370,-0.590,197.222,86.111,166.667,844.444,0.000,R
930,-0.640,0.650,-0.490,100.000,97.222,386.111,572.222,272.222,A
931,-0.310,0.630,-0.430,186.111,97.222,388.889,908.333,336.111,R
932,-0.310,0.820,-0.390,152.778,91.667,347.222,819.444,88.889,R
933,-0.420,0.550,-0.340,102.778,102.778,166.667,550.000,269.444,A
934,-0.160,0.565,-0.365,194.444,102.778,175.000,886.111,336.111,R
935,-0.485,0.625,-0.550,175.000,75.000,380.556,633.333,252.778,A
936,-0.395,0.545,-0.500,183.333,105.556,388.889,913.889,280.556,R
937,-0.460,0.215,-0.615,188.889,102.778,336.111,802.778,111.111,R
938,-0.515,0.400,-0.510,161.111,97.222,175.000,786.111,16.667,R
939,-0.570,0.200,-0.575,177.778,102.778,383.333,766.667,19.444,R
940,-0.470,0.420,-0.400,163.889,83.333,366.667,797.222,30.556,R
941,-0.640,0.405,-0.545,119.444,94.444,138.889,769.444,27.778,R
942,-0.515,0.340,-0.700,197.222,83.333,363.889,772.222,2.778,R
943,-0.505,-0.015,-0.500,141.667,88.889,169.444,755.556,16.667,R
944,-0.620,0.300,-0.570,191.667,83.333,369.444,786.111,30.556,R
945,-0.535,0.215,-0.670,180.556,86.111,383.333,758.333,27.778,R
946,-0.405,0.440,-0.610,197.222,97.222,375.000,763.889,5.556,R
947,-0.420,0.335,-0.685,197.222,100.000,380.556,791.667,27.778,R
948,-0.480,0.180,-0.685,144.444,86.111,363.889,761.111,30.556,R
949,-0.515,1.020,-0.755,50.000,69.444,94.444,477.778,283.333,V
950,-0.510,0.420,-0.625,180.556,111.111,202.778,1016.667,538.889,R
951,-0.545,0.270,-0.605,150.000,100.000,369.444,763.889,252.778,R
952,-0.105,0.640,-0.490,150.000,97.222,386.111,736.111,27.778,R
953,-0.280,0.565,-0.405,172.222,94.444,383.333,750.000,13.889,R
954,-0.630,0.630,-0.235,61.111,108.333,366.667,630.556,119.444,A
955,-0.835,-0.405,-0.835,748641.667,91.667,-748588.889,816.667,186.111,R
956,-0.835,0.330,-0.600,749386.111,88.889,352.778,744.444,72.222,R
957,-0.265,0.750,-0.115,177.778,88.889,369.444,752.778,8.333,R
958,-0.125,0.730,-0.355,180.556,91.667,352.778,741.667,11.111,R
959,-0.185,0.985,-0.330,194.444,100.000,358.333,747.222,5.556,R
960,-0.135,0.555,0.100,169.444,88.889,325.000,750.000,2.778,R
961,-0.350,0.855,-0.370,177.778,83.333,372.222,738.889,11.111,R
962,-0.035,1.045,-0.040,183.333,100.000,369.444,761.111,22.222,R
963,0.220,1.000,-0.190,161.111,69.444,344.444,752.778,8.333,R
964,0.015,0.865,-0.180,141.667,97.222,197.222,738.889,13.889,R
965,-0.085,0.855,-0.585,194.444,91.667,180.556,722.222,16.667,R
966,-0.640,0.815,-0.675,136.111,116.667,363.889,611.111,111.111,A
967,-0.545,0.605,-0.740,175.000,102.778,372.222,830.556,219.444,R
968,-0.550,0.605,-0.180,147.222,91.667,355.556,733.333,97.222,R
969,-0.065,0.750,-0.435,175.000,113.889,400.000,750.000,16.667,R
970,-0.265,0.560,-0.725,180.556,83.333,375.000,750.000,0.000,R
971,-0.620,0.325,-0.440,138.889,83.333,311.111,725.000,25.000,R
972,-0.720,0.625,-0.705,125.000,83.333,338.889,527.778,197.222,A
973,-0.565,0.490,-0.725,144.444,111.111,358.333,844.444,316.667,R
974,-0.790,0.290,-0.705,152.778,80.556,336.111,741.667,102.778,R
975,-0.390,0.630,-0.450,180.556,102.778,363.889,744.444,2.778,R
976,-0.230,0.565,-0.535,141.667,108.333,344.444,725.000,19.444,R
977,-0.835,0.130,-0.835,764830.556,111.111,-764777.778,755.556,30.556,R
978,-0.945,0.650,-0.860,172.222,94.444,369.444,575.000,180.556,A
979,-0.485,0.805,-0.615,177.778,83.333,386.111,852.778,277.778,R
980,-0.335,0.940,-0.405,188.889,88.889,377.778,758.333,94.444,R
981,-0.175,1.030,-0.295,141.667,86.111,363.889,755.556,2.778,R
982,-0.105,1.020,0.065,180.556,111.111,350.000,744.444,11.111,R
983,0.505,1.490,0.250,183.333,75.000,366.667,738.889,5.556,R
984,0.270,1.155,-0.015,197.222,91.667,388.889,719.444,19.444,R
985,0.125,1.020,-0.050,177.778,116.667,177.778,747.222,27.778,R
986,-0.280,1.065,-0.355,94.444,83.333,344.444,616.667,130.556,A
987,-0.220,0.590,-0.410,166.667,105.556,366.667,811.111,194.444,R
988,-0.295,0.500,-0.490,144.444,100.000,375.000,733.333,77.778,R
989,-0.435,0.535,-0.485,183.333,97.222,352.778,716.667,16.667,R
990,-0.325,0.650,-0.370,186.111,83.333,319.444,727.778,11.111,R
991,-0.425,0.435,-0.520,183.333,91.667,386.111,711.111,16.667,R
992,-0.525,0.390,-0.465,163.889,88.889,369.444,647.222,63.889,A
993,-0.385,0.360,-0.615,175.000,88.889,366.667,800.000,152.778,R
994,-0.475,0.470,-0.630,147.222,80.556,352.778,738.889,61.111,R
995,-0.485,0.550,-0.555,152.778,86.111,380.556,744.444,5.556,R
996,-0.380,0.640,-0.455,191.667,88.889,380.556,777.778,33.333,R
997,-0.265,0.550,-0.500,144.444,77.778,383.333,744.444,33.333,R
998,-0.405,0.440,-0.655,147.222,83.333,383.333,766.667,22.222,R
999,-0.505,0.205,-0.760,191.667,83.333,363.889,763.889,2.778,R
1000,-0.625,0.160,-0.810,177.778,100.000,380.556,752.778,11.111,R
1001,-0.650,0.345,-0.835,194.444,88.889,380.556,772.222,19.444,R
1002,-0.625,0.240,-0.785,191.667,86.111,377.778,794.444,22.222,R
1003,-0.635,0.095,-0.800,186.111,91.667,352.778,794.444,0.000,R
1004,-0.620,0.245,-0.785,155.556,94.444,375.000,775.000,19.444,R
1005,-0.620,0.280,-0.780,186.111,80.556,386.111,791.667,16.667,R
1006,-0.570,0.340,-0.705,191.667,91.667,383.333,808.333,16.667,R
1007,-0.530,0.255,-0.655,188.889,94.444,375.000,800.000,8.333,R
1008,-0.450,0.390,-0.595,197.222,86.111,377.778,805.556,5.556,R
1009,-0.345,0.475,-0.720,180.556,88.889,355.556,788.889,16.667,R
1010,-0.515,0.330,-0.690,191.667,91.667,377.778,802.778,13.889,R
1011,-0.455,0.510,-0.650,155.556,91.667,383.333,797.222,5.556,R
1012,-0.465,0.535,-0.630,188.889,83.333,363.889,786.111,11.111,R
1013,-0.450,0.465,-0.640,155.556,86.111,358.333,802.778,16.667,R
1014,-0.415,0.535,-0.650,191.667,91.667,377.778,819.444,16.667,R
1015,-0.445,0.495,-0.665,188.889,75.000,358.333,786.111,33.333,R
1016,-0.490,0.620,-0.645,163.889,88.889,372.222,788.889,2.778,R
1017,-0.405,0.445,-0.460,166.667,94.444,341.667,825.000,36.111,R
1018,-0.640,0.630,-0.595,55.556,97.222,355.556,597.222,227.778,A
1019,-0.425,0.680,-0.680,186.111,94.444,352.778,858.333,261.111,R
1020,-0.505,0.510,-0.725,161.111,86.111,383.333,833.333,25.000,R
1021,-0.580,0.325,-0.845,188.889,91.667,372.222,822.222,11.111,R
1022,-0.725,0.230,-0.835,197.222,88.889,-799194.444,811.111,11.111,R
1023,-0.805,0.095,-0.835,158.333,88.889,-800008.333,811.111,0.000,R
1024,-0.855,0.200,-0.835,161.111,86.111,-800825.000,819.444,8.333,R
1025,-0.835,0.180,-0.835,194.444,80.556,-801630.556,800.000,19.444,R
1026,-0.770,0.350,-0.970,163.889,88.889,372.222,822.222,22.222,R
1027,-0.740,0.260,-0.900,163.889,94.444,386.111,825.000,2.778,R
1028,-0.695,0.385,-0.865,197.222,88.889,369.444,825.000,0.000,R
1029,-0.670,0.330,-0.825,161.111,91.667,380.556,841.667,16.667,R
1030,-0.610,0.350,-0.800,161.111,91.667,375.000,811.111,30.556,R
1031,-0.585,0.395,-0.805,163.889,86.111,377.778,825.000,13.889,R
1032,-0.610,0.440,-0.690,166.667,83.333,155.556,827.778,2.778,R
1033,-0.600,0.290,-0.825,163.889,88.889,366.667,819.444,8.333,R
1034,-0.465,0.460,-0.805,197.222,80.556,383.333,827.778,8.333,R
1035,-0.685,0.275,-0.870,197.222,94.444,386.111,802.778,25.000,R
1036,-0.550,0.070,-0.795,186.111,63.889,380.556,788.889,13.889,R
1037,-0.745,0.510,-0.820,138.889,86.111,363.889,622.222,166.667,A
1038,-0.595,0.425,-0.780,194.444,91.667,352.778,825.000,202.778,R
1039,-0.540,0.240,-0.735,186.111,94.444,355.556,783.333,41.667,R
1040,-0.530,0.235,-0.740,158.333,94.444,358.333,758.333,25.000,R
1041,-0.515,0.435,-0.735,197.222,91.667,372.222,788.889,30.556,R
1042,-0.545,0.385,-0.805,163.889,80.556,375.000,763.889,25.000,R
1043,-0.590,0.225,-0.790,161.111,83.333,372.222,769.444,5.556,R
1044,-0.595,0.190,-0.755,169.444,94.444,383.333,797.222,27.778,R
1045,-0.565,0.250,-0.745,194.444,77.778,347.222,791.667,5.556,R
1046,-0.530,0.200,-0.730,166.667,88.889,383.333,783.333,8.333,R
1047,-0.535,0.370,-0.710,166.667,88.889,380.556,794.444,11.111,R
1048,-0.535,0.250,-0.725,163.889,80.556,358.333,819.444,25.000,R
1049,-0.515,0.365,-0.710,169.444,86.111,372.222,791.667,27.778,R
1050,-0.520,0.200,-0.730,191.667,72.222,352.778,808.333,16.667,R
1051,-0.540,0.290,-0.725,169.444,83.333,355.556,800.000,8.333,R
1052,-0.550,0.140,-0.735,197.222,83.333,361.111,794.444,5.556,R
1053,-0.530,0.350,-0.735,169.444,86.111,372.222,825.000,30.556,R
1054,-0.535,0.275,-0.760,197.222,86.111,369.444,800.000,25.000,R
1055,-0.560,0.145,-0.730,169.444,75.000,350.000,816.667,16.667,R
1056,-0.515,0.235,-0.690,169.444,86.111,377.778,813.889,2.778,R
1057,-0.500,0.280,-0.690,197.222,86.111,372.222,805.556,8.333,R
1058,-0.515,0.285,-0.735,172.222,83.333,366.667,838.889,33.333,R
1059,-0.570,0.230,-0.760,169.444,97.222,386.111,819.444,19.444,R
1060,-0.560,0.145,-0.755,194.444,75.000,352.778,813.889,5.556,R
1061,-0.550,0.300,-0.725,172.222,94.444,377.778,827.778,13.889,R
1062,-0.565,0.325,-0.760,172.222,83.333,386.111,819.444,8.333,R
1063,-0.560,0.185,-0.730,163.889,88.889,344.444,811.111,8.333,R
1064,-0.900,-0.840,-0.805,161.111,83.333,400.000,297.222,513.889,x
1065,-0.650,0.130,-0.820,177.778,97.222,377.778,1272.222,975.000,R
1066,-0.620,0.165,-0.785,191.667,91.667,380.556,897.222,375.000,R
1067,-0.580,0.280,-0.755,191.667,91.667,386.111,861.111,36.111,R
1068,-0.550,0.275,-0.700,163.889,77.778,355.556,863.889,2.778,R
1069,-0.475,0.390,-0.680,197.222,88.889,383.333,811.111,52.778,R
1070,-0.490,0.360,-0.755,194.444,86.111,388.889,797.222,13.889,R
1071,-0.610,0.350,-0.775,172.222,97.222,383.333,805.556,8.333,R
1072,-0.580,0.215,-0.740,172.222,88.889,388.889,788.889,16.667,R
1073,-0.560,0.275,-0.720,172.222,94.444,380.556,808.333,19.444,R
1074,-0.535,0.460,-0.660,177.778,91.667,380.556,805.556,2.778,R
1075,-0.525,0.385,-0.725,175.000,86.111,375.000,791.667,13.889,R
1076,-0.485,0.370,-0.700,166.667,88.889,383.333,797.222,5.556,R
1077,-0.505,0.345,-0.705,163.889,91.667,377.778,780.556,16.667,R
1078,-0.505,0.220,-0.740,169.444,88.889,383.333,788.889,8.333,R
1079,-0.540,0.220,-0.720,166.667,75.000,358.333,788.889,0.000,R
1080,-0.540,0.435,-0.685,166.667,86.111,386.111,777.778,11.111,R
1081,-0.505,0.280,-0.720,166.667,86.111,361.111,755.556,22.222,R
1082,-0.465,0.390,-0.695,163.889,94.444,383.333,780.556,25.000,R
1083,-0.530,0.520,-0.640,163.889,83.333,386.111,769.444,11.111,R
1084,-0.745,0.505,-0.745,72.222,83.333,363.889,616.667,152.778,A
1085,-0.515,0.275,-0.730,186.111,94.444,380.556,1222.222,605.556,R
1086,-0.525,0.450,-0.695,197.222,91.667,388.889,850.000,372.222,R
1087,-0.490,0.525,-0.680,172.222,83.333,386.111,772.222,77.778,R
1088,-0.455,0.360,-0.605,169.444,100.000,400.000,791.667,19.444,R
1089,-0.655,0.535,-0.605,69.444,97.222,383.333,597.222,194.444,A
1090,-0.380,0.395,-0.645,158.333,91.667,380.556,816.667,219.444,R
1091,-0.485,0.580,-0.730,169.444,91.667,380.556,780.556,36.111,R
1092,-0.570,0.285,-0.730,197.222,91.667,372.222,769.444,11.111,R
1093,-0.455,0.465,-0.710,197.222,91.667,377.778,758.333,11.111,R
1094,-0.505,0.490,-0.710,169.444,80.556,383.333,752.778,5.556,R
1095,-0.520,0.445,-0.670,177.778,91.667,380.556,775.000,22.222,R
1096,-0.450,0.615,-0.800,163.889,86.111,380.556,758.333,16.667,R
1097,-0.510,0.515,-0.770,169.444,100.000,341.667,750.000,8.333,R
1098,-0.755,0.750,-0.725,136.111,97.222,386.111,602.778,147.222,A
1099,-0.525,0.510,-0.750,169.444,94.444,383.333,791.667,188.889,R
1100,-0.520,0.470,-0.675,169.444,91.667,369.444,775.000,16.667,R
1101,-0.490,0.360,-0.725,175.000,94.444,380.556,786.111,11.111,R
1102,-0.495,0.605,-0.795,177.778,83.333,375.000,763.889,22.222,R
1103,-0.805,-1.030,-0.770,16.667,0.000,294.444,258.333,505.556,x
1104,-0.505,0.360,-0.820,188.889,97.222,386.111,1113.889,855.556,R
1105,-0.575,0.375,-0.740,197.222,88.889,375.000,844.444,269.444,R
1106,-0.530,0.395,-0.845,175.000,91.667,377.778,775.000,69.444,R
1107,-0.600,0.350,-0.770,163.889,94.444,383.333,783.333,8.333,R
1108,-0.590,0.505,-0.795,172.222,97.222,386.111,766.667,16.667,R
1109,-0.540,0.480,-0.760,197.222,91.667,380.556,741.667,25.000,R
1110,-0.550,0.440,-0.680,177.778,97.222,383.333,791.667,50.000,R
1111,-0.495,0.560,-0.750,169.444,80.556,363.889,758.333,33.333,R
1112,-0.515,0.325,-0.840,197.222,83.333,375.000,752.778,5.556,R
1113,-0.615,0.420,-0.915,177.778,94.444,380.556,772.222,19.444,R
1114,-0.685,0.325,-0.815,172.222,80.556,313.889,780.556,8.333,R
1115,-0.990,0.645,-0.895,72.222,91.667,375.000,591.667,188.889,A
1116,-0.655,0.395,-0.895,169.444,94.444,388.889,836.111,244.444,R
1117,-0.640,0.345,-0.840,177.778,88.889,369.444,836.111,0.000,R
1118,-0.580,0.270,-0.805,197.222,88.889,380.556,783.333,52.778,R
1119,-0.570,0.490,-0.780,172.222,97.222,375.000,802.778,19.444,R
1120,-0.555,0.370,-0.775,177.778,91.667,388.889,788.889,13.889,R
1121,-0.545,0.450,-0.725,197.222,83.333,361.111,791.667,2.778,R
1122,-0.530,0.390,-0.720,175.000,91.667,383.333,788.889,2.778,R
1123,-0.460,0.375,-0.665,194.444,86.111,383.333,788.889,0.000,R
1124,-0.450,0.540,-0.660,175.000,83.333,366.667,791.667,2.778,R
1125,-0.455,0.450,-0.655,172.222,80.556,386.111,772.222,19.444,R
1126,-0.450,0.330,-0.680,169.444,86.111,386.111,797.222,25.000,R
1127,-0.475,0.535,-0.675,172.222,97.222,377.778,786.111,11.111,R
1128,-0.505,0.530,-0.700,169.444,83.333,377.778,788.889,2.778,R
1129,-0.490,0.340,-0.755,172.222,86.111,386.111,797.222,8.333,R
1130,-0.560,0.420,-0.730,166.667,86.111,363.889,791.667,5.556,R
1131,-0.495,0.520,-0.695,180.556,86.111,386.111,813.889,22.222,R
1132,-0.525,0.460,-0.705,175.000,86.111,380.556,802.778,11.111,R
1133,-0.495,0.345,-0.655,169.444,80.556,377.778,811.111,8.333,R
1134,-0.755,0.645,-0.725,72.222,86.111,372.222,602.778,208.333,A
1135,-0.550,0.255,-0.735,194.444,91.667,377.778,1025.000,422.222,R
1136,-0.515,0.255,-0.645,188.889,94.444,386.111,894.444,130.556,R
1137,-0.490,0.360,-0.745,169.444,83.333,383.333,858.333,36.111,R
1138,-0.570,0.220,-0.710,158.333,77.778,358.333,869.444,11.111,R
1139,-0.505,0.300,-0.700,163.889,86.111,380.556,827.778,41.667,R
1140,-0.490,0.360,-0.675,166.667,91.667,380.556,813.889,13.889,R
1141,-0.635,0.350,-0.690,197.222,91.667,377.778,836.111,22.222,R
1142,-0.490,0.555,-0.665,180.556,86.111,380.556,800.000,36.111,R
1143,-0.460,0.345,-0.615,175.000,83.333,375.000,797.222,2.778,R
1144,-0.395,0.500,-0.625,177.778,94.444,377.778,811.111,13.889,R
1145,-0.445,0.480,-0.620,177.778,86.111,386.111,788.889,22.222,R
1146,-0.450,0.340,-0.620,175.000,86.111,386.111,805.556,16.667,R
1147,-0.410,0.480,-0.635,183.333,97.222,391.667,827.778,22.222,R
1148,-0.440,0.445,-0.655,180.556,88.889,377.778,811.111,16.667,R
1149,-0.465,0.425,-0.700,177.778,86.111,363.889,813.889,2.778,R
1150,-0.485,0.315,-0.645,175.000,69.444,383.333,808.333,5.556,R
1151,-0.425,0.375,-0.680,180.556,94.444,380.556,819.444,11.111,R
1152,-0.430,0.440,-0.660,180.556,80.556,386.111,811.111,8.333,R
1153,-0.450,0.400,-0.640,183.333,91.667,355.556,805.556,5.556,R
1154,-0.460,0.575,-0.660,177.778,91.667,377.778,780.556,25.000,R
1155,-0.470,0.450,-0.700,175.000,83.333,386.111,813.889,33.333,R
1156,-0.455,0.455,-0.670,177.778,83.333,361.111,802.778,11.111,R
1157,-0.495,0.470,-0.690,172.222,91.667,377.778,813.889,11.111,R
1158,-0.490,0.425,-0.720,183.333,83.333,388.889,822.222,8.333,R
1159,-0.505,0.415,-0.700,172.222,77.778,386.111,800.000,22.222,R
1160,-0.520,0.375,-0.715,169.444,91.667,383.333,805.556,5.556,R
1161,-0.455,0.340,-0.720,183.333,97.222,391.667,805.556,0.000,R
1162,-0.490,0.410,-0.685,175.000,80.556,358.333,825.000,19.444,R
1163,-0.500,0.530,-0.620,172.222,91.667,375.000,805.556,19.444,R
1164,-0.505,0.355,-0.785,169.444,100.000,388.889,794.444,11.111,R
1165,-0.660,0.375,-0.790,186.111,94.444,355.556,811.111,16.667,R
1166,-0.575,0.300,-0.825,180.556,102.778,388.889,775.000,36.111,R
1167,-0.565,0.245,-0.830,175.000,97.222,391.667,808.333,33.333,R
1168,-0.520,0.215,-0.750,175.000,102.778,388.889,802.778,5.556,R
1169,-0.530,0.340,-0.620,172.222,102.778,397.222,794.444,8.333,R
1170,-0.715,0.550,-0.685,105.556,91.667,400.000,633.333,161.111,A
1171,-0.520,0.450,-0.710,138.889,94.444,383.333,1219.444,586.111,R
1172,-0.530,0.375,-0.640,188.889,111.111,405.556,955.556,263.889,R
1173,-0.365,0.330,-0.630,172.222,108.333,386.111,852.778,102.778,R
1174,-0.430,0.270,-0.650,169.444,83.333,375.000,786.111,66.667,R
1175,-0.430,0.390,-0.615,197.222,105.556,380.556,813.889,27.778,R
1176,-0.400,0.445,-0.580,172.222,94.444,383.333,802.778,11.111,R
1177,-0.380,0.290,-0.615,175.000,91.667,377.778,780.556,22.222,R
1178,-0.390,0.345,-0.580,180.556,100.000,377.778,822.222,41.667,R
1179,-0.405,0.365,-0.665,175.000,72.222,383.333,786.111,36.111,R
1180,-0.470,0.270,-0.680,166.667,97.222,400.000,786.111,0.000,R
1181,-0.485,0.440,-0.635,175.000,100.000,388.889,800.000,13.889,R
1182,-0.485,0.290,-0.705,180.556,102.778,386.111,805.556,5.556,R
1183,-0.485,0.385,-0.680,177.778,113.889,375.000,800.000,5.556,R
1184,-0.415,0.335,-0.645,163.889,88.889,383.333,777.778,22.222,R
1185,-0.485,0.155,-0.715,172.222,100.000,400.000,808.333,30.556,R
1186,-0.545,0.255,-0.700,166.667,94.444,375.000,783.333,25.000,R
1187,-0.450,0.185,-0.695,175.000,100.000,400.000,791.667,8.333,R
1188,-0.505,0.100,-0.760,180.556,108.333,380.556,808.333,16.667,R
1189,-0.540,0.135,-0.730,169.444,91.667,388.889,794.444,13.889,R
1190,-0.560,0.370,-0.720,166.667,94.444,377.778,791.667,2.778,R
1191,-0.595,0.255,-0.745,197.222,88.889,400.000,791.667,0.000,R
1192,-0.505,0.175,-0.740,169.444,97.222,386.111,802.778,11.111,R
1193,-0.515,0.160,-0.760,172.222,94.444,369.444,791.667,11.111,R
1194,-0.580,0.210,-0.715,172.222,80.556,369.444,791.667,0.000,R
1195,-0.480,0.240,-0.695,172.222,77.778,352.778,775.000,16.667,R
1196,-0.545,0.160,-0.705,197.222,111.111,400.000,783.333,8.333,R
1197,-0.490,0.255,-0.730,166.667,111.111,388.889,800.000,16.667,R
1198,-0.530,0.265,-0.710,172.222,77.778,383.333,788.889,11.111,R
1199,-0.490,0.180,-0.720,175.000,108.333,400.000,794.444,5.556,R
1200,-0.565,0.270,-0.805,166.667,108.333,397.222,791.667,2.778,R
1201,-0.520,0.210,-0.830,197.222,100.000,391.667,761.111,30.556,R
1202,-0.760,0.680,-0.835,69.444,88.889,383.333,597.222,163.889,A
1203,-0.595,0.240,-0.790,163.889,113.889,402.778,833.333,236.111,R
1204,-0.535,0.290,-0.730,163.889,102.778,380.556,800.000,33.333,R
1205,-0.535,0.375,-0.720,194.444,83.333,380.556,747.222,52.778,R
1206,-0.460,0.140,-0.690,166.667,97.222,375.000,786.111,38.889,R
1207,-0.535,0.360,-0.755,163.889,86.111,377.778,763.889,22.222,R
1208,-0.560,0.415,-0.740,172.222,91.667,388.889,758.333,5.556,R
1209,-0.535,0.320,-0.715,172.222,91.667,375.000,786.111,27.778,R
1210,-0.540,0.280,-0.710,166.667,88.889,361.111,780.556,5.556,R
1211,-0.505,0.305,-0.785,169.444,94.444,372.222,755.556,25.000,R
1212,-0.625,0.180,-0.775,166.667,91.667,375.000,783.333,27.778,R
1213,-0.525,0.255,-0.665,172.222,111.111,388.889,791.667,8.333,R
1214,-0.720,0.555,-0.680,197.222,97.222,391.667,616.667,175.000,A
1215,-0.550,0.240,-0.725,141.667,94.444,377.778,1205.556,588.889,R
1216,-0.575,0.190,-0.765,197.222,105.556,394.444,838.889,366.667,R
1217,-0.635,0.135,-0.785,161.111,97.222,405.556,775.000,63.889,R
1218,-0.615,0.200,-0.775,191.667,111.111,388.889,777.778,2.778,R
1219,-0.635,0.220,-0.785,197.222,77.778,394.444,758.333,19.444,R
1220,-0.570,0.160,-0.725,191.667,91.667,386.111,772.222,13.889,R
1221,-0.535,0.275,-0.705,163.889,91.667,394.444,758.333,13.889,R
1222,-0.745,0.465,-0.755,83.333,94.444,388.889,638.889,119.444,A
1223,-0.555,0.185,-0.665,163.889,100.000,386.111,838.889,200.000,R
1224,-0.525,0.455,-0.650,166.667,105.556,397.222,794.444,44.444,R
1225,-0.340,0.905,-0.780,55.556,66.667,366.667,572.222,222.222,V
1226,-0.475,0.415,-0.725,197.222,94.444,394.444,944.444,372.222,R
1227,-0.550,0.430,-0.715,163.889,86.111,372.222,794.444,150.000,R
1228,-0.565,0.335,-0.735,175.000,86.111,372.222,772.222,22.222,R
1229,-0.580,0.450,-0.770,169.444,97.222,375.000,775.000,2.778,R
1230,-0.570,0.495,-0.760,177.778,102.778,383.333,775.000,0.000,R
1231,-0.565,0.385,-0.750,163.889,111.111,375.000,769.444,5.556,R
1232,-0.575,0.355,-0.685,169.444,97.222,383.333,775.000,5.556,R
1233,-0.540,0.465,-0.710,172.222,97.222,372.222,780.556,5.556,R
1234,-0.480,0.340,-0.735,177.778,102.778,347.222,813.889,33.333,R
1235,-0.575,0.500,-0.775,188.889,113.889,383.333,769.444,44.444,R
1236,-0.560,0.215,-0.820,197.222,88.889,369.444,769.444,0.000,R
1237,-0.590,0.345,-0.810,169.444,102.778,372.222,791.667,22.222,R
1238,-0.615,0.375,-0.830,169.444,83.333,377.778,775.000,16.667,R
1239,-0.565,0.265,-0.785,172.222,100.000,383.333,786.111,11.111,R
1240,-0.525,0.450,-0.730,172.222,94.444,386.111,808.333,22.222,R
1241,-0.525,0.440,-0.705,169.444,86.111,366.667,800.000,8.333,R
1242,-0.545,0.475,-0.730,180.556,83.333,386.111,758.333,41.667,R
1243,-0.825,0.320,-0.810,175.000,108.333,391.667,633.333,125.000,A
1244,-0.630,0.350,-0.870,197.222,102.778,391.667,852.778,219.444,R
1245,-0.590,0.455,-0.810,161.111,88.889,363.889,802.778,50.000,R
1246,-0.570,0.060,-0.815,158.333,75.000,363.889,797.222,5.556,R
1247,-0.550,0.335,-0.755,169.444,94.444,352.778,769.444,27.778,R
1248,-0.480,0.580,-0.765,166.667,86.111,391.667,775.000,5.556,R
1249,-0.565,0.320,-0.900,163.889,108.333,377.778,763.889,11.111,R
1250,-0.580,0.455,-0.785,194.444,91.667,377.778,772.222,8.333,R
1251,-0.525,0.550,-0.690,172.222,88.889,369.444,791.667,19.444,R
1252,-0.410,0.450,-0.575,166.667,80.556,383.333,786.111,5.556,R
1253,-0.435,0.655,-0.670,197.222,86.111,372.222,763.889,22.222,R
1254,-0.465,0.425,-0.710,169.444,100.000,402.778,763.889,0.000,R
1255,-0.755,0.630,-0.740,111.111,94.444,363.889,672.222,91.667,A
1256,-0.580,0.295,-0.815,161.111,108.333,394.444,877.778,205.556,R
1257,-0.540,0.355,-0.710,158.333,88.889,377.778,811.111,66.667,R
1258,-0.460,0.545,-0.575,175.000,88.889,388.889,800.000,11.111,R
1259,-0.445,0.550,-0.625,158.333,102.778,377.778,763.889,36.111,R
1260,-0.445,0.360,-0.530,194.444,86.111,361.111,783.333,19.444,R
1261,-0.300,0.490,-0.560,166.667,105.556,405.556,794.444,11.111,R
1262,-0.465,0.450,-0.730,158.333,100.000,383.333,772.222,22.222,R
1263,-0.575,0.220,-0.785,166.667,69.444,369.444,769.444,2.778,R
1264,-0.575,0.475,-0.730,163.889,97.222,377.778,780.556,11.111,R
1265,-0.520,0.620,-0.665,172.222,86.111,369.444,777.778,2.778,R
1266,-0.445,0.680,-0.605,197.222,86.111,380.556,769.444,8.333,R
1267,-0.395,0.635,-0.495,166.667,94.444,386.111,791.667,22.222,R
1268,-0.375,0.405,-0.575,197.222,97.222,383.333,761.111,30.556,R
1269,-0.430,0.420,-0.675,166.667,108.333,380.556,783.333,22.222,R
1270,-0.425,0.560,-0.620,177.778,97.222,388.889,777.778,5.556,R
1271,-0.480,0.545,-0.655,175.000,83.333,352.778,769.444,8.333,R
1272,-0.510,0.350,-0.755,166.667,94.444,355.556,777.778,8.333,R
1273,-0.470,0.885,-0.750,41.667,58.333,127.778,502.778,275.000,V
1274,-0.490,0.445,-0.730,186.111,111.111,386.111,1072.222,569.444,R
1275,-0.500,0.430,-0.710,166.667,91.667,375.000,791.667,280.556,R
1276,-0.510,0.350,-0.690,169.444,91.667,380.556,800.000,8.333,R
1277,-0.510,0.365,-0.705,172.222,97.222,380.556,780.556,19.444,R
1278,-0.510,0.230,-0.670,194.444,94.444,377.778,769.444,11.111,R
1279,-0.500,0.390,-0.665,161.111,97.222,391.667,783.333,13.889,R
1280,-0.455,0.265,-0.745,169.444,83.333,363.889,794.444,11.111,R
1281,-0.515,0.390,-0.675,166.667,108.333,375.000,788.889,5.556,R
1282,-0.665,0.690,-0.675,58.333,97.222,369.444,613.889,175.000,A
1283,-0.475,0.505,-0.685,197.222,94.444,383.333,875.000,261.111,R
1284,-0.505,0.485,-0.695,197.222,91.667,383.333,866.667,8.333,R
1285,-0.490,0.370,-0.700,172.222,97.222,391.667,836.111,30.556,R
1286,-0.470,0.420,-0.755,177.778,83.333,383.333,844.444,8.333,R
1287,-0.545,0.440,-0.710,175.000,88.889,377.778,822.222,22.222,R
1288,-0.485,0.435,-0.685,172.222,88.889,375.000,833.333,11.111,R
1289,-0.505,0.225,-0.745,175.000,83.333,383.333,819.444,13.889,R
1290,-0.580,0.365,-0.810,177.778,91.667,358.333,841.667,22.222,R
1291,-0.665,0.110,-0.910,197.222,86.111,375.000,819.444,22.222,R
1292,-0.660,0.185,-0.840,163.889,83.333,366.667,827.778,8.333,R
1293,-0.635,0.200,-0.780,175.000,105.556,386.111,836.111,8.333,R
1294,-0.575,0.280,-0.805,163.889,94.444,358.333,819.444,16.667,R
1295,-0.600,0.310,-0.805,197.222,102.778,383.333,813.889,5.556,R
1296,-0.660,0.350,-0.930,172.222,88.889,361.111,830.556,16.667,R
1297,-0.835,-1.125,-0.915,1017161.111,63.889,138.889,286.111,544.444,x
1298,-0.745,0.120,-0.895,141.667,97.222,386.111,1266.667,980.556,R
1299,-0.725,0.160,-0.900,197.222,94.444,383.333,833.333,433.333,R
1300,-0.705,0.330,-0.740,197.222,86.111,388.889,858.333,25.000,R
1301,-0.395,0.475,-0.660,155.556,100.000,386.111,811.111,47.222,R
1302,-0.480,0.545,-0.780,166.667,88.889,369.444,816.667,5.556,R
1303,-0.645,0.375,-0.945,197.222,100.000,363.889,827.778,11.111,R
1304,-0.750,0.045,-0.960,152.778,100.000,400.000,800.000,27.778,R
1305,-0.880,-0.010,-0.835,158.333,94.444,-1024130.556,797.222,2.778,R
1306,-0.770,0.230,-0.940,163.889,94.444,372.222,805.556,8.333,R
1307,-0.720,0.275,-0.840,188.889,86.111,369.444,808.333,2.778,R
1308,-0.630,0.295,-0.845,169.444,102.778,386.111,797.222,11.111,R
1309,-0.530,0.445,-0.705,166.667,83.333,366.667,802.778,5.556,R
1310,-0.490,0.505,-0.720,197.222,100.000,386.111,802.778,0.000,R
1311,-0.515,0.470,-0.735,172.222,100.000,386.111,802.778,0.000,R
1312,-0.515,0.540,-0.755,175.000,88.889,377.778,802.778,0.000,R
1313,-0.615,0.400,-0.780,169.444,94.444,386.111,805.556,2.778,R
1314,-0.485,0.520,-0.705,172.222,91.667,380.556,813.889,8.333,R
1315,-0.485,0.650,-0.615,188.889,94.444,375.000,797.222,16.667,R
1316,-0.470,0.355,-0.770,172.222,97.222,386.111,783.333,13.889,R
1317,-0.570,0.375,-0.715,197.222,69.444,388.889,805.556,22.222,R
1318,-0.585,0.340,-0.830,175.000,102.778,405.556,791.667,13.889,R
1319,-0.615,0.325,-0.805,152.778,83.333,375.000,763.889,27.778,R
1320,-0.565,0.435,-0.850,172.222,105.556,383.333,772.222,8.333,R
1321,-0.585,0.440,-0.790,166.667,97.222,377.778,788.889,16.667,R
1322,-0.585,0.400,-0.820,197.222,86.111,369.444,769.444,19.444,R
1323,-0.640,0.195,-0.825,197.222,94.444,380.556,788.889,19.444,R
1324,-0.560,0.420,-0.740,169.444,94.444,375.000,811.111,22.222,R
1325,-0.525,0.400,-0.745,169.444,94.444,383.333,783.333,27.778,R
1326,-0.500,0.450,-0.755,197.222,86.111,386.111,788.889,5.556,R
1327,-0.525,0.380,-0.775,177.778,105.556,388.889,813.889,25.000,R
1328,-0.520,0.300,-0.725,194.444,102.778,380.556,808.333,5.556,R
1329,-0.495,0.430,-0.670,166.667,91.667,380.556,808.333,0.000,R
1330,-0.465,0.435,-0.705,172.222,100.000,397.222,805.556,2.778,R
1331,-0.450,0.435,-0.660,163.889,88.889,366.667,802.778,2.778,R
1332,-0.455,0.405,-0.740,166.667,91.667,383.333,791.667,11.111,R
1333,-0.500,0.440,-0.640,172.222,86.111,363.889,816.667,25.000,R
1334,-0.695,0.830,-0.705,180.556,86.111,361.111,597.222,219.444,A
1335,-0.545,0.335,-0.745,158.333,94.444,375.000,891.667,294.444,R
1336,-0.550,0.350,-0.710,197.222,105.556,383.333,836.111,55.556,R
1337,-0.515,0.390,-0.715,197.222,100.000,386.111,813.889,22.222,R
1338,-0.585,0.220,-0.800,197.222,75.000,358.333,825.000,11.111,R
1339,-0.580,0.180,-0.770,166.667,91.667,380.556,819.444,5.556,R
1340,-0.595,0.200,-0.770,191.667,94.444,383.333,786.111,33.333,R
1341,-0.540,0.400,-0.770,169.444,100.000,386.111,825.000,38.889,R
1342,-0.865,-1.035,-0.710,133.333,63.889,391.667,261.111,563.889,x
1343,-0.535,0.345,-0.705,186.111,97.222,386.111,1216.667,955.556,R
1344,-0.545,0.455,-0.735,163.889,88.889,380.556,858.333,358.333,R
1345,-0.535,0.370,-0.740,158.333,102.778,386.111,841.667,16.667,R
1346,-0.520,0.345,-0.685,155.556,97.222,380.556,808.333,33.333,R
1347,-0.510,0.480,-0.700,166.667,97.222,388.889,813.889,5.556,R
1348,-0.450,0.470,-0.600,163.889,83.333,372.222,836.111,22.222,R
1349,-0.390,0.415,-0.670,197.222,83.333,380.556,791.667,44.444,R
1350,-0.495,0.190,-0.775,194.444,91.667,405.556,788.889,2.778,R
1351,-0.530,0.450,-0.740,163.889,102.778,386.111,808.333,19.444,R
1352,-0.550,0.365,-0.755,163.889,91.667,383.333,775.000,33.333,R
1353,-0.530,0.535,-0.735,169.444,97.222,391.667,794.444,19.444,R
1354,-0.490,0.505,-0.715,172.222,88.889,388.889,808.333,13.889,R
1355,-0.415,0.410,-0.635,169.444,83.333,363.889,805.556,2.778,R
1356,-0.420,0.345,-0.705,166.667,75.000,361.111,805.556,0.000,R
1357,-0.400,0.390,-0.635,172.222,105.556,394.444,825.000,19.444,R
1358,-0.390,0.525,-0.580,169.444,83.333,361.111,802.778,22.222,R
1359,-0.405,0.665,-0.685,172.222,88.889,380.556,847.222,44.444,R
1360,-0.425,0.490,-0.645,155.556,94.444,386.111,830.556,16.667,R
1361,-0.455,0.525,-0.705,163.889,88.889,366.667,825.000,5.556,R
1362,-0.460,0.410,-0.710,166.667,86.111,380.556,808.333,16.667,R
1363,-0.490,0.630,-0.685,169.444,91.667,388.889,825.000,16.667,R
1364,-0.470,0.425,-0.610,166.667,111.111,400.000,808.333,16.667,R
1365,-0.405,0.730,-0.620,169.444,97.222,397.222,822.222,13.889,R
1366,-0.405,0.530,-0.675,169.444,94.444,377.778,819.444,2.778,R
1367,-0.455,0.560,-0.730,169.444,97.222,386.111,797.222,22.222,R
1368,-0.490,0.540,-0.740,163.889,88.889,377.778,844.444,47.222,R
1369,-0.505,0.515,-0.735,172.222,86.111,388.889,816.667,27.778,R
1370,-0.530,0.440,-0.770,161.111,83.333,386.111,794.444,22.222,R
1371,-0.535,0.500,-0.790,172.222,91.667,383.333,833.333,38.889,R
1372,-0.530,0.590,-0.790,172.222,88.889,391.667,802.778,30.556,R
1373,-0.550,0.525,-0.825,175.000,88.889,394.444,802.778,0.000,R
1374,-0.625,0.335,-0.870,175.000,88.889,375.000,822.222,19.444,R
1375,-0.610,0.315,-0.545,191.667,100.000,394.444,816.667,5.556,R
1376,-0.190,0.580,-0.485,163.889,91.667,380.556,797.222,19.444,R
1377,-0.225,0.665,-0.515,172.222,97.222,372.222,786.111,11.111,R
1378,-0.385,0.770,-0.660,166.667,97.222,380.556,794.444,8.333,R
1379,-0.490,0.700,-0.765,172.222,91.667,383.333,791.667,2.778,R
1380,-0.600,0.180,-0.810,161.111,88.889,383.333,791.667,0.000,R
1381,-0.610,0.255,-0.775,166.667,97.222,388.889,805.556,13.889,R
1382,-0.620,0.265,-0.850,161.111,86.111,366.667,761.111,44.444,R
1383,-0.640,0.385,-0.860,197.222,91.667,383.333,783.333,22.222,R
1384,-0.670,0.250,-0.910,197.222,91.667,375.000,780.556,2.778,R
1385,-0.655,0.145,-0.890,166.667,91.667,377.778,794.444,13.889,R
1386,-0.680,0.300,-0.860,172.222,83.333,386.111,786.111,8.333,R
1387,-0.615,0.175,-0.860,169.444,105.556,377.778,791.667,5.556,R
1388,-0.600,0.280,-0.825,175.000,100.000,380.556,822.222,30.556,R
1389,-0.590,0.435,-0.815,175.000,86.111,369.444,805.556,16.667,R
1390,-0.615,0.350,-0.790,172.222,88.889,380.556,819.444,13.889,R
1391,-0.580,0.260,-0.820,175.000,91.667,386.111,800.000,19.444,R
1392,-0.590,0.185,-0.760,169.444,75.000,380.556,830.556,30.556,R
1393,-0.540,0.230,-0.720,166.667,86.111,366.667,819.444,11.111,R
1394,-0.495,0.385,-0.685,172.222,83.333,380.556,816.667,2.778,R
1395,-0.485,0.340,-0.740,172.222,100.000,400.000,852.778,36.111,R
1396,-0.545,0.420,-0.760,166.667,94.444,386.111,825.000,27.778,R
1397,-0.555,0.365,-0.765,169.444,102.778,383.333,811.111,13.889,R
1398,-0.550,0.320,-0.745,172.222,100.000,380.556,850.000,38.889,R
1399,-0.605,0.200,-0.870,191.667,100.000,183.333,833.333,16.667,R
1400,-0.640,0.200,-0.865,161.111,100.000,391.667,825.000,8.333,R
1401,-0.720,0.030,-0.835,177.778,100.000,-1101400.000,813.889,11.111,R
1402,-0.670,0.395,-0.920,161.111,83.333,355.556,786.111,27.778,R
1403,-0.740,0.360,-0.835,172.222,100.000,-1103000.000,811.111,25.000,R
1404,-0.755,0.055,-0.855,163.889,80.556,380.556,830.556,19.444,R
1405,-0.550,0.380,-0.805,163.889,100.000,394.444,822.222,8.333,R
1406,-0.840,0.145,-0.865,175.000,94.444,386.111,813.889,8.333,R
1407,-0.650,0.310,-0.705,197.222,91.667,377.778,800.000,13.889,R
1408,-0.485,0.345,-0.820,169.444,100.000,163.889,819.444,19.444,R
1409,-0.635,0.055,-0.805,197.222,97.222,355.556,813.889,5.556,R
1410,-0.580,0.350,-0.700,169.444,105.556,380.556,819.444,5.556,R
1411,-0.530,0.930,-0.570,52.778,91.667,383.333,583.333,236.111,A
1412,-0.340,0.425,-0.675,161.111,97.222,375.000,841.667,258.333,R
1413,-0.540,0.240,-0.810,197.222,100.000,388.889,855.556,13.889,R
1414,-0.655,0.340,-0.870,169.444,77.778,363.889,791.667,63.889,R
1415,-0.720,0.215,-0.920,197.222,100.000,383.333,844.444,52.778,R
1416,-0.720,0.190,-0.865,169.444,88.889,380.556,838.889,5.556,R
1417,-0.685,0.085,-0.840,197.222,97.222,380.556,816.667,22.222,R
1418,-0.665,0.065,-0.825,175.000,91.667,386.111,841.667,25.000,R
1419,-0.685,0.070,-0.855,197.222,108.333,397.222,863.889,22.222,R
1420,-0.640,0.155,-0.845,169.444,94.444,388.889,827.778,36.111,R
1421,-0.610,0.355,-0.795,166.667,94.444,380.556,819.444,8.333,R
1422,-0.580,0.405,-0.765,169.444,91.667,383.333,836.111,16.667,R
1423,-0.570,0.420,-0.770,175.000,86.111,380.556,813.889,22.222,R
1424,-0.620,0.295,-0.825,175.000,94.444,388.889,825.000,11.111,R
1425,-0.610,0.315,-0.810,175.000,88.889,366.667,838.889,13.889,R
1426,-0.545,0.545,-0.725,172.222,91.667,372.222,797.222,41.667,R
1427,-0.580,0.555,-0.835,172.222,100.000,363.889,802.778,5.556,R
1428,-0.675,0.230,-0.850,166.667,116.667,397.222,863.889,61.111,R
1429,-0.610,0.220,-0.755,197.222,83.333,375.000,838.889,25.000,R
1430,-0.595,0.460,-0.840,175.000,77.778,377.778,808.333,30.556,R
1431,-0.530,0.205,-0.800,158.333,94.444,394.444,836.111,27.778,R
1432,-0.565,0.415,-0.930,197.222,94.444,383.333,825.000,11.111,R
1433,-0.785,0.120,-0.835,163.889,102.778,-1127547.222,825.000,0.000,R
1434,-0.710,0.155,-0.835,161.111,88.889,-1128391.667,827.778,2.778,R
1435,-0.815,0.215,-0.835,172.222,105.556,-1129197.222,819.444,8.333,R
1436,-0.835,0.620,-0.940,1129861.111,94.444,369.444,613.889,205.556,A
1437,-0.620,0.315,-0.690,163.889,105.556,383.333,880.556,266.667,R
1438,-0.455,0.555,-0.545,163.889,88.889,372.222,833.333,47.222,R
1439,-0.265,0.695,-0.445,163.889,102.778,391.667,858.333,25.000,R
1440,-0.225,0.800,-0.425,197.222,94.444,383.333,833.333,25.000,R
1441,-0.210,0.825,-0.445,197.222,86.111,369.444,813.889,19.444,R
1442,-0.210,0.700,-0.410,197.222,94.444,383.333,850.000,36.111,R
1443,-0.245,0.725,-0.450,191.667,88.889,383.333,822.222,27.778,R
1444,-0.255,0.620,-0.525,169.444,88.889,383.333,836.111,13.889,R
1445,-0.275,0.585,-0.600,177.778,94.444,394.444,858.333,22.222,R
1446,-0.625,-0.685,-0.575,116.667,61.111,144.444,247.222,611.111,x
1447,-0.405,0.505,-0.710,177.778,83.333,380.556,1255.556,1008.333,R
1448,-0.530,0.450,-0.720,169.444,91.667,388.889,872.222,383.333,R
1449,-0.525,0.370,-0.735,158.333,97.222,394.444,858.333,13.889,R
1450,-0.505,0.420,-0.685,166.667,86.111,377.778,858.333,0.000,R
1451,-0.435,0.395,-0.655,155.556,91.667,386.111,825.000,33.333,R
1452,-0.455,0.485,-0.650,197.222,97.222,383.333,841.667,16.667,R
1453,-0.450,0.560,-0.620,166.667,94.444,394.444,852.778,11.111,R
1454,-0.415,0.585,-0.595,166.667,91.667,386.111,841.667,11.111,R
1455,-0.400,0.635,-0.615,175.000,88.889,377.778,838.889,2.778,R
1456,-0.315,0.595,-0.575,172.222,94.444,380.556,838.889,0.000,R
1457,-0.345,0.390,-0.575,197.222,86.111,380.556,833.333,5.556,R
1458,-0.310,0.500,-0.580,175.000,102.778,394.444,838.889,5.556,R
1459,-0.365,0.465,-0.610,197.222,88.889,380.556,855.556,16.667,R
1460,-0.365,0.425,-0.610,161.111,97.222,380.556,836.111,19.444,R
1461,-0.365,0.590,-0.570,169.444,94.444,383.333,833.333,2.778,R
1462,-0.345,0.510,-0.565,172.222,105.556,402.778,850.000,16.667,R
1463,-0.320,0.590,-0.520,166.667,91.667,383.333,850.000,0.000,R
1464,-0.325,0.570,-0.525,175.000,100.000,391.667,838.889,11.111,R
1465,-0.315,0.430,-0.565,169.444,94.444,388.889,861.111,22.222,R
1466,-0.350,0.700,-0.515,166.667,91.667,386.111,827.778,33.333,R
1467,-0.305,0.605,-0.520,166.667,83.333,383.333,827.778,0.000,R
1468,-0.285,0.590,-0.500,172.222,94.444,388.889,863.889,36.111,R
1469,-0.285,0.590,-0.530,166.667,86.111,366.667,830.556,33.333,R
1470,-0.300,0.610,-0.470,163.889,91.667,383.333,816.667,13.889,R
1471,-0.295,0.655,-0.525,169.444,94.444,386.111,833.333,16.667,R
1472,-0.330,0.665,-0.540,172.222,80.556,386.111,816.667,16.667,R
1473,-0.375,0.725,-0.290,169.444,94.444,383.333,819.444,2.778,R
1474,-0.195,0.550,-0.585,169.444,91.667,372.222,830.556,11.111,R
1475,-0.405,0.470,-0.675,175.000,94.444,383.333,844.444,13.889,R
1476,-0.480,0.420,-0.715,172.222,94.444,386.111,819.444,25.000,R
1477,-0.585,0.350,-0.795,169.444,94.444,383.333,808.333,11.111,R
1478,-0.665,0.105,-0.860,172.222,97.222,380.556,833.333,25.000,R
1479,-0.635,0.140,-0.840,172.222,80.556,377.778,819.444,13.889,R
1480,-0.585,0.150,-0.795,172.222,86.111,369.444,794.444,25.000,R
1481,-0.635,0.275,-0.860,169.444,100.000,388.889,788.889,5.556,R
1482,-0.670,0.135,-0.870,166.667,86.111,377.778,825.000,36.111,R
1483,-0.620,0.170,-0.800,158.333,94.444,386.111,805.556,19.444,R
1484,-0.625,0.375,-0.725,169.444,88.889,383.333,791.667,13.889,R
1485,-0.545,0.200,-0.895,161.111,94.444,361.111,811.111,19.444,R
1486,-0.510,0.435,-0.450,161.111,97.222,383.333,794.444,16.667,R
1487,-0.280,0.385,-0.540,197.222,97.222,388.889,783.333,11.111,R
1488,-0.235,0.640,-0.655,183.333,105.556,394.444,797.222,13.889,R
1489,-0.655,0.565,-0.695,177.778,100.000,380.556,669.444,127.778,A
1490,-0.545,0.220,-0.815,197.222,88.889,377.778,855.556,186.111,R
1491,-0.635,0.150,-0.750,197.222,102.778,394.444,788.889,66.667,R
1492,-0.545,0.065,-0.930,197.222,83.333,166.667,805.556,16.667,R
1493,-0.925,-0.135,-0.835,186.111,102.778,-1176791.667,772.222,33.333,R
1494,-0.775,0.245,-0.610,197.222,97.222,394.444,777.778,5.556,R
1495,-0.560,0.710,-0.625,152.778,94.444,386.111,652.778,125.000,A
1496,-0.345,0.645,-0.525,150.000,94.444,375.000,836.111,183.333,R
1497,-0.410,0.475,-0.510,197.222,88.889,377.778,786.111,50.000,R
1498,-0.350,0.595,-0.555,197.222,88.889,380.556,758.333,27.778,R
1499,-0.450,0.505,-0.620,155.556,83.333,355.556,769.444,11.111,R
1500,-0.470,0.535,-0.685,197.222,86.111,391.667,758.333,11.111,R
1501,-0.460,0.550,-0.675,152.778,91.667,372.222,763.889,5.556,R
1502,-0.535,0.560,-0.795,161.111,113.889,383.333,758.333,5.556,R
1503,-0.630,0.360,-0.800,166.667,91.667,380.556,772.222,13.889,R
1504,-0.610,0.465,-0.790,158.333,88.889,380.556,786.111,13.889,R
1505,-0.610,0.475,-0.825,166.667,83.333,388.889,783.333,2.778,R
1506,-0.625,0.365,-0.855,166.667,86.111,386.111,816.667,33.333,R
1507,-0.660,0.420,-0.860,169.444,102.778,400.000,791.667,25.000,R
1508,-0.610,0.400,-0.865,197.222,100.000,388.889,788.889,2.778,R
1509,-0.580,0.435,-0.840,172.222,94.444,388.889,816.667,27.778,R
1510,-0.605,0.405,-0.815,197.222,97.222,391.667,797.222,19.444,R
1511,-0.495,0.360,-0.780,163.889,97.222,383.333,802.778,5.556,R
1512,-0.495,0.610,-0.755,169.444,94.444,386.111,788.889,13.889,R
1513,-0.490,0.470,-0.725,163.889,86.111,383.333,800.000,11.111,R
1514,-0.415,0.435,-0.695,163.889,91.667,388.889,786.111,13.889,R
1515,-0.415,0.610,-0.690,163.889,91.667,386.111,802.778,16.667,R
1516,-0.465,0.465,-0.730,172.222,94.444,363.889,800.000,2.778,R
1517,-0.505,0.735,-0.715,163.889,83.333,369.444,772.222,27.778,R
1518,-0.740,0.705,-0.765,72.222,80.556,380.556,636.111,136.111,A
1519,-0.595,0.510,-0.890,197.222,94.444,377.778,925.000,288.889,R
1520,-0.680,0.290,-0.785,155.556,111.111,405.556,819.444,105.556,R
1521,-0.575,0.340,-0.755,161.111,88.889,372.222,805.556,13.889,R
1522,-0.585,0.370,-0.760,194.444,88.889,391.667,791.667,13.889,R
1523,-0.570,0.410,-0.790,197.222,91.667,375.000,813.889,22.222,R
1524,-0.620,0.275,-0.845,161.111,83.333,386.111,813.889,0.000,R
1525,-0.690,0.335,-0.885,166.667,94.444,391.667,819.444,5.556,R
1526,-0.635,0.410,-0.865,166.667,94.444,383.333,827.778,8.333,R
1527,-0.625,0.315,-0.860,172.222,88.889,391.667,825.000,2.778,R
1528,-0.625,0.135,-0.825,197.222,86.111,386.111,819.444,5.556,R
1529,-0.600,0.200,-0.760,161.111,108.333,405.556,808.333,11.111,R
1530,-0.520,0.265,-0.735,166.667,91.667,388.889,850.000,41.667,R
1531,-0.515,0.480,-0.715,172.222,77.778,386.111,830.556,19.444,R
1532,-0.500,0.340,-0.965,166.667,111.111,400.000,813.889,16.667,R
1533,-0.715,0.185,-0.930,166.667,88.889,372.222,833.333,19.444,R
1534,-0.680,0.395,-0.900,166.667,91.667,380.556,825.000,8.333,R
1535,-0.785,0.135,-0.965,166.667,116.667,405.556,822.222,2.778,R
1536,-0.670,0.370,-0.810,180.556,94.444,380.556,841.667,19.444,R
1537,-0.575,0.385,-0.785,172.222,83.333,366.667,819.444,22.222,R
1538,-0.615,0.300,-0.810,175.000,86.111,386.111,811.111,8.333,R
1539,-0.570,0.450,-0.675,175.000,88.889,388.889,836.111,25.000,R
1540,-0.405,0.510,-0.540,169.444,91.667,386.111,844.444,8.333,R
1541,-0.265,0.655,-0.480,169.444,97.222,391.667,836.111,8.333,R
1542,-0.230,0.630,-0.415,172.222,97.222,386.111,844.444,8.333,R
1543,-0.215,0.625,-0.415,163.889,77.778,361.111,833.333,11.111,R
1544,-0.195,0.685,-0.430,169.444,88.889,383.333,838.889,5.556,R
1545,-0.225,0.765,-0.475,169.444,91.667,375.000,855.556,16.667,R
1546,-0.200,0.710,-0.390,177.778,88.889,366.667,838.889,16.667,R
1547,-0.190,0.755,-0.400,169.444,94.444,386.111,844.444,5.556,R
1548,-0.270,0.510,-0.525,169.444,94.444,383.333,836.111,8.333,R
1549,-0.350,0.640,-0.585,175.000,88.889,386.111,830.556,5.556,R
1550,-0.370,0.485,-0.630,169.444,91.667,383.333,847.222,16.667,R
1551,-0.400,0.530,-0.615,172.222,83.333,383.333,850.000,2.778,R
1552,-0.425,0.535,-0.635,175.000,86.111,388.889,802.778,47.222,R
1553,-0.485,0.310,-0.675,163.889,94.444,380.556,841.667,38.889,R
1554,-0.495,0.380,-0.655,166.667,97.222,377.778,833.333,8.333,R
1555,-0.460,0.475,-0.675,169.444,88.889,377.778,808.333,25.000,R
1556,-0.460,0.330,-0.625,172.222,94.444,386.111,855.556,47.222,R
1557,-0.440,0.365,-0.640,172.222,88.889,380.556,827.778,27.778,R
1558,-0.455,0.560,-0.620,175.000,83.333,388.889,800.000,27.778,R
1559,-0.425,0.490,-0.665,175.000,91.667,372.222,825.000,25.000,R
1560,-0.420,0.450,-0.615,163.889,94.444,377.778,830.556,5.556,R
1561,-0.365,0.695,-0.560,172.222,86.111,386.111,811.111,19.444,R
1562,-0.320,0.765,-0.500,177.778,97.222,372.222,797.222,13.889,R
1563,-0.200,0.680,-0.450,194.444,88.889,375.000,811.111,13.889,R
1564,-0.275,0.650,-0.595,175.000,83.333,386.111,791.667,19.444,R
1565,-0.370,0.420,-0.600,166.667,91.667,380.556,811.111,19.444,R
1566,-0.410,0.485,-0.350,175.000,105.556,394.444,819.444,8.333,R
1567,0.055,0.825,-0.240,163.889,97.222,380.556,786.111,33.333,R
1568,-0.035,0.950,-0.275,169.444,97.222,377.778,800.000,13.889,R
1569,-0.075,1.050,-0.420,177.778,80.556,388.889,755.556,44.444,R
1570,-0.215,0.765,-0.470,166.667,86.111,372.222,819.444,63.889,R
1571,-0.345,0.380,-0.585,169.444,94.444,383.333,813.889,5.556,R
1572,-0.425,0.545,-0.665,194.444,88.889,366.667,788.889,25.000,R
1573,-0.475,0.620,-0.725,172.222,91.667,369.444,800.000,11.111,R
1574,-0.505,0.490,-0.730,161.111,94.444,377.778,788.889,11.111,R
1575,-0.545,0.545,-0.800,194.444,86.111,294.444,786.111,2.778,R
1576,-0.795,0.675,-0.730,58.333,83.333,361.111,572.222,213.889,A
1577,-0.550,0.240,-0.735,197.222,97.222,386.111,866.667,294.444,R
1578,-0.630,0.475,-0.835,166.667,86.111,363.889,800.000,66.667,R
1579,-0.660,0.345,-0.885,169.444,88.889,369.444,788.889,11.111,R
1580,-0.690,0.180,-0.905,172.222,102.778,372.222,836.111,47.222,R
1581,-0.770,0.210,-0.930,172.222,94.444,372.222,813.889,22.222,R
1582,-0.680,0.460,-0.790,161.111,86.111,377.778,805.556,8.333,R
1583,-0.610,0.495,-0.790,169.444,91.667,391.667,813.889,8.333,R
1584,-0.585,0.215,-0.835,197.222,91.667,-1250191.667,822.222,8.333,R
1585,-0.835,0.155,-0.835,1251036.111,94.444,-1250991.667,805.556,16.667,R
1586,-0.785,0.425,-0.900,172.222,97.222,380.556,833.333,27.778,R
1587,-0.555,0.510,-0.675,166.667,88.889,375.000,836.111,2.778,R
1588,-0.445,0.555,-0.575,169.444,91.667,386.111,822.222,13.889,R
1589,-0.390,0.415,-0.575,197.222,91.667,386.111,833.333,11.111,R
1590,-0.345,0.610,-0.605,172.222,94.444,377.778,847.222,13.889,R
1591,-0.380,0.435,-0.775,169.444,91.667,172.222,833.333,13.889,R
1592,-0.635,0.370,-0.760,169.444,97.222,380.556,858.333,25.000,R
1593,-0.510,0.415,-0.680,169.444,88.889,388.889,819.444,38.889,R
1594,-0.390,0.395,-0.565,166.667,91.667,383.333,850.000,30.556,R
1595,-0.340,0.595,-0.560,177.778,94.444,377.778,863.889,13.889,R
1596,-0.270,0.555,-0.505,169.444,91.667,372.222,847.222,16.667,R
1597,-0.275,0.670,-0.505,169.444,83.333,380.556,869.444,22.222,R
1598,-0.260,0.595,-0.485,169.444,91.667,380.556,858.333,11.111,R
1599,-0.295,0.540,-0.520,172.222,88.889,377.778,838.889,19.444,R
1600,-0.355,0.475,-0.575,177.778,86.111,386.111,877.778,38.889,R
1601,-0.385,0.370,-0.575,169.444,83.333,375.000,855.556,22.222,R
1602,-0.360,0.485,-0.535,169.444,88.889,383.333,852.778,2.778,R
1603,-0.370,0.320,-0.620,169.444,86.111,388.889,861.111,8.333,R
1604,-0.420,0.350,-0.665,169.444,97.222,377.778,861.111,0.000,R
1605,-0.475,0.330,-0.685,172.222,88.889,375.000,863.889,2.778,R
1606,-0.465,0.330,-0.680,177.778,88.889,386.111,880.556,16.667,R
1607,-0.485,0.350,-0.695,166.667,88.889,369.444,855.556,25.000,R
1608,-0.495,0.320,-0.640,177.778,91.667,383.333,863.889,8.333,R
1609,-0.380,0.340,-0.640,177.778,105.556,402.778,872.222,8.333,R
1610,-0.420,0.390,-0.650,166.667,102.778,391.667,869.444,2.778,R
1611,-0.430,0.445,-0.585,172.222,88.889,380.556,850.000,19.444,R
1612,-0.425,0.440,-0.570,175.000,91.667,380.556,833.333,16.667,R
1613,-0.415,0.310,-0.595,175.000,69.444,386.111,858.333,25.000,R
1614,-0.400,0.425,-0.540,169.444,86.111,377.778,844.444,13.889,R
1615,-0.310,0.545,-0.520,166.667,100.000,383.333,841.667,2.778,R
1616,-0.295,0.495,-0.480,169.444,100.000,380.556,861.111,19.444,R
1617,-0.290,0.595,-0.465,172.222,97.222,383.333,833.333,27.778,R
1618,-0.305,0.545,-0.490,166.667,80.556,386.111,819.444,13.889,R
1619,-0.295,0.405,-0.495,175.000,86.111,386.111,866.667,47.222,R
1620,-0.260,0.620,-0.430,175.000,86.111,386.111,833.333,33.333,R
1621,-0.210,0.470,-0.410,161.111,100.000,386.111,822.222,11.111,R
1622,-0.230,0.495,-0.515,180.556,91.667,383.333,850.000,27.778,R
1623,-0.320,0.625,-0.550,166.667,97.222,380.556,847.222,2.778,R
1624,-0.370,0.620,-0.620,166.667,94.444,388.889,833.333,13.889,R
1625,-0.415,0.555,-0.650,177.778,102.778,380.556,863.889,30.556,R
1626,-0.405,0.575,-0.510,169.444,86.111,377.778,850.000,13.889,R
1627,-0.395,0.700,-0.460,172.222,97.222,386.111,813.889,36.111,R
1628,-0.235,0.460,-0.460,172.222,100.000,383.333,836.111,22.222,R
1629,-0.190,0.600,-0.535,166.667,86.111,363.889,844.444,8.333,R
1630,-0.340,0.560,-0.615,177.778,83.333,363.889,802.778,41.667,R
1631,-0.340,0.510,-0.670,166.667,80.556,375.000,802.778,0.000,R
1632,-0.445,0.340,-0.720,175.000,94.444,363.889,836.111,33.333,R
1633,-0.510,0.485,-0.770,175.000,86.111,386.111,797.222,38.889,R
1634,-0.580,0.260,-0.885,166.667,91.667,383.333,816.667,19.444,R
1635,-0.650,0.280,-0.915,175.000,83.333,380.556,847.222,30.556,R
1636,-0.685,0.385,-0.890,197.222,80.556,383.333,808.333,38.889,R
1637,-0.655,0.240,-0.850,175.000,83.333,386.111,836.111,27.778,R
1638,-0.625,0.445,-0.820,175.000,94.444,386.111,844.444,8.333,R
1639,-0.570,0.595,-0.770,166.667,88.889,383.333,830.556,13.889,R
1640,-0.535,0.540,-0.730,169.444,91.667,380.556,830.556,0.000,R
1641,-0.450,0.410,-0.735,161.111,100.000,380.556,813.889,16.667,R
1642,-0.445,0.510,-0.675,166.667,97.222,372.222,838.889,25.000,R
1643,-0.450,0.720,-0.630,177.778,83.333,380.556,822.222,16.667,R
1644,-0.365,0.525,-0.670,197.222,88.889,377.778,805.556,16.667,R
1645,-0.460,0.535,-0.725,172.222,88.889,380.556,841.667,36.111,R
1646,-0.495,0.575,-0.705,197.222,94.444,380.556,813.889,27.778,R
1647,-0.470,0.505,-0.735,197.222,88.889,386.111,805.556,8.333,R
1648,-0.520,0.480,-0.745,180.556,94.444,386.111,830.556,25.000,R
1649,-0.495,0.390,-0.680,169.444,91.667,383.333,833.333,2.778,R
1650,-0.445,0.570,-0.690,172.222,83.333,375.000,819.444,13.889,R
1651,-0.490,0.485,-0.750,172.222,105.556,405.556,811.111,8.333,R
1652,-0.490,0.470,-0.765,163.889,111.111,405.556,852.778,41.667,R
1653,-0.540,0.450,-0.765,172.222,86.111,383.333,816.667,36.111,R
1654,-0.530,0.505,-0.810,175.000,88.889,386.111,833.333,16.667,R
1655,-0.585,0.415,-0.880,177.778,100.000,386.111,858.333,25.000,R
1656,-0.605,0.340,-0.900,175.000,97.222,375.000,830.556,27.778,R
1657,-0.665,0.465,-0.930,172.222,97.222,386.111,825.000,5.556,R
1658,-0.695,0.315,-0.925,177.778,88.889,386.111,852.778,27.778,R
1659,-0.665,0.145,-0.940,175.000,83.333,363.889,825.000,27.778,R
1660,-0.670,0.175,-0.920,166.667,83.333,380.556,838.889,13.889,R
1661,-0.715,0.355,-0.880,169.444,88.889,377.778,816.667,22.222,R
1662,-0.675,0.195,-0.900,163.889,80.556,380.556,825.000,8.333,R
1663,-0.665,0.215,-0.910,163.889,94.444,377.778,850.000,25.000,R
1664,-0.670,0.350,-0.890,169.444,86.111,366.667,838.889,11.111,R
1665,-0.660,0.300,-0.845,169.444,83.333,383.333,847.222,8.333,R
1666,-0.600,0.130,-0.860,166.667,86.111,383.333,852.778,5.556,R
1667,-0.610,0.325,-0.815,172.222,88.889,383.333,847.222,5.556,R
1668,-0.605,0.280,-0.760,175.000,88.889,386.111,866.667,19.444,R
1669,-0.540,0.340,-0.730,172.222,77.778,383.333,863.889,2.778,R
1670,-0.500,0.345,-0.705,163.889,100.000,391.667,852.778,11.111,R
1671,-0.500,0.385,-0.660,172.222,100.000,394.444,855.556,2.778,R
1672,-0.450,0.495,-0.630,175.000,88.889,383.333,866.667,11.111,R
1673,-0.415,0.335,-0.615,172.222,88.889,375.000,847.222,19.444,R
1674,-0.390,0.310,-0.685,177.778,105.556,405.556,875.000,27.778,R
1675,-0.470,0.295,-0.680,197.222,83.333,366.667,858.333,16.667,R
1676,-0.465,0.255,-0.690,177.778,80.556,383.333,847.222,11.111,R
1677,-0.480,0.250,-0.705,175.000,88.889,386.111,869.444,22.222,R
1678,-0.455,0.340,-0.700,161.111,88.889,380.556,877.778,8.333,R
1679,-0.540,0.215,-0.765,175.000,83.333,386.111,855.556,22.222,R
1680,-0.590,0.290,-0.860,175.000,88.889,388.889,858.333,2.778,R
1681,-0.630,0.090,-0.805,163.889,83.333,383.333,875.000,16.667,R
1682,-0.565,0.255,-0.760,172.222,80.556,383.333,858.333,16.667,R
1683,-0.810,-0.945,-0.705,100.000,66.667,350.000,219.444,638.889,x
1684,-0.560,0.390,-0.820,177.778,91.667,386.111,1341.667,1122.222,R
1685,-0.600,0.245,-0.875,158.333,86.111,377.778,883.333,458.333,R
1686,-0.700,0.230,-0.950,188.889,91.667,377.778,852.778,30.556,R
1687,-0.830,-0.080,-0.835,163.889,91.667,-1336869.444,830.556,22.222,R
1688,-0.770,0.085,-0.880,158.333,94.444,372.222,808.333,22.222,R
1689,-0.630,0.280,-0.840,161.111,80.556,388.889,813.889,5.556,R
1690,-0.815,0.140,-0.965,191.667,91.667,386.111,766.667,47.222,R
1691,-0.710,0.320,-0.835,191.667,94.444,380.556,802.778,36.111,R
1692,-0.785,0.580,-0.745,58.333,88.889,377.778,672.222,130.556,A
1693,-0.510,0.575,-0.720,161.111,97.222,388.889,869.444,197.222,R
1694,-0.490,0.405,-0.660,172.222,91.667,388.889,850.000,19.444,R
1695,-0.410,0.610,-0.530,166.667,91.667,388.889,833.333,16.667,R
1696,-0.295,0.710,-0.555,166.667,91.667,388.889,813.889,19.444,R
1697,-0.370,0.525,-0.615,177.778,97.222,380.556,844.444,30.556,R
1698,-0.355,0.655,-0.600,169.444,91.667,383.333,855.556,11.111,R
1699,-0.380,0.580,-0.620,175.000,83.333,386.111,819.444,36.111,R
1700,-0.405,0.515,-0.685,197.222,94.444,380.556,813.889,5.556,R
1701,-0.435,0.430,-0.695,161.111,83.333,361.111,850.000,36.111,R
1702,-0.455,0.495,-0.635,169.444,88.889,383.333,819.444,30.556,R
1703,-0.405,0.540,-0.505,166.667,105.556,405.556,819.444,0.000,R
1704,-0.315,0.570,-0.550,197.222,97.222,386.111,850.000,30.556,R
1705,-0.350,0.510,-0.635,169.444,100.000,388.889,822.222,27.778,R
1706,-0.400,0.655,-0.650,166.667,88.889,377.778,825.000,2.778,R
1707,-0.490,0.370,-0.800,166.667,91.667,386.111,822.222,2.778,R
1708,-0.535,0.505,-0.790,169.444,97.222,388.889,844.444,22.222,R
1709,-0.580,0.515,-0.805,175.000,86.111,388.889,836.111,8.333,R
1710,-0.585,0.310,-0.835,163.889,97.222,383.333,811.111,25.000,R
1711,-0.530,0.285,-0.590,166.667,102.778,394.444,850.000,38.889,R
1712,-0.805,0.635,-0.740,63.889,88.889,375.000,661.111,188.889,A
1713,-0.535,0.335,-0.500,191.667,94.444,386.111,994.444,333.333,R
1714,-0.925,-0.665,0.965,186.111,116.667,288.889,336.111,658.333,x
1715,-0.560,0.945,-0.855,38.889,61.111,363.889,233.333,102.778,V
1716,-0.535,0.460,-0.815,197.222,91.667,377.778,1072.222,838.889,R
1717,-0.605,0.625,-0.755,158.333,86.111,386.111,850.000,222.222,R
1718,-0.520,0.445,-0.725,197.222,91.667,388.889,872.222,22.222,R
1719,-0.485,0.405,-0.765,169.444,83.333,386.111,861.111,11.111,R
1720,-0.555,0.310,-0.800,197.222,91.667,380.556,847.222,13.889,R
1721,-0.640,0.395,-0.800,166.667,86.111,386.111,850.000,2.778,R
1722,-0.560,0.295,-0.495,163.889,86.111,375.000,863.889,13.889,R
1723,-0.865,0.615,-0.765,50.000,86.111,366.667,636.111,227.778,A
1724,-0.500,0.410,-0.690,158.333,94.444,383.333,1016.667,380.556,R
1725,-0.470,0.550,-0.705,163.889,88.889,380.556,933.333,83.333,R
1726,-0.535,0.430,-0.740,166.667,83.333,386.111,891.667,41.667,R
1727,-0.525,0.470,-0.765,166.667,100.000,388.889,888.889,2.778,R
1728,-0.530,0.325,-0.765,161.111,91.667,383.333,888.889,0.000,R
1729,-0.590,0.315,-0.850,175.000,88.889,388.889,891.667,2.778,R
1730,-0.610,0.190,-0.890,169.444,75.000,363.889,863.889,27.778,R
1731,-0.645,0.290,-0.890,177.778,83.333,375.000,861.111,2.778,R
1732,-0.650,0.315,-0.865,169.444,88.889,383.333,861.111,0.000,R
1733,-0.645,0.120,-0.905,166.667,91.667,372.222,872.222,11.111,R
1734,-0.650,0.230,-0.945,175.000,88.889,391.667,872.222,0.000,R
1735,-0.670,0.180,-0.890,169.444,86.111,386.111,869.444,2.778,R
1736,-0.615,0.290,-0.850,172.222,102.778,405.556,869.444,0.000,R
1737,-0.615,0.350,-0.810,183.333,94.444,391.667,880.556,11.111,R
1738,-0.610,0.210,-0.865,169.444,91.667,386.111,888.889,8.333,R
1739,-0.615,0.300,-0.715,177.778,88.889,344.444,877.778,11.111,R
1740,-0.885,0.460,-0.850,55.556,86.111,386.111,627.778,250.000,A
1741,-0.690,-0.015,-0.900,194.444,91.667,383.333,1030.556,402.778,R
1742,-0.690,0.090,-0.920,161.111,94.444,394.444,922.222,108.333,R
1743,-0.655,0.785,-0.975,44.444,61.111,358.333,527.778,394.444,V
1744,-0.605,0.135,-0.770,177.778,66.667,383.333,1252.778,725.000,R
1745,-0.585,0.135,-0.765,161.111,94.444,386.111,875.000,377.778,R
1746,-0.540,0.410,-0.525,169.444,94.444,391.667,872.222,2.778,R
1747,-0.805,0.375,-0.760,50.000,86.111,361.111,652.778,219.444,A
1748,-0.560,0.050,-0.840,155.556,97.222,383.333,1008.333,355.556,R
1749,-0.650,0.230,-0.805,158.333,100.000,386.111,916.667,91.667,R
1750,-0.560,0.170,-0.810,197.222,97.222,394.444,902.778,13.889,R
1751,-0.585,0.135,-0.825,166.667,94.444,380.556,894.444,8.333,R
1752,-0.585,0.185,-0.850,197.222,94.444,377.778,894.444,0.000,R
1753,-0.655,0.070,-0.900,166.667,69.444,372.222,913.889,19.444,R
1754,-0.650,0.040,-0.880,163.889,100.000,391.667,891.667,22.222,R
1755,-0.650,0.170,-0.870,194.444,86.111,383.333,880.556,11.111,R
1756,-0.620,0.195,-0.850,177.778,97.222,388.889,894.444,13.889,R
1757,-0.575,0.385,-0.845,177.778,91.667,394.444,866.667,27.778,R
1758,-0.570,0.180,-0.825,161.111,88.889,380.556,855.556,11.111,R
1759,-0.590,0.230,-0.620,177.778,75.000,361.111,891.667,36.111,R
1760,-0.905,0.500,-0.825,52.778,83.333,386.111,627.778,263.889,A
1761,-0.595,0.230,-0.805,197.222,102.778,394.444,1025.000,397.222,R
1762,-0.555,0.390,-0.755,175.000,97.222,388.889,944.444,80.556,R
1763,-0.510,0.240,-0.800,197.222,97.222,377.778,880.556,63.889,R
1764,-0.605,0.345,-0.805,197.222,88.889,388.889,888.889,8.333,R
1765,-0.565,0.390,-0.765,172.222,94.444,388.889,905.556,16.667,R
1766,-0.490,0.360,-0.725,161.111,94.444,386.111,869.444,36.111,R
1767,-0.435,0.535,-0.695,163.889,94.444,383.333,880.556,11.111,R
1768,-0.490,0.635,-0.745,175.000,91.667,377.778,869.444,11.111,R
1769,-0.485,0.385,-0.720,194.444,94.444,386.111,844.444,25.000,R
1770,-0.465,0.540,-0.720,166.667,100.000,386.111,875.000,30.556,R
1771,-0.455,0.555,-0.505,180.556,91.667,377.778,858.333,16.667,R
1772,-0.845,0.720,-0.770,77.778,83.333,369.444,627.778,230.556,A
1773,-0.510,0.460,-0.760,155.556,97.222,383.333,988.889,361.111,R
1774,-0.545,0.395,-0.785,166.667,94.444,386.111,850.000,138.889,R
1775,-0.600,0.515,-0.835,163.889,86.111,386.111,872.222,22.222,R
1776,-0.670,0.315,-0.670,169.444,83.333,355.556,861.111,11.111,R
1777,-0.925,0.365,-0.885,50.000,91.667,377.778,613.889,247.222,A
1778,-0.655,0.330,-0.960,194.444,100.000,394.444,950.000,336.111,R
1779,-0.710,0.575,-0.895,169.444,94.444,386.111,852.778,97.222,R
1780,-0.630,0.285,-0.865,158.333,88.889,372.222,841.667,11.111,R
1781,-0.585,0.495,-0.640,175.000,94.444,355.556,863.889,22.222,R
1782,-0.855,0.665,-0.785,50.000,83.333,386.111,619.444,244.444,A
1783,-0.545,0.320,-0.800,194.444,105.556,391.667,952.778,333.333,R
1784,-0.525,0.470,-0.725,175.000,97.222,388.889,850.000,102.778,R
1785,-0.505,0.550,-0.690,197.222,100.000,388.889,866.667,16.667,R
1786,-0.445,0.665,-0.640,197.222,88.889,372.222,850.000,16.667,R
1787,-0.390,0.580,-0.620,197.222,94.444,388.889,833.333,16.667,R
1788,-0.390,0.640,-0.580,191.667,91.667,383.333,847.222,13.889,R
1789,-0.355,0.635,-0.460,169.444,83.333,347.222,833.333,13.889,R
1790,-0.690,0.735,-0.605,61.111,91.667,383.333,616.667,216.667,A
1791,-0.420,0.540,-0.625,166.667,100.000,388.889,991.667,375.000,R
1792,-0.420,0.615,-0.635,169.444,83.333,369.444,852.778,138.889,R
1793,-0.405,0.480,-0.495,197.222,97.222,358.333,858.333,5.556,R
1794,-0.675,0.790,-0.625,61.111,91.667,383.333,633.333,225.000,A
1795,-0.425,0.615,-0.720,161.111,91.667,380.556,969.444,336.111,R
1796,-0.505,0.370,-0.735,197.222,100.000,380.556,875.000,94.444,R
1797,-0.515,0.275,-0.485,161.111,94.444,388.889,852.778,22.222,R
1798,-0.840,0.385,-0.765,52.778,91.667,386.111,638.889,213.889,A
1799,-0.555,0.305,-0.790,197.222,86.111,380.556,977.778,338.889,R
1800,-0.565,0.235,-0.765,188.889,91.667,383.333,880.556,97.222,R
1801,-0.550,0.460,-0.815,169.444,100.000,388.889,877.778,2.778,R
1802,-0.580,0.270,-0.785,194.444,86.111,383.333,858.333,19.444,R
1803,-0.575,0.240,-0.810,166.667,88.889,388.889,850.000,8.333,R
1804,-0.540,0.295,-0.750,177.778,94.444,388.889,877.778,27.778,R
1805,-0.540,0.320,-0.780,169.444,100.000,386.111,847.222,30.556,R
1806,-0.575,0.185,-0.815,163.889,94.444,377.778,833.333,13.889,R
1807,-0.570,0.400,-0.765,175.000,100.000,388.889,863.889,30.556,R
1808,-0.550,0.260,-0.790,175.000,97.222,388.889,850.000,13.889,R
1809,-0.550,0.295,-0.725,177.778,86.111,386.111,847.222,2.778,R
1810,-0.525,0.340,-0.745,177.778,94.444,372.222,883.333,36.111,R
1811,-0.495,0.240,-0.705,197.222,88.889,377.778,866.667,16.667,R
1812,-0.535,0.330,-0.740,169.444,94.444,380.556,855.556,11.111,R
1813,-0.510,0.325,-0.765,177.778,97.222,388.889,877.778,22.222,R
1814,-0.530,0.325,-0.735,166.667,102.778,388.889,872.222,5.556,R
1815,-0.490,0.375,-0.720,175.000,97.222,377.778,866.667,5.556,R
1816,-0.455,0.205,-0.705,166.667,91.667,375.000,861.111,5.556,R
1817,-0.475,0.320,-0.710,197.222,86.111,377.778,861.111,0.000,R
1818,-0.550,0.180,-0.775,172.222,91.667,383.333,863.889,2.778,R
1819,-0.600,0.190,-0.805,169.444,94.444,377.778,877.778,13.889,R
1820,-0.625,0.105,-0.855,169.444,94.444,377.778,888.889,11.111,R
1821,-0.670,0.110,-0.880,172.222,86.111,386.111,863.889,25.000,R
1822,-0.685,0.100,-0.855,161.111,88.889,388.889,869.444,5.556,R
1823,-0.635,0.105,-0.850,177.778,91.667,380.556,900.000,30.556,R
1824,-0.670,0.280,-0.910,169.444,86.111,380.556,872.222,27.778,R
1825,-0.700,0.190,-0.950,194.444,80.556,372.222,844.444,27.778,R
1826,-0.775,0.095,-0.975,177.778,91.667,380.556,863.889,19.444,R
1827,-0.690,0.085,-0.930,197.222,97.222,391.667,866.667,2.778,R
1828,-0.700,0.140,-0.915,194.444,94.444,386.111,855.556,11.111,R
1829,-0.675,0.200,-0.940,175.000,97.222,394.444,855.556,0.000,R
1830,-0.655,0.135,-0.810,161.111,100.000,386.111,855.556,0.000,R
1831,-0.565,0.245,-0.800,166.667,94.444,380.556,861.111,5.556,R
1832,-0.550,0.340,-0.820,175.000,86.111,386.111,855.556,5.556,R
1833,-0.565,0.240,-0.835,163.889,91.667,380.556,855.556,0.000,R
1834,-0.635,0.220,-0.820,166.667,105.556,405.556,844.444,11.111,R
1835,-0.590,0.240,-0.845,166.667,94.444,383.333,852.778,8.333,R
1836,-0.630,0.195,-0.860,158.333,91.667,380.556,861.111,8.333,R
1837,-0.640,0.340,-0.870,175.000,86.111,388.889,850.000,11.111,R
1838,-0.565,0.235,-0.790,172.222,97.222,386.111,872.222,22.222,R
1839,-0.545,0.410,-0.810,172.222,97.222,388.889,869.444,2.778,R
1840,-0.620,0.280,-0.875,169.444,94.444,386.111,838.889,30.556,R
1841,-0.620,0.305,-0.825,197.222,97.222,386.111,847.222,8.333,R
1842,-0.605,0.140,-0.860,172.222,94.444,383.333,858.333,11.111,R
1843,-0.590,0.285,-0.865,163.889,83.333,383.333,838.889,19.444,R
1844,-0.630,0.305,-0.855,169.444,88.889,375.000,838.889,0.000,R
1845,-0.655,0.175,-0.840,166.667,94.444,388.889,819.444,19.444,R
1846,-0.610,0.175,-0.885,172.222,91.667,383.333,852.778,33.333,R
1847,-0.660,0.335,-0.925,169.444,91.667,363.889,838.889,13.889,R
1848,-0.740,0.210,-0.835,172.222,88.889,-1473266.667,825.000,13.889,R
1849,-0.745,0.150,-0.965,172.222,88.889,375.000,861.111,36.111,R
1850,-0.730,0.210,-0.835,172.222,102.778,-1474963.889,847.222,13.889,R
1851,-0.780,0.235,-0.985,169.444,88.889,383.333,819.444,27.778,R
1852,-0.800,0.065,-0.835,172.222,97.222,-1476661.111,866.667,47.222,R
1853,-0.835,0.805,-0.835,50.000,61.111,-1477194.444,511.111,355.556,V
1854,-0.715,0.120,-0.835,191.667,102.778,-1478297.222,1133.333,622.222,R
1855,-0.765,0.110,-0.945,172.222,91.667,388.889,852.778,280.556,R
1856,-0.695,0.100,-0.910,197.222,94.444,380.556,833.333,19.444,R
1857,-0.675,0.230,-0.920,169.444,80.556,386.111,825.000,8.333,R
1858,-0.675,0.120,-0.945,172.222,86.111,366.667,827.778,2.778,R
