id,Pamp,Ramp,Tamp,PR,QRS,QT,RRI,dRRI,label
1,0.145,1.690,0.020,136.111,88.889,336.111,652.778,13.889,N
2,0.150,1.645,0.020,138.889,88.889,322.222,669.444,16.667,N
3,0.160,1.620,-0.020,127.778,55.556,305.556,680.556,11.111,N
4,0.115,1.525,-0.015,136.111,58.333,297.222,652.778,27.778,N
5,0.140,1.610,-0.040,122.222,63.889,313.889,644.444,8.333,N
6,0.060,1.550,-0.150,141.667,86.111,322.222,688.889,44.444,N
7,0.010,1.430,-0.135,133.333,91.667,311.111,686.111,2.778,N
8,0.000,1.450,-0.075,127.778,58.333,308.333,663.889,22.222,N
9,0.065,1.585,-0.160,125.000,100.000,313.889,641.667,22.222,N
10,-0.050,1.445,-0.245,138.889,91.667,316.667,652.778,11.111,N
11,-0.115,1.350,-0.250,130.556,86.111,336.111,647.222,5.556,N
12,-0.100,1.385,-0.170,125.000,61.111,313.889,655.556,8.333,N
13,-0.065,1.450,-0.285,116.667,86.111,308.333,669.444,13.889,N
14,-0.185,1.335,-0.390,133.333,86.111,330.556,650.000,19.444,N
15,-0.225,1.325,-0.325,127.778,86.111,333.333,633.333,16.667,N
16,-0.155,1.380,-0.250,116.667,91.667,341.667,650.000,16.667,N
17,-0.105,1.490,-0.295,138.889,88.889,305.556,683.333,33.333,N
18,-0.150,1.375,-0.295,136.111,91.667,322.222,650.000,33.333,N
19,-0.155,1.315,-0.255,122.222,88.889,319.444,633.333,16.667,N
20,-0.110,1.400,-0.250,125.000,91.667,308.333,641.667,8.333,N
21,-0.130,1.350,-0.245,108.333,83.333,319.444,647.222,5.556,N
22,-0.105,1.375,-0.125,130.556,58.333,377.778,647.222,0.000,N
23,0.065,1.590,-0.065,130.556,63.889,330.556,641.667,5.556,N
24,0.055,1.585,-0.150,116.667,91.667,316.667,652.778,11.111,N
25,-0.010,1.490,-0.220,133.333,100.000,319.444,652.778,0.000,N
26,-0.070,1.375,-0.265,133.333,83.333,316.667,638.889,13.889,N
27,-0.145,1.405,-0.235,136.111,100.000,344.444,661.111,22.222,N
28,-0.065,1.390,-0.120,122.222,61.111,327.778,655.556,5.556,N
29,0.055,1.630,-0.035,111.111,83.333,305.556,652.778,2.778,N
30,0.100,1.630,-0.075,133.333,91.667,322.222,641.667,11.111,N
31,0.095,1.650,-0.065,130.556,94.444,313.889,647.222,5.556,N
32,0.110,1.635,0.015,130.556,88.889,322.222,647.222,0.000,N
33,0.175,1.630,0.045,130.556,86.111,327.778,661.111,13.889,N
34,0.175,1.715,0.090,127.778,88.889,294.444,672.222,11.111,N
35,0.270,1.830,0.160,130.556,88.889,313.889,638.889,33.333,N
36,0.270,1.845,0.010,125.000,88.889,308.333,644.444,5.556,N
37,0.120,1.660,-0.075,116.667,91.667,338.889,661.111,16.667,N
38,0.075,1.535,-0.130,133.333,83.333,302.778,683.333,22.222,N
39,-0.010,1.465,-0.155,125.000,88.889,305.556,658.333,25.000,N
40,-0.030,1.425,-0.175,125.000,88.889,338.889,636.111,22.222,N
41,-0.030,1.450,-0.160,133.333,83.333,327.778,644.444,8.333,N
42,-0.015,1.465,-0.165,133.333,86.111,319.444,658.333,13.889,N
43,-0.005,1.380,-0.155,127.778,88.889,311.111,661.111,2.778,N
44,0.000,1.505,-0.080,130.556,88.889,313.889,669.444,8.333,N
45,0.080,1.615,-0.065,133.333,105.556,350.000,636.111,33.333,N
46,0.105,1.615,-0.095,125.000,86.111,308.333,638.889,2.778,N
47,0.030,1.535,-0.170,113.889,91.667,327.778,644.444,5.556,N
48,-0.015,1.475,-0.205,138.889,91.667,313.889,672.222,27.778,N
49,-0.055,1.385,-0.210,136.111,86.111,308.333,644.444,27.778,N
50,-0.075,1.420,-0.195,130.556,86.111,333.333,641.667,2.778,N
51,-0.075,1.385,-0.200,127.778,86.111,319.444,638.889,2.778,N
52,-0.045,1.465,-0.130,136.111,66.667,313.889,655.556,16.667,N
53,0.060,1.590,0.000,133.333,88.889,333.333,636.111,19.444,N
54,0.140,1.700,-0.050,127.778,94.444,344.444,658.333,22.222,N
55,0.080,1.630,-0.160,125.000,88.889,313.889,655.556,2.778,N
56,-0.045,1.525,-0.220,133.333,100.000,322.222,650.000,5.556,N
57,-0.070,1.470,-0.220,130.556,86.111,330.556,636.111,13.889,N
58,-0.065,1.490,-0.205,141.667,94.444,330.556,669.444,33.333,N
59,-0.045,1.550,-0.145,133.333,88.889,336.111,663.889,5.556,N
60,0.015,1.550,-0.035,136.111,58.333,316.667,650.000,13.889,N
61,0.090,1.705,0.010,119.444,58.333,311.111,636.111,13.889,N
62,0.190,1.760,0.025,130.556,88.889,333.333,647.222,11.111,N
63,0.160,1.770,-0.035,130.556,86.111,330.556,638.889,8.333,N
64,0.120,1.645,-0.105,130.556,88.889,313.889,655.556,16.667,N
65,0.010,1.595,-0.170,119.444,97.222,302.778,669.444,13.889,N
66,0.005,1.590,-0.125,127.778,58.333,311.111,633.333,36.111,N
67,0.060,1.625,-0.070,127.778,58.333,302.778,633.333,0.000,N
68,0.065,1.685,-0.165,138.889,91.667,330.556,647.222,13.889,N
69,-0.010,1.545,-0.240,141.667,88.889,316.667,683.333,36.111,N
70,-0.070,1.460,-0.290,138.889,83.333,333.333,647.222,36.111,N
71,-0.100,1.525,-0.160,125.000,75.000,327.778,633.333,13.889,N
72,0.010,1.660,-0.075,116.667,61.111,322.222,638.889,5.556,N
73,0.120,1.790,-0.035,122.222,83.333,305.556,658.333,19.444,N
74,0.095,1.805,-0.135,133.333,94.444,316.667,658.333,0.000,N
75,0.000,1.590,-0.210,144.444,91.667,313.889,661.111,2.778,N
76,-0.065,1.445,-0.320,127.778,86.111,327.778,647.222,13.889,N
77,-0.180,1.320,-0.315,125.000,55.556,313.889,650.000,2.778,N
78,-0.175,1.330,-0.315,125.000,91.667,344.444,638.889,11.111,N
79,-0.175,1.380,-0.310,141.667,94.444,336.111,677.778,38.889,N
80,-0.165,1.395,-0.270,130.556,88.889,322.222,647.222,30.556,N
81,-0.110,1.390,-0.275,119.444,86.111,308.333,647.222,0.000,N
82,-0.165,1.390,-0.280,122.222,86.111,313.889,627.778,19.444,N
83,-0.160,1.375,-0.300,133.333,88.889,308.333,641.667,13.889,N
84,-0.135,1.345,-0.225,122.222,88.889,308.333,627.778,13.889,N
85,-0.095,1.475,-0.230,136.111,86.111,325.000,647.222,19.444,N
86,-0.070,1.455,-0.195,130.556,83.333,291.667,644.444,2.778,N
87,-0.050,1.480,-0.175,141.667,91.667,316.667,636.111,8.333,N
88,-0.030,1.485,-0.155,127.778,83.333,325.000,622.222,13.889,N
89,-0.025,1.530,-0.095,141.667,61.111,325.000,644.444,22.222,N
90,0.120,1.750,0.045,130.556,75.000,319.444,652.778,8.333,N
91,0.180,1.715,-0.110,138.889,91.667,322.222,641.667,11.111,N
92,-0.020,1.510,-0.340,133.333,91.667,305.556,627.778,13.889,N
93,-0.170,1.375,-0.225,136.111,83.333,350.000,638.889,11.111,N
94,0.015,1.670,0.010,113.889,58.333,316.667,644.444,5.556,N
95,0.220,1.830,-0.010,133.333,80.556,322.222,652.778,8.333,N
96,0.090,1.585,-0.290,136.111,100.000,338.889,661.111,8.333,N
97,-0.180,1.290,-0.285,130.556,83.333,327.778,636.111,25.000,N
98,-0.020,1.490,0.025,136.111,52.778,319.444,641.667,5.556,N
99,0.220,1.615,-0.040,111.111,88.889,352.778,633.333,8.333,N
100,0.090,1.485,-0.270,138.889,88.889,319.444,669.444,36.111,N
101,-0.200,1.255,-0.360,108.333,83.333,322.222,636.111,33.333,N
102,-0.135,1.240,-0.175,122.222,55.556,308.333,638.889,2.778,N
103,0.045,1.485,-0.010,119.444,83.333,322.222,630.556,8.333,N
104,0.170,1.630,-0.005,125.000,58.333,311.111,638.889,8.333,N
105,0.110,1.580,-0.045,116.667,88.889,327.778,625.000,13.889,N
106,0.060,1.420,-0.125,136.111,86.111,333.333,655.556,30.556,N
107,0.030,1.340,-0.100,119.444,58.333,316.667,652.778,2.778,N
108,0.025,1.435,-0.120,127.778,55.556,305.556,636.111,16.667,N
109,-0.045,1.360,-0.270,125.000,52.778,313.889,619.444,16.667,N
110,-0.110,1.310,-0.335,138.889,88.889,325.000,663.889,44.444,N
111,-0.175,1.335,-0.335,127.778,80.556,319.444,663.889,0.000,N
112,-0.145,1.320,-0.220,133.333,63.889,319.444,652.778,11.111,N
113,-0.055,1.435,-0.190,136.111,91.667,316.667,625.000,27.778,N
114,-0.095,1.415,-0.200,125.000,86.111,322.222,641.667,16.667,N
115,0.000,1.495,-0.070,130.556,58.333,338.889,641.667,0.000,N
116,0.165,1.725,0.045,113.889,58.333,322.222,647.222,5.556,N
117,0.160,1.680,-0.065,136.111,91.667,313.889,669.444,22.222,N
118,0.060,1.645,-0.150,113.889,88.889,344.444,641.667,27.778,N
119,0.015,1.475,-0.155,119.444,61.111,322.222,633.333,8.333,N
120,-0.020,1.415,-0.165,130.556,91.667,333.333,641.667,8.333,N
121,-0.025,1.455,-0.160,133.333,83.333,330.556,672.222,30.556,N
122,-0.005,1.440,-0.095,138.889,83.333,327.778,644.444,27.778,N
123,0.025,1.505,-0.060,122.222,52.778,308.333,636.111,8.333,N
124,0.110,1.565,-0.015,122.222,58.333,338.889,638.889,2.778,N
125,0.135,1.580,-0.010,130.556,88.889,305.556,661.111,22.222,N
126,0.120,1.615,0.000,138.889,91.667,311.111,641.667,19.444,N
127,0.115,1.545,-0.030,133.333,83.333,325.000,652.778,11.111,N
128,0.105,1.565,-0.040,130.556,83.333,311.111,641.667,11.111,N
129,0.105,1.630,-0.020,130.556,83.333,327.778,647.222,5.556,N
130,0.095,1.565,-0.060,125.000,88.889,316.667,625.000,22.222,N
131,0.095,1.600,0.000,136.111,88.889,347.222,658.333,33.333,N
132,0.200,1.755,0.115,127.778,86.111,327.778,652.778,5.556,N
133,0.260,1.835,0.015,133.333,91.667,288.889,647.222,5.556,N
134,0.130,1.755,-0.135,133.333,83.333,311.111,622.222,25.000,N
135,-0.015,1.510,-0.195,136.111,88.889,327.778,638.889,16.667,N
136,-0.075,1.410,-0.230,127.778,80.556,330.556,633.333,5.556,N
137,-0.070,1.430,-0.175,130.556,88.889,333.333,652.778,19.444,N
138,-0.035,1.545,-0.115,127.778,61.111,327.778,652.778,0.000,N
139,0.040,1.630,-0.040,133.333,86.111,313.889,633.333,19.444,N
140,0.105,1.680,-0.120,130.556,80.556,300.000,625.000,8.333,N
141,-0.010,1.535,-0.310,133.333,86.111,327.778,636.111,11.111,N
142,-0.190,1.275,-0.310,138.889,86.111,333.333,658.333,22.222,N
143,-0.135,1.380,-0.160,138.889,86.111,336.111,644.444,13.889,N
144,0.065,1.685,0.025,105.556,58.333,325.000,633.333,11.111,N
145,0.155,1.655,-0.140,122.222,88.889,311.111,622.222,11.111,N
146,-0.050,1.510,-0.290,133.333,83.333,313.889,650.000,27.778,N
147,-0.150,1.330,-0.340,133.333,86.111,313.889,638.889,11.111,N
148,-0.145,1.405,-0.245,133.333,88.889,330.556,655.556,16.667,N
149,-0.025,1.600,-0.110,122.222,63.889,347.222,650.000,5.556,N
150,0.060,1.610,-0.165,122.222,88.889,308.333,638.889,11.111,N
151,-0.010,1.535,-0.215,125.000,88.889,338.889,633.333,5.556,N
152,-0.060,1.520,-0.155,122.222,91.667,344.444,661.111,27.778,N
153,0.065,1.615,-0.020,130.556,55.556,308.333,658.333,2.778,N
154,0.135,1.680,-0.110,133.333,91.667,305.556,652.778,5.556,N
155,0.015,1.520,-0.165,125.000,91.667,313.889,625.000,27.778,N
156,0.000,1.470,-0.125,133.333,91.667,336.111,638.889,13.889,N
157,0.075,1.585,-0.045,127.778,83.333,308.333,630.556,8.333,N
158,0.125,1.635,-0.035,111.111,83.333,319.444,652.778,22.222,N
159,0.110,1.690,-0.070,133.333,88.889,305.556,655.556,2.778,N
160,0.085,1.570,-0.070,130.556,88.889,333.333,633.333,22.222,N
161,0.100,1.640,-0.050,130.556,86.111,311.111,633.333,0.000,N
162,0.100,1.600,-0.085,122.222,58.333,325.000,650.000,16.667,N
163,0.045,1.585,-0.130,138.889,97.222,311.111,675.000,25.000,N
164,0.005,1.510,-0.145,136.111,83.333,330.556,644.444,30.556,N
165,-0.015,1.495,-0.135,119.444,83.333,319.444,638.889,5.556,N
166,-0.005,1.530,-0.160,125.000,86.111,313.889,647.222,8.333,N
167,-0.010,1.515,-0.155,133.333,80.556,297.222,650.000,2.778,N
168,0.005,1.505,-0.150,138.889,61.111,316.667,644.444,5.556,N
169,0.020,1.595,-0.060,136.111,88.889,352.778,655.556,11.111,N
170,0.150,1.735,-0.035,127.778,88.889,311.111,655.556,0.000,N
171,0.075,1.675,-0.155,133.333,86.111,319.444,647.222,8.333,N
172,0.000,1.615,-0.185,133.333,88.889,319.444,636.111,11.111,N
173,-0.025,1.495,-0.225,136.111,86.111,325.000,663.889,27.778,N
174,-0.090,1.390,-0.270,130.556,86.111,313.889,669.444,5.556,N
175,-0.140,1.380,-0.320,133.333,83.333,308.333,658.333,11.111,N
176,-0.170,1.390,-0.270,133.333,88.889,300.000,636.111,22.222,N
177,-0.055,1.570,-0.180,136.111,63.889,322.222,644.444,8.333,N
178,-0.040,1.560,-0.260,127.778,91.667,313.889,644.444,0.000,N
179,-0.140,1.385,-0.340,127.778,86.111,322.222,655.556,11.111,N
180,-0.190,1.330,-0.350,138.889,94.444,308.333,677.778,22.222,N
181,-0.170,1.325,-0.280,133.333,105.556,333.333,638.889,38.889,N
182,-0.065,1.570,-0.130,125.000,61.111,313.889,627.778,11.111,N
183,0.070,1.650,-0.175,133.333,86.111,322.222,647.222,19.444,N
184,-0.015,1.590,-0.255,141.667,91.667,319.444,677.778,30.556,N
185,-0.080,1.450,-0.255,133.333,94.444,311.111,650.000,27.778,N
186,-0.065,1.470,-0.165,127.778,55.556,330.556,630.556,19.444,N
187,0.035,1.670,0.005,127.778,63.889,336.111,633.333,2.778,N
188,0.205,1.850,0.050,127.778,88.889,319.444,650.000,16.667,N
189,0.215,1.800,-0.015,133.333,91.667,313.889,644.444,5.556,N
190,0.140,1.760,-0.160,130.556,86.111,313.889,641.667,2.778,N
191,-0.040,1.395,-0.250,136.111,83.333,311.111,641.667,0.000,N
192,-0.090,1.290,-0.175,133.333,83.333,297.222,633.333,8.333,N
193,0.045,1.605,0.050,116.667,55.556,313.889,611.111,22.222,N
194,0.265,1.765,0.120,125.000,61.111,319.444,636.111,25.000,N
195,0.210,1.640,-0.175,133.333,91.667,316.667,661.111,25.000,N
196,-0.050,1.490,-0.280,127.778,86.111,313.889,650.000,11.111,N
197,-0.100,1.355,-0.280,133.333,86.111,316.667,641.667,8.333,N
198,-0.120,1.290,-0.235,133.333,91.667,319.444,650.000,8.333,N
199,-0.085,1.325,-0.230,127.778,83.333,327.778,647.222,2.778,N
200,-0.105,1.300,-0.230,125.000,55.556,336.111,658.333,11.111,N
201,-0.085,1.295,-0.230,133.333,88.889,305.556,663.889,5.556,N
202,-0.080,1.310,-0.190,127.778,83.333,313.889,636.111,27.778,N
203,0.010,1.410,-0.125,130.556,86.111,333.333,638.889,2.778,N
204,0.060,1.565,-0.155,116.667,88.889,341.667,655.556,16.667,N
205,0.005,1.495,-0.230,136.111,88.889,316.667,677.778,22.222,N
206,-0.060,1.375,-0.275,119.444,88.889,311.111,655.556,22.222,N
207,-0.100,1.310,-0.270,130.556,83.333,308.333,644.444,11.111,N
208,-0.125,1.315,-0.255,136.111,86.111,325.000,647.222,2.778,N
209,-0.110,1.355,-0.260,127.778,86.111,333.333,658.333,11.111,N
210,-0.090,1.370,-0.235,136.111,80.556,325.000,672.222,13.889,N
211,-0.040,1.445,-0.185,138.889,88.889,322.222,672.222,0.000,N
212,-0.035,1.495,-0.205,130.556,88.889,311.111,644.444,27.778,N
213,-0.030,1.455,-0.200,130.556,80.556,322.222,644.444,0.000,N
214,0.000,1.485,-0.125,136.111,61.111,316.667,644.444,0.000,N
215,0.110,1.660,-0.005,125.000,86.111,327.778,677.778,33.333,N
216,0.135,1.645,-0.115,136.111,88.889,319.444,652.778,25.000,N
217,0.015,1.570,-0.225,130.556,80.556,330.556,655.556,2.778,N
218,-0.070,1.430,-0.255,127.778,80.556,319.444,638.889,16.667,N
219,-0.075,1.370,-0.185,127.778,83.333,308.333,658.333,19.444,N
220,0.010,1.440,-0.100,136.111,86.111,327.778,647.222,11.111,N
221,0.105,1.670,0.035,141.667,105.556,341.667,666.667,19.444,N
222,0.220,1.790,-0.020,125.000,55.556,311.111,650.000,16.667,N
223,0.110,1.675,-0.155,133.333,86.111,300.000,647.222,2.778,N
224,0.035,1.565,-0.205,133.333,88.889,322.222,638.889,8.333,N
225,-0.050,1.370,-0.260,141.667,94.444,319.444,677.778,38.889,N
226,-0.070,1.375,-0.185,113.889,77.778,316.667,655.556,22.222,N
227,0.015,1.535,-0.105,125.000,83.333,305.556,650.000,5.556,N
228,0.095,1.695,-0.075,133.333,83.333,305.556,636.111,13.889,N
229,0.090,1.660,-0.185,136.111,83.333,325.000,644.444,8.333,N
230,-0.020,1.525,-0.265,136.111,86.111,316.667,636.111,8.333,N
231,-0.065,1.440,-0.325,127.778,88.889,341.667,652.778,16.667,N
232,-0.130,1.340,-0.345,125.000,88.889,308.333,661.111,8.333,N
233,-0.180,1.255,-0.335,119.444,86.111,311.111,638.889,22.222,N
234,-0.160,1.300,-0.290,130.556,86.111,311.111,625.000,13.889,N
235,-0.040,1.420,-0.195,138.889,88.889,327.778,652.778,27.778,N
236,-0.015,1.590,-0.185,133.333,83.333,294.444,672.222,19.444,N
237,0.010,1.500,-0.215,141.667,91.667,313.889,638.889,33.333,N
238,-0.045,1.470,-0.225,130.556,86.111,325.000,627.778,11.111,N
239,-0.070,1.325,-0.260,122.222,91.667,325.000,638.889,11.111,N
240,-0.075,1.355,-0.245,127.778,52.778,330.556,650.000,11.111,N
241,-0.055,1.405,-0.175,127.778,58.333,316.667,655.556,5.556,N
242,0.035,1.585,-0.115,138.889,91.667,319.444,663.889,8.333,N
243,0.060,1.560,-0.125,133.333,94.444,341.667,644.444,19.444,N
244,0.020,1.550,-0.145,130.556,91.667,322.222,647.222,2.778,N
245,0.035,1.485,-0.095,138.889,77.778,325.000,636.111,11.111,N
246,0.065,1.585,-0.085,144.444,88.889,319.444,666.667,30.556,N
247,0.060,1.510,-0.120,127.778,91.667,313.889,647.222,19.444,N
248,0.065,1.535,-0.130,130.556,80.556,297.222,641.667,5.556,N
249,0.085,1.670,0.020,127.778,61.111,305.556,630.556,11.111,N
250,0.240,1.835,0.035,138.889,86.111,297.222,644.444,13.889,N
251,0.215,1.750,-0.010,136.111,86.111,330.556,630.556,13.889,N
252,0.155,1.715,-0.065,144.444,91.667,347.222,647.222,16.667,N
253,0.090,1.660,-0.135,125.000,80.556,325.000,650.000,2.778,N
254,0.015,1.500,-0.125,133.333,91.667,316.667,644.444,5.556,N
255,0.065,1.580,-0.070,130.556,83.333,322.222,627.778,16.667,N
256,0.125,1.620,-0.050,133.333,88.889,341.667,655.556,27.778,N
257,0.100,1.565,-0.160,130.556,83.333,308.333,666.667,11.111,N
258,-0.025,1.465,-0.240,136.111,83.333,305.556,655.556,11.111,N
259,-0.075,1.335,-0.200,130.556,88.889,311.111,633.333,22.222,N
260,-0.010,1.515,-0.065,125.000,88.889,344.444,647.222,13.889,N
261,0.030,1.465,-0.255,113.889,80.556,316.667,650.000,2.778,N
262,-0.120,1.310,-0.340,130.556,83.333,322.222,658.333,8.333,N
263,-0.175,1.220,-0.345,138.889,80.556,311.111,666.667,8.333,N
264,-0.155,1.315,-0.335,133.333,88.889,319.444,641.667,25.000,N
265,-0.155,1.250,-0.310,127.778,83.333,305.556,647.222,5.556,N
266,-0.220,1.110,-0.385,136.111,61.111,316.667,661.111,13.889,N
267,-0.245,1.150,-0.350,136.111,102.778,347.222,680.556,19.444,N
268,-0.165,1.325,-0.220,136.111,58.333,319.444,644.444,36.111,N
269,-0.040,1.495,-0.155,122.222,58.333,319.444,630.556,13.889,N
270,-0.015,1.485,-0.165,119.444,94.444,319.444,641.667,11.111,N
271,0.010,1.580,-0.165,125.000,100.000,316.667,647.222,5.556,N
272,0.020,1.520,-0.160,138.889,86.111,319.444,647.222,0.000,N
273,-0.015,1.445,-0.220,141.667,86.111,322.222,663.889,16.667,N
274,-0.080,1.260,-0.225,127.778,83.333,322.222,633.333,30.556,N
275,-0.095,1.370,-0.195,116.667,61.111,316.667,644.444,11.111,N
276,-0.010,1.435,-0.110,127.778,61.111,313.889,633.333,11.111,N
277,0.020,1.570,-0.120,119.444,91.667,316.667,675.000,41.667,N
278,0.025,1.480,-0.105,133.333,83.333,325.000,650.000,25.000,N
279,0.050,1.430,-0.125,127.778,83.333,305.556,652.778,2.778,N
280,0.030,1.450,-0.105,130.556,58.333,311.111,641.667,11.111,N
281,0.070,1.550,-0.050,133.333,61.111,308.333,652.778,11.111,N
282,0.050,1.555,-0.170,130.556,91.667,336.111,638.889,13.889,N
283,-0.060,1.405,-0.200,133.333,94.444,341.667,663.889,25.000,N
284,-0.070,1.365,-0.220,122.222,88.889,308.333,661.111,2.778,N
285,-0.055,1.370,-0.210,136.111,86.111,305.556,650.000,11.111,N
286,-0.050,1.380,-0.205,127.778,91.667,311.111,625.000,25.000,N
287,-0.070,1.440,-0.195,141.667,86.111,352.778,655.556,30.556,N
288,-0.030,1.515,-0.130,138.889,55.556,300.000,661.111,5.556,N
289,-0.015,1.485,-0.225,136.111,94.444,311.111,647.222,13.889,N
290,-0.125,1.360,-0.290,116.667,88.889,313.889,625.000,22.222,N
291,-0.170,1.340,-0.310,138.889,91.667,322.222,638.889,13.889,N
292,-0.140,1.365,-0.295,125.000,86.111,338.889,638.889,0.000,N
293,-0.140,1.315,-0.320,136.111,91.667,336.111,647.222,8.333,N
294,-0.170,1.320,-0.280,130.556,86.111,338.889,652.778,5.556,N
295,-0.110,1.405,-0.150,116.667,58.333,319.444,630.556,22.222,N
296,0.000,1.470,-0.205,122.222,61.111,313.889,630.556,0.000,N
297,-0.070,1.375,-0.340,125.000,91.667,341.667,638.889,8.333,N
298,-0.195,1.270,-0.375,138.889,88.889,333.333,675.000,36.111,N
299,-0.205,1.315,-0.320,130.556,80.556,319.444,644.444,30.556,N
300,-0.135,1.360,-0.195,119.444,55.556,313.889,638.889,5.556,N
301,0.005,1.550,-0.135,111.111,58.333,350.000,630.556,8.333,N
302,0.010,1.515,-0.275,138.889,102.778,344.444,658.333,27.778,N
303,-0.120,1.400,-0.270,133.333,86.111,327.778,633.333,25.000,N
304,-0.080,1.465,-0.135,136.111,86.111,330.556,655.556,22.222,N
305,0.075,1.635,-0.130,133.333,100.000,319.444,647.222,8.333,N
306,-0.015,1.280,-0.260,127.778,91.667,313.889,641.667,5.556,N
307,-0.130,0.780,-0.285,133.333,102.778,347.222,622.222,19.444,N
308,-0.120,0.540,-0.155,122.222,116.667,369.444,652.778,30.556,N
309,0.045,1.000,-0.035,116.667,116.667,341.667,661.111,8.333,N
310,0.110,1.045,-0.110,136.111,111.111,325.000,652.778,8.333,N
311,0.025,0.910,-0.160,122.222,102.778,350.000,625.000,27.778,N
312,-0.010,0.900,-0.125,133.333,108.333,344.444,644.444,19.444,N
313,0.080,1.095,0.035,116.667,113.889,372.222,647.222,2.778,N
314,0.190,0.965,0.025,113.889,116.667,350.000,661.111,13.889,N
315,0.110,0.735,-0.085,144.444,116.667,341.667,669.444,8.333,N
316,0.020,0.955,-0.190,133.333,105.556,344.444,652.778,16.667,N
317,-0.070,1.165,-0.250,127.778,88.889,319.444,655.556,2.778,N
318,-0.110,1.250,-0.280,136.111,83.333,322.222,652.778,2.778,N
319,-0.115,1.320,-0.180,141.667,61.111,313.889,672.222,19.444,N
320,-0.005,1.435,-0.235,136.111,91.667,338.889,650.000,22.222,N
321,-0.120,1.340,-0.360,122.222,80.556,325.000,644.444,5.556,N
322,-0.195,1.275,-0.385,111.111,88.889,316.667,641.667,2.778,N
323,-0.190,1.220,-0.335,127.778,88.889,300.000,647.222,5.556,N
324,-0.180,1.285,-0.345,141.667,91.667,336.111,644.444,2.778,N
325,-0.215,1.185,-0.330,119.444,91.667,347.222,647.222,2.778,N
326,-0.145,1.270,-0.285,125.000,52.778,322.222,647.222,0.000,N
327,-0.130,1.405,-0.200,133.333,58.333,300.000,641.667,5.556,N
328,-0.005,1.500,-0.150,127.778,86.111,330.556,625.000,16.667,N
329,-0.025,1.550,-0.260,133.333,94.444,372.222,661.111,36.111,N
330,-0.095,1.385,-0.305,127.778,91.667,319.444,655.556,5.556,N
331,-0.145,1.380,-0.305,133.333,83.333,297.222,652.778,2.778,N
332,-0.135,1.300,-0.270,136.111,83.333,325.000,627.778,25.000,N
333,-0.060,1.405,-0.150,136.111,61.111,325.000,647.222,19.444,N
334,0.000,1.575,-0.230,127.778,91.667,350.000,647.222,0.000,N
335,-0.100,1.400,-0.295,130.556,88.889,319.444,672.222,25.000,N
336,-0.145,1.365,-0.320,136.111,83.333,302.778,669.444,2.778,N
337,-0.155,1.280,-0.240,138.889,83.333,327.778,641.667,27.778,N
338,-0.055,1.445,-0.160,130.556,86.111,316.667,630.556,11.111,N
339,0.060,1.695,-0.010,130.556,88.889,325.000,663.889,33.333,N
340,0.170,1.655,-0.170,136.111,100.000,325.000,669.444,5.556,N
341,-0.025,1.540,-0.240,119.444,88.889,311.111,650.000,19.444,N
342,-0.115,1.390,-0.275,119.444,88.889,319.444,630.556,19.444,N
343,-0.115,1.335,-0.240,130.556,86.111,333.333,650.000,19.444,N
344,-0.040,1.435,-0.170,122.222,55.556,319.444,650.000,0.000,N
345,0.030,1.530,-0.145,133.333,91.667,311.111,650.000,0.000,N
346,0.025,1.615,-0.140,122.222,91.667,338.889,661.111,11.111,N
347,-0.005,1.460,-0.185,127.778,77.778,322.222,647.222,13.889,N
348,-0.035,1.435,-0.200,119.444,80.556,302.778,636.111,11.111,N
349,-0.010,1.500,-0.115,125.000,91.667,319.444,641.667,5.556,N
350,0.095,1.665,-0.070,136.111,88.889,333.333,661.111,19.444,N
351,0.055,1.630,-0.160,133.333,80.556,327.778,658.333,2.778,N
352,-0.005,1.530,-0.205,127.778,91.667,322.222,650.000,8.333,N
353,-0.035,1.390,-0.210,133.333,86.111,302.778,647.222,2.778,N
354,-0.060,1.425,-0.195,147.222,88.889,305.556,658.333,11.111,N
355,-0.045,1.405,-0.165,133.333,88.889,336.111,638.889,19.444,N
356,0.010,1.465,-0.135,119.444,91.667,377.778,658.333,19.444,N
357,0.035,1.590,-0.150,127.778,88.889,308.333,669.444,11.111,N
358,-0.030,1.515,-0.210,113.889,83.333,325.000,652.778,16.667,N
359,-0.040,1.375,-0.245,136.111,88.889,327.778,636.111,16.667,N
360,-0.120,1.220,-0.530,136.111,86.111,94.444,658.333,22.222,N
361,-0.715,0.635,-0.080,136.111,86.111,-235763.889,672.222,13.889,N
362,-0.850,0.635,-0.775,133.333,61.111,375.000,650.000,22.222,N
363,-0.470,1.065,-0.320,122.222,58.333,316.667,627.778,22.222,N
364,-0.045,1.545,0.045,133.333,86.111,313.889,644.444,16.667,N
365,0.265,1.775,0.240,136.111,58.333,330.556,641.667,2.778,N
366,0.410,1.975,0.185,127.778,100.000,338.889,661.111,19.444,N
367,0.315,1.920,0.150,138.889,86.111,302.778,672.222,11.111,N
368,0.355,1.925,0.240,133.333,88.889,319.444,641.667,30.556,N
369,0.460,1.990,0.355,130.556,88.889,336.111,647.222,5.556,N
370,0.530,2.015,0.450,136.111,97.222,347.222,663.889,16.667,N
371,0.625,2.120,0.500,141.667,86.111,325.000,688.889,25.000,N
372,0.640,2.155,0.385,141.667,91.667,330.556,666.667,22.222,N
373,0.480,2.045,0.195,130.556,97.222,316.667,647.222,19.444,N
374,0.300,1.750,0.075,130.556,91.667,316.667,655.556,8.333,N
375,0.155,1.530,0.010,122.222,77.778,319.444,663.889,8.333,N
376,0.155,1.625,0.040,130.556,88.889,316.667,677.778,13.889,N
377,0.190,1.745,0.035,130.556,105.556,322.222,677.778,0.000,N
378,0.145,1.620,-0.050,122.222,88.889,316.667,652.778,25.000,N
379,0.080,1.620,-0.130,127.778,83.333,327.778,652.778,0.000,N
380,0.040,1.520,-0.075,136.111,86.111,333.333,663.889,11.111,N
381,0.135,1.645,0.000,136.111,97.222,322.222,686.111,22.222,N
382,0.150,1.710,-0.025,136.111,88.889,316.667,658.333,27.778,N
383,0.105,1.615,-0.140,130.556,86.111,327.778,650.000,8.333,N
384,0.015,1.505,-0.230,116.667,91.667,341.667,661.111,11.111,N
385,-0.110,1.380,-0.270,133.333,91.667,338.889,666.667,5.556,N
386,-0.100,1.325,-0.230,133.333,88.889,305.556,675.000,8.333,N
387,-0.070,1.480,-0.170,144.444,86.111,344.444,680.556,5.556,N
388,0.020,1.600,-0.120,113.889,108.333,350.000,661.111,19.444,N
389,0.055,1.510,-0.175,133.333,83.333,325.000,666.667,5.556,N
390,-0.050,1.410,-0.265,130.556,88.889,330.556,663.889,2.778,N
391,-0.130,1.240,-0.265,133.333,94.444,341.667,697.222,33.333,N
392,-0.090,1.340,-0.175,130.556,88.889,336.111,661.111,36.111,N
393,-0.010,1.515,-0.165,116.667,86.111,316.667,655.556,5.556,N
394,-0.035,1.445,-0.245,130.556,83.333,313.889,661.111,5.556,N
395,-0.075,1.355,-0.240,113.889,80.556,322.222,666.667,5.556,N
396,-0.045,1.395,-0.130,138.889,102.778,341.667,663.889,2.778,N
397,0.045,1.565,-0.065,144.444,88.889,322.222,675.000,11.111,N
398,0.110,1.695,-0.090,111.111,108.333,352.778,652.778,22.222,N
399,0.040,1.495,-0.180,133.333,86.111,313.889,650.000,2.778,N
400,-0.030,1.445,-0.195,127.778,80.556,330.556,655.556,5.556,N
401,-0.055,1.425,-0.190,144.444,94.444,316.667,683.333,27.778,N
402,-0.020,1.500,-0.120,122.222,91.667,311.111,666.667,16.667,N
403,0.050,1.660,-0.080,125.000,80.556,311.111,650.000,16.667,N
404,0.120,1.760,0.025,116.667,61.111,311.111,650.000,0.000,N
405,0.100,1.710,-0.110,113.889,91.667,308.333,666.667,16.667,N
406,0.045,1.645,-0.120,141.667,86.111,311.111,661.111,5.556,N
407,0.075,1.575,-0.095,138.889,91.667,350.000,672.222,11.111,N
408,0.035,1.525,-0.095,136.111,88.889,311.111,666.667,5.556,N
409,0.010,1.510,-0.170,130.556,75.000,311.111,652.778,13.889,N
410,-0.040,1.440,-0.190,133.333,63.889,341.667,644.444,8.333,N
411,-0.090,1.410,-0.275,141.667,91.667,344.444,669.444,25.000,N
412,-0.135,1.310,-0.230,130.556,86.111,316.667,661.111,8.333,N
413,-0.050,1.465,-0.205,125.000,61.111,311.111,641.667,19.444,N
414,-0.135,1.345,-0.420,122.222,88.889,305.556,633.333,8.333,N
415,-0.315,1.195,-0.560,147.222,86.111,302.778,644.444,11.111,N
416,-0.435,1.145,-0.585,136.111,88.889,336.111,633.333,11.111,N
417,-0.430,1.065,-0.525,133.333,86.111,330.556,638.889,5.556,N
418,-0.350,1.120,-0.485,122.222,88.889,305.556,647.222,8.333,N
419,-0.290,1.250,-0.335,127.778,58.333,319.444,627.778,19.444,N
420,-0.165,1.400,-0.300,130.556,61.111,330.556,622.222,5.556,N
421,-0.125,1.470,-0.290,130.556,88.889,327.778,636.111,13.889,N
422,-0.115,1.520,-0.340,136.111,94.444,316.667,655.556,19.444,N
423,-0.160,1.410,-0.415,136.111,94.444,338.889,636.111,19.444,N
424,-0.260,1.270,-0.395,127.778,91.667,316.667,625.000,11.111,N
425,-0.240,1.280,-0.325,133.333,88.889,313.889,630.556,5.556,N
426,-0.120,1.460,-0.200,127.778,55.556,305.556,641.667,11.111,N
427,-0.015,1.575,-0.180,133.333,86.111,327.778,647.222,5.556,N
428,-0.045,1.465,-0.250,136.111,91.667,319.444,650.000,2.778,N
429,-0.070,1.390,-0.220,127.778,91.667,319.444,633.333,16.667,N
430,-0.060,1.410,-0.200,127.778,91.667,308.333,633.333,0.000,N
431,-0.040,1.430,-0.135,127.778,58.333,325.000,622.222,11.111,N
432,0.030,1.540,-0.070,136.111,91.667,341.667,650.000,27.778,N
433,0.080,1.595,-0.075,111.111,91.667,322.222,650.000,0.000,N
434,0.055,1.550,-0.125,130.556,91.667,316.667,644.444,5.556,N
435,0.030,1.490,-0.115,133.333,80.556,319.444,616.667,27.778,N
436,0.035,1.480,-0.075,133.333,88.889,333.333,627.778,11.111,N
437,0.075,1.550,-0.005,130.556,88.889,341.667,633.333,5.556,N
438,0.150,1.695,-0.040,119.444,91.667,352.778,655.556,22.222,N
439,0.085,1.605,-0.130,119.444,91.667,311.111,666.667,11.111,N
440,-0.015,1.495,-0.175,111.111,86.111,322.222,627.778,38.889,N
441,-0.050,1.455,-0.200,116.667,88.889,313.889,633.333,5.556,N
442,-0.090,1.420,-0.210,133.333,94.444,336.111,650.000,16.667,N
443,-0.060,1.445,-0.175,133.333,91.667,325.000,675.000,25.000,N
444,0.000,1.550,-0.210,133.333,94.444,330.556,638.889,36.111,N
445,-0.050,1.470,-0.235,119.444,83.333,316.667,638.889,0.000,N
446,-0.075,1.410,-0.245,125.000,83.333,327.778,633.333,5.556,N
447,-0.080,1.405,-0.215,127.778,83.333,308.333,647.222,13.889,N
448,-0.055,1.445,-0.170,136.111,91.667,336.111,636.111,11.111,N
449,-0.025,1.440,-0.205,138.889,91.667,347.222,652.778,16.667,N
450,-0.060,1.350,-0.265,125.000,91.667,316.667,636.111,16.667,N
451,-0.135,1.375,-0.255,127.778,88.889,377.778,638.889,2.778,N
452,-0.050,1.415,-0.120,133.333,88.889,316.667,619.444,19.444,N
453,0.095,1.620,0.040,133.333,94.444,341.667,652.778,33.333,N
454,0.210,1.750,0.055,125.000,77.778,319.444,644.444,8.333,N
455,0.130,1.650,-0.130,116.667,94.444,316.667,644.444,0.000,N
456,-0.005,1.470,-0.230,133.333,86.111,319.444,625.000,19.444,N
457,-0.090,1.325,-0.245,116.667,88.889,347.222,638.889,13.889,N
458,-0.105,1.330,-0.205,133.333,58.333,316.667,636.111,2.778,N
459,-0.060,1.415,-0.240,125.000,86.111,333.333,644.444,8.333,N
460,-0.110,1.350,-0.230,130.556,88.889,308.333,661.111,16.667,N
461,-0.085,1.420,-0.100,122.222,91.667,338.889,636.111,25.000,N
462,0.105,1.690,-0.005,127.778,61.111,327.778,641.667,5.556,N
463,0.145,1.670,-0.045,133.333,88.889,327.778,633.333,8.333,N
464,0.090,1.545,-0.120,141.667,86.111,319.444,677.778,44.444,N
465,0.015,1.445,-0.140,138.889,94.444,325.000,638.889,38.889,N
466,0.005,1.450,-0.090,122.222,91.667,316.667,636.111,2.778,N
467,0.090,1.515,-0.070,127.778,88.889,313.889,638.889,2.778,N
468,0.105,1.565,-0.095,136.111,83.333,322.222,652.778,13.889,N
469,0.055,1.485,-0.135,138.889,86.111,322.222,636.111,16.667,N
470,0.005,1.485,-0.135,138.889,83.333,330.556,658.333,22.222,N
471,0.005,1.440,-0.145,127.778,58.333,308.333,652.778,5.556,N
472,0.015,1.515,-0.150,133.333,83.333,297.222,647.222,5.556,N
473,0.025,1.485,-0.180,127.778,91.667,338.889,622.222,25.000,N
474,-0.030,1.415,-0.210,138.889,91.667,341.667,666.667,44.444,N
475,-0.065,1.330,-0.225,125.000,91.667,316.667,663.889,2.778,N
476,-0.075,1.290,-0.195,127.778,86.111,313.889,655.556,8.333,N
477,-0.025,1.255,-0.140,136.111,111.111,341.667,630.556,25.000,N
478,0.010,1.275,-0.170,127.778,97.222,341.667,650.000,19.444,N
479,-0.040,1.270,-0.205,136.111,88.889,319.444,652.778,2.778,N
480,-0.080,1.170,-0.255,138.889,116.667,347.222,666.667,13.889,N
481,-0.100,1.290,-0.175,116.667,86.111,313.889,669.444,2.778,N
482,0.030,1.405,-0.130,144.444,111.111,341.667,663.889,5.556,N
483,0.005,1.310,-0.230,125.000,91.667,319.444,641.667,22.222,N
484,-0.085,1.310,-0.275,122.222,94.444,380.556,669.444,27.778,N
485,-0.115,1.265,-0.240,127.778,86.111,336.111,675.000,5.556,N
486,-0.080,1.235,-0.155,122.222,94.444,319.444,658.333,16.667,N
487,0.020,1.400,-0.145,127.778,102.778,325.000,638.889,19.444,N
488,0.010,1.470,-0.225,141.667,91.667,319.444,655.556,16.667,N
489,-0.070,1.350,-0.235,125.000,105.556,347.222,655.556,0.000,N
490,-0.090,1.225,-0.245,133.333,88.889,316.667,669.444,13.889,N
491,-0.050,1.395,-0.130,138.889,83.333,316.667,663.889,5.556,N
492,0.060,1.610,-0.055,133.333,83.333,316.667,641.667,22.222,N
493,0.110,1.590,-0.105,127.778,94.444,308.333,647.222,5.556,N
494,0.060,1.520,-0.115,119.444,91.667,347.222,658.333,11.111,N
495,0.035,1.470,-0.110,127.778,88.889,305.556,677.778,19.444,N
496,0.060,1.485,-0.060,136.111,91.667,319.444,652.778,25.000,N
497,0.110,1.630,-0.065,119.444,91.667,341.667,647.222,5.556,N
498,0.070,1.500,-0.145,133.333,86.111,319.444,650.000,2.778,N
499,0.000,1.475,-0.225,130.556,108.333,350.000,663.889,13.889,N
500,-0.075,1.375,-0.220,138.889,86.111,325.000,666.667,2.778,N
501,-0.090,1.450,-0.180,141.667,88.889,319.444,675.000,8.333,N
502,-0.015,1.660,-0.160,108.333,105.556,352.778,658.333,16.667,N
503,0.030,1.590,-0.175,127.778,91.667,308.333,652.778,5.556,N
504,-0.040,1.510,-0.270,136.111,88.889,319.444,652.778,0.000,N
505,-0.095,1.385,-0.250,136.111,88.889,333.333,686.111,33.333,N
506,-0.105,1.330,-0.205,130.556,88.889,336.111,666.667,19.444,N
507,-0.030,1.450,-0.125,122.222,86.111,305.556,658.333,8.333,N
508,0.060,1.620,-0.070,130.556,91.667,313.889,641.667,16.667,N
509,0.035,1.535,-0.180,116.667,91.667,316.667,652.778,11.111,N
510,-0.085,1.365,-0.190,125.000,94.444,355.556,641.667,11.111,N
511,0.155,1.610,0.240,144.444,88.889,333.333,666.667,25.000,N
512,0.210,1.415,-0.300,127.778,105.556,105.556,652.778,13.889,N
513,-0.395,0.940,-0.720,125.000,83.333,300.000,652.778,0.000,N
514,-0.560,0.760,-0.625,130.556,58.333,325.000,647.222,5.556,N
515,-0.470,0.915,-0.455,136.111,61.111,333.333,691.667,44.444,N
516,-0.285,1.200,-0.285,133.333,83.333,350.000,672.222,19.444,N
517,-0.090,1.450,-0.135,125.000,72.222,344.444,663.889,8.333,N
518,0.055,1.590,-0.085,119.444,86.111,313.889,650.000,13.889,N
519,0.110,1.620,-0.065,133.333,91.667,316.667,669.444,19.444,N
520,0.115,1.615,-0.030,138.889,88.889,325.000,650.000,19.444,N
521,0.110,1.580,-0.005,122.222,86.111,327.778,663.889,13.889,N
522,0.125,1.615,0.010,108.333,88.889,336.111,669.444,5.556,N
523,0.150,1.630,0.005,130.556,88.889,308.333,658.333,11.111,N
524,0.175,1.595,0.040,130.556,97.222,338.889,636.111,22.222,N
525,0.165,1.550,0.055,136.111,94.444,336.111,669.444,33.333,N
526,0.195,1.610,0.075,130.556,83.333,325.000,669.444,0.000,N
527,0.230,1.580,-0.010,127.778,91.667,313.889,655.556,13.889,N
528,0.080,1.365,-0.125,136.111,100.000,319.444,636.111,19.444,N
529,-0.010,1.080,-0.165,122.222,97.222,352.778,658.333,22.222,N
530,-0.055,0.955,-0.175,138.889,113.889,372.222,661.111,2.778,N
531,-0.045,1.020,-0.165,122.222,91.667,338.889,672.222,11.111,N
532,-0.030,1.205,-0.130,130.556,97.222,319.444,677.778,5.556,N
533,0.025,1.525,-0.130,122.222,97.222,322.222,666.667,11.111,N
534,0.000,1.485,-0.140,125.000,86.111,350.000,650.000,16.667,N
535,0.010,1.415,-0.125,138.889,91.667,338.889,683.333,33.333,N
536,-0.015,1.480,-0.070,116.667,58.333,322.222,683.333,0.000,N
537,0.085,1.605,0.010,127.778,61.111,316.667,675.000,8.333,N
538,0.175,1.675,-0.025,133.333,77.778,325.000,650.000,25.000,N
539,0.095,1.520,-0.160,136.111,69.444,344.444,661.111,11.111,N
540,-0.055,1.360,-0.240,127.778,94.444,341.667,663.889,2.778,N
541,-0.125,1.245,-0.245,116.667,61.111,319.444,688.889,25.000,N
542,-0.125,1.195,-0.220,130.556,58.333,316.667,691.667,2.778,N
543,-0.100,1.215,-0.205,133.333,58.333,319.444,669.444,22.222,N
544,-0.075,1.290,-0.205,130.556,58.333,327.778,655.556,13.889,N
545,-0.070,1.270,-0.150,141.667,61.111,327.778,677.778,22.222,N
546,0.000,1.390,-0.075,127.778,66.667,322.222,680.556,2.778,N
547,0.065,1.505,-0.085,133.333,111.111,336.111,677.778,2.778,N
548,0.055,1.445,-0.040,122.222,91.667,313.889,650.000,27.778,N
549,0.095,1.460,0.005,136.111,88.889,316.667,661.111,11.111,N
550,0.145,1.530,0.035,136.111,86.111,330.556,658.333,2.778,N
551,0.170,1.575,0.100,127.778,58.333,322.222,680.556,22.222,N
552,0.225,1.585,-0.040,133.333,80.556,302.778,683.333,2.778,N
553,0.070,1.475,-0.050,136.111,55.556,297.222,666.667,16.667,N
554,0.095,1.545,-0.065,130.556,61.111,316.667,655.556,11.111,N
555,0.065,1.495,-0.075,141.667,58.333,316.667,691.667,36.111,N
556,0.045,1.460,-0.130,130.556,86.111,325.000,688.889,2.778,N
557,0.000,1.460,-0.100,136.111,83.333,316.667,677.778,11.111,N
558,0.055,1.505,0.015,138.889,80.556,319.444,663.889,13.889,N
559,0.140,1.610,0.045,138.889,94.444,322.222,675.000,11.111,N
560,0.190,1.630,0.050,138.889,88.889,336.111,666.667,8.333,N
561,0.175,1.710,0.060,136.111,88.889,325.000,691.667,25.000,N
562,0.200,1.805,-0.005,127.778,94.444,311.111,688.889,2.778,N
563,0.100,1.650,-0.150,133.333,86.111,297.222,666.667,22.222,N
564,-0.030,1.465,-0.200,127.778,91.667,338.889,658.333,8.333,N
565,-0.070,1.335,-0.240,136.111,83.333,322.222,686.111,27.778,N
566,-0.120,1.310,-0.255,125.000,61.111,313.889,683.333,2.778,N
567,-0.145,1.380,-0.290,130.556,63.889,311.111,675.000,8.333,N
568,-0.155,1.465,-0.305,136.111,94.444,316.667,652.778,22.222,N
569,-0.170,1.415,-0.300,138.889,88.889,325.000,663.889,11.111,N
570,-0.160,1.370,-0.290,133.333,86.111,327.778,655.556,8.333,N
571,-0.175,1.265,-0.300,119.444,91.667,341.667,677.778,22.222,N
572,-0.115,1.305,-0.170,133.333,86.111,322.222,688.889,11.111,N
573,0.015,1.410,-0.060,130.556,97.222,319.444,663.889,25.000,N
574,0.135,1.565,0.105,130.556,58.333,325.000,641.667,22.222,N
575,0.295,1.800,0.170,136.111,83.333,319.444,666.667,25.000,N
576,0.305,1.720,0.175,130.556,91.667,319.444,680.556,13.889,N
577,0.345,1.745,0.235,133.333,91.667,319.444,658.333,22.222,N
578,0.390,1.875,0.250,130.556,88.889,311.111,630.556,27.778,N
579,0.410,1.930,0.260,133.333,88.889,316.667,641.667,11.111,N
580,0.400,1.935,0.165,127.778,97.222,316.667,644.444,2.778,N
581,0.265,1.705,0.030,138.889,88.889,344.444,655.556,11.111,N
582,0.135,1.550,-0.050,136.111,86.111,327.778,658.333,2.778,N
583,0.060,1.485,-0.105,127.778,88.889,319.444,641.667,16.667,N
584,0.015,1.365,-0.085,125.000,94.444,319.444,633.333,8.333,N
585,0.050,1.460,-0.065,133.333,88.889,341.667,647.222,13.889,N
586,0.080,1.485,-0.020,138.889,88.889,336.111,672.222,25.000,N
587,0.110,1.525,-0.030,119.444,94.444,316.667,652.778,19.444,N
588,0.125,1.515,-0.045,125.000,80.556,325.000,644.444,8.333,N
589,0.065,1.500,-0.050,133.333,88.889,319.444,650.000,5.556,N
590,0.095,1.540,-0.050,133.333,86.111,322.222,663.889,13.889,N
591,0.070,1.515,-0.075,141.667,91.667,316.667,666.667,2.778,N
592,0.035,1.480,-0.115,138.889,86.111,352.778,663.889,2.778,N
593,0.015,1.440,-0.110,130.556,52.778,311.111,658.333,5.556,N
594,0.075,1.595,-0.080,127.778,58.333,316.667,650.000,8.333,N
595,0.065,1.645,-0.105,127.778,105.556,347.222,650.000,0.000,N
596,0.035,1.510,-0.220,138.889,88.889,333.333,675.000,25.000,N
597,-0.100,1.315,-0.280,133.333,83.333,319.444,666.667,8.333,N
598,-0.130,1.275,-0.255,130.556,52.778,291.667,661.111,5.556,N
599,-0.115,1.280,-0.215,133.333,58.333,319.444,641.667,19.444,N
600,-0.065,1.320,-0.190,125.000,91.667,311.111,644.444,2.778,N
601,-0.035,1.380,-0.110,133.333,105.556,352.778,644.444,0.000,N
602,0.070,1.600,-0.050,125.000,58.333,341.667,655.556,11.111,N
603,0.090,1.585,-0.085,125.000,86.111,311.111,666.667,11.111,N
604,0.055,1.495,-0.165,130.556,88.889,319.444,638.889,27.778,N
605,-0.010,1.410,-0.170,122.222,88.889,330.556,638.889,0.000,N
606,-0.040,1.370,-0.115,138.889,88.889,344.444,652.778,13.889,N
607,0.040,1.490,-0.025,127.778,58.333,316.667,672.222,19.444,N
608,0.160,1.680,0.010,130.556,88.889,322.222,652.778,19.444,N
609,0.160,1.710,0.000,125.000,86.111,319.444,644.444,8.333,N
610,0.200,1.745,0.035,133.333,83.333,330.556,650.000,5.556,N
611,0.150,1.645,-0.080,127.778,94.444,311.111,658.333,8.333,N
612,0.105,1.540,0.045,130.556,97.222,355.556,669.444,11.111,N
613,0.430,1.905,0.735,136.111,58.333,375.000,680.556,11.111,N
614,1.115,2.550,2.550,122.222,-401869.444,36.111,652.778,27.778,N
615,-0.080,2.860,2.860,402552.778,0.000,402552.778,647.222,5.556,N
616,-0.080,2.305,1.030,403208.333,403233.333,403247.222,655.556,8.333,N
617,0.645,1.740,0.235,138.889,58.333,72.222,683.333,27.778,N
618,0.090,1.325,-0.220,127.778,55.556,72.222,650.000,33.333,N
619,-0.240,1.050,-0.420,119.444,55.556,316.667,647.222,2.778,N
620,-0.390,0.840,-0.640,127.778,63.889,352.778,647.222,0.000,N
621,-0.610,0.720,-0.760,130.556,61.111,313.889,669.444,22.222,N
622,-0.670,0.625,-0.895,133.333,61.111,72.222,663.889,5.556,N
623,-0.080,0.100,-0.080,407844.444,88.889,-407811.111,675.000,11.111,N
624,-0.080,-0.285,-0.080,408508.333,77.778,-408455.556,663.889,11.111,N
625,-0.080,-0.090,-0.080,409172.222,58.333,-409141.667,663.889,0.000,N
626,-0.080,0.185,-0.080,409836.111,58.333,-409805.556,663.889,0.000,N
627,-0.865,0.530,-0.835,125.000,91.667,341.667,700.000,36.111,N
628,-0.660,0.765,-0.575,122.222,66.667,322.222,663.889,36.111,N
629,-0.415,1.005,-0.385,119.444,77.778,313.889,655.556,8.333,N
630,-0.225,1.160,-0.235,125.000,77.778,352.778,652.778,2.778,N
631,-0.060,1.370,-0.110,130.556,102.778,333.333,672.222,19.444,N
632,0.050,1.480,0.035,136.111,97.222,325.000,652.778,19.444,N
633,0.155,1.555,0.060,141.667,91.667,325.000,666.667,13.889,N
634,0.165,1.630,0.070,111.111,80.556,316.667,658.333,8.333,N
635,0.205,1.670,0.095,125.000,83.333,300.000,652.778,5.556,N
636,0.245,1.635,0.115,133.333,102.778,316.667,638.889,13.889,N
637,0.280,1.675,0.115,136.111,91.667,333.333,669.444,30.556,N
638,0.255,1.780,0.090,136.111,83.333,325.000,669.444,0.000,N
639,0.240,1.845,0.095,133.333,100.000,319.444,658.333,11.111,N
640,0.220,1.630,0.075,113.889,55.556,316.667,644.444,13.889,N
641,0.205,1.565,0.035,141.667,94.444,316.667,675.000,30.556,N
642,0.140,1.565,0.015,133.333,116.667,352.778,652.778,22.222,N
643,0.150,1.525,0.050,133.333,55.556,327.778,669.444,16.667,N
644,0.170,1.585,0.040,119.444,88.889,316.667,675.000,5.556,N
645,0.155,1.595,0.000,127.778,58.333,311.111,666.667,8.333,N
646,0.165,1.565,-0.030,130.556,83.333,330.556,650.000,16.667,N
647,0.090,1.460,-0.120,138.889,88.889,330.556,677.778,27.778,N
648,-0.025,1.390,-0.180,122.222,94.444,313.889,680.556,2.778,N
649,-0.025,1.400,-0.120,125.000,58.333,311.111,666.667,13.889,N
650,0.025,1.450,-0.070,130.556,72.222,325.000,638.889,27.778,N
651,0.015,1.440,-0.175,136.111,61.111,325.000,658.333,19.444,N
652,-0.065,1.375,0.170,127.778,83.333,372.222,658.333,0.000,N
653,0.290,1.480,-0.130,133.333,80.556,325.000,666.667,8.333,N
654,-0.080,1.350,-0.265,125.000,91.667,313.889,683.333,16.667,N
655,-0.175,1.295,-0.270,133.333,88.889,316.667,663.889,19.444,N
656,-0.175,1.200,-0.215,122.222,61.111,316.667,661.111,2.778,N
657,-0.030,1.265,-0.245,138.889,61.111,327.778,694.444,33.333,N
658,-0.135,1.190,-0.390,130.556,83.333,325.000,694.444,0.000,N
659,-0.355,1.000,-0.585,119.444,91.667,308.333,686.111,8.333,N
660,-0.570,0.705,-0.760,130.556,91.667,313.889,663.889,22.222,N
661,-0.640,0.735,-0.695,136.111,88.889,311.111,677.778,13.889,N
662,-0.490,0.860,-0.455,136.111,94.444,347.222,666.667,11.111,N
663,-0.290,1.005,-0.220,119.444,58.333,350.000,686.111,19.444,N
664,-0.010,1.410,-0.115,130.556,111.111,358.333,680.556,5.556,N
665,0.065,1.410,-0.090,130.556,88.889,369.444,666.667,13.889,N
666,0.070,1.465,0.010,136.111,86.111,316.667,658.333,8.333,N
667,0.175,1.555,0.075,141.667,86.111,325.000,683.333,25.000,N
668,0.225,1.645,0.255,127.778,86.111,319.444,672.222,11.111,N
669,0.465,1.920,0.470,113.889,58.333,311.111,669.444,2.778,N
670,0.635,2.120,0.485,136.111,88.889,302.778,650.000,19.444,N
671,0.605,2.050,0.460,136.111,91.667,316.667,658.333,8.333,N
672,0.630,2.040,0.375,136.111,91.667,330.556,647.222,11.111,N
673,0.500,1.895,0.290,133.333,91.667,336.111,663.889,16.667,N
674,0.360,1.795,0.185,133.333,55.556,330.556,672.222,8.333,N
675,0.305,1.880,0.110,133.333,88.889,311.111,655.556,16.667,N
676,0.275,1.785,0.015,127.778,91.667,341.667,636.111,19.444,N
677,0.150,1.600,-0.080,136.111,88.889,341.667,672.222,36.111,N
678,0.040,1.460,-0.140,130.556,80.556,319.444,675.000,2.778,N
679,0.015,1.365,-0.230,136.111,83.333,294.444,658.333,16.667,N
680,-0.090,1.330,-0.270,138.889,88.889,319.444,644.444,13.889,N
681,-0.120,1.255,-0.285,133.333,94.444,341.667,655.556,11.111,N
682,-0.160,1.205,-0.305,130.556,91.667,322.222,650.000,5.556,N
683,-0.180,1.250,-0.365,116.667,88.889,347.222,666.667,16.667,N
684,-0.195,1.265,-0.380,127.778,88.889,311.111,677.778,11.111,N
685,-0.220,1.255,-0.380,133.333,88.889,316.667,652.778,25.000,N
686,-0.190,1.220,-0.365,125.000,88.889,313.889,641.667,11.111,N
687,-0.215,1.215,-0.340,119.444,86.111,330.556,663.889,22.222,N
688,-0.170,1.305,-0.310,136.111,88.889,330.556,683.333,19.444,N
689,-0.140,1.320,-0.295,125.000,88.889,311.111,652.778,30.556,N
690,-0.125,1.330,-0.265,127.778,58.333,311.111,636.111,16.667,N
691,-0.095,1.480,-0.250,133.333,94.444,336.111,641.667,5.556,N
692,-0.095,1.415,-0.250,122.222,86.111,319.444,655.556,13.889,N
693,-0.090,1.395,-0.225,130.556,86.111,316.667,666.667,11.111,N
694,-0.080,1.290,-0.250,136.111,88.889,311.111,669.444,2.778,N
695,-0.080,1.410,-0.220,133.333,102.778,347.222,644.444,25.000,N
696,-0.045,1.480,-0.225,122.222,86.111,288.889,644.444,0.000,N
697,-0.045,1.450,-0.245,133.333,88.889,336.111,652.778,8.333,N
698,-0.120,1.280,-0.265,141.667,88.889,316.667,686.111,33.333,N
699,-0.100,1.375,-0.205,133.333,91.667,338.889,655.556,30.556,N
700,-0.020,1.455,-0.160,122.222,55.556,341.667,644.444,11.111,N
701,0.020,1.445,-0.155,130.556,83.333,333.333,650.000,5.556,N
702,0.000,1.345,-0.145,127.778,97.222,313.889,663.889,13.889,N
703,0.000,1.420,-0.165,138.889,91.667,319.444,658.333,5.556,N
704,0.010,1.440,-0.145,138.889,91.667,316.667,663.889,5.556,N
705,0.040,1.385,-0.170,127.778,86.111,336.111,641.667,22.222,N
706,-0.015,1.300,-0.200,130.556,86.111,294.444,655.556,13.889,N
707,-0.035,1.445,-0.200,133.333,88.889,316.667,636.111,19.444,N
708,-0.025,1.440,-0.205,138.889,88.889,319.444,666.667,30.556,N
709,-0.050,1.370,-0.240,130.556,91.667,336.111,647.222,19.444,N
710,-0.095,1.365,-0.245,122.222,86.111,313.889,650.000,2.778,N
711,-0.095,1.410,-0.235,133.333,88.889,319.444,636.111,13.889,N
712,-0.040,1.450,-0.245,133.333,88.889,308.333,650.000,13.889,N
713,-0.070,1.335,-0.250,127.778,105.556,350.000,633.333,16.667,N
714,-0.115,1.340,-0.295,122.222,58.333,313.889,658.333,25.000,N
715,-0.145,1.415,-0.300,122.222,83.333,311.111,655.556,2.778,N
716,-0.105,1.390,-0.265,136.111,91.667,305.556,647.222,8.333,N
717,-0.100,1.290,-0.270,127.778,86.111,319.444,627.778,19.444,N
718,-0.110,1.320,-0.255,144.444,88.889,350.000,663.889,36.111,N
719,-0.090,1.425,-0.215,113.889,88.889,313.889,663.889,0.000,N
720,-0.030,1.500,-0.180,133.333,88.889,313.889,652.778,11.111,N
721,0.010,1.440,-0.155,130.556,91.667,316.667,625.000,27.778,N
722,-0.005,1.410,-0.150,130.556,94.444,327.778,636.111,11.111,N
723,0.030,1.535,-0.130,122.222,94.444,325.000,638.889,2.778,N
724,0.060,1.535,-0.100,136.111,88.889,327.778,650.000,11.111,N
725,0.085,1.500,-0.090,136.111,86.111,322.222,661.111,11.111,N
726,0.080,1.535,-0.085,130.556,86.111,327.778,630.556,30.556,N
727,0.085,1.690,-0.100,122.222,88.889,305.556,625.000,5.556,N
728,0.075,1.630,-0.080,130.556,91.667,333.333,633.333,8.333,N
729,0.080,1.535,-0.055,133.333,94.444,341.667,669.444,36.111,N
730,0.120,1.590,-0.020,130.556,80.556,325.000,638.889,30.556,N
731,0.125,1.730,-0.055,113.889,80.556,297.222,636.111,2.778,N
732,0.125,1.600,-0.050,127.778,80.556,322.222,630.556,5.556,N
733,0.080,1.525,-0.065,116.667,88.889,313.889,647.222,16.667,N
734,0.090,1.535,-0.090,133.333,86.111,325.000,627.778,19.444,N
735,0.065,1.525,-0.080,133.333,88.889,330.556,652.778,25.000,N
736,0.055,1.480,-0.090,116.667,86.111,316.667,650.000,2.778,N
737,0.060,1.535,-0.105,133.333,94.444,311.111,647.222,2.778,N
738,0.060,1.460,-0.100,125.000,88.889,313.889,622.222,25.000,N
739,0.030,1.410,-0.150,130.556,91.667,333.333,655.556,33.333,N
740,-0.015,1.445,-0.205,133.333,80.556,319.444,666.667,11.111,N
741,0.000,1.525,-0.180,133.333,91.667,319.444,647.222,19.444,N
742,-0.020,1.415,-0.190,127.778,88.889,311.111,630.556,16.667,N
743,-0.035,1.355,-0.180,127.778,94.444,338.889,647.222,16.667,N
744,-0.015,1.460,-0.160,122.222,83.333,327.778,641.667,5.556,N
745,-0.005,1.510,-0.145,125.000,91.667,308.333,652.778,11.111,N
746,0.035,1.515,-0.140,133.333,86.111,316.667,655.556,2.778,N
747,0.025,1.415,-0.160,122.222,91.667,316.667,644.444,11.111,N
748,0.025,1.475,-0.135,125.000,58.333,311.111,638.889,5.556,N
749,0.055,1.600,-0.085,127.778,105.556,355.556,638.889,0.000,N
750,0.080,1.575,-0.125,138.889,102.778,347.222,663.889,25.000,N
751,0.035,1.590,-0.150,113.889,86.111,327.778,647.222,16.667,N
752,0.025,1.460,-0.170,122.222,91.667,313.889,644.444,2.778,N
753,-0.005,1.420,-0.150,122.222,88.889,311.111,633.333,11.111,N
754,0.035,1.480,-0.100,138.889,88.889,322.222,655.556,22.222,N
755,0.080,1.645,-0.075,119.444,91.667,344.444,644.444,11.111,N
756,0.105,1.630,-0.050,133.333,91.667,325.000,658.333,13.889,N
757,0.120,1.580,-0.035,127.778,80.556,319.444,658.333,0.000,N
758,0.115,1.505,-0.035,119.444,86.111,316.667,644.444,13.889,N
759,0.110,1.555,0.005,130.556,58.333,322.222,627.778,16.667,N
760,0.160,1.685,0.010,133.333,94.444,338.889,658.333,30.556,N
761,0.195,1.610,0.055,127.778,83.333,330.556,666.667,8.333,N
762,0.215,1.620,0.050,127.778,88.889,305.556,655.556,11.111,N
763,0.225,1.630,0.035,133.333,83.333,325.000,619.444,36.111,N
764,0.195,1.700,0.045,130.556,86.111,325.000,641.667,22.222,N
765,0.215,1.620,0.030,125.000,88.889,311.111,638.889,2.778,N
766,0.140,1.605,-0.030,125.000,88.889,319.444,658.333,19.444,N
767,0.125,1.630,-0.085,136.111,91.667,330.556,658.333,0.000,N
768,0.090,1.555,-0.075,133.333,83.333,319.444,636.111,22.222,N
769,0.080,1.540,-0.130,133.333,80.556,316.667,638.889,2.778,N
770,0.035,1.430,-0.130,125.000,88.889,313.889,644.444,5.556,N
771,0.020,1.530,-0.135,122.222,86.111,305.556,666.667,22.222,N
772,0.050,1.570,-0.115,130.556,86.111,325.000,644.444,22.222,N
773,0.015,1.455,-0.175,122.222,83.333,327.778,636.111,8.333,N
774,-0.025,1.435,-0.185,130.556,77.778,322.222,641.667,5.556,N
775,0.000,1.510,-0.180,127.778,88.889,311.111,647.222,5.556,N
776,0.000,1.450,-0.165,136.111,86.111,325.000,647.222,0.000,N
777,-0.015,1.360,-0.170,130.556,91.667,341.667,652.778,5.556,N
778,-0.005,1.435,-0.160,125.000,55.556,327.778,644.444,8.333,N
779,-0.005,1.530,-0.165,108.333,83.333,300.000,638.889,5.556,N
780,0.000,1.435,-0.160,133.333,86.111,333.333,633.333,5.556,N
781,-0.010,1.385,-0.145,136.111,91.667,341.667,652.778,19.444,N
782,0.050,1.500,-0.140,130.556,66.667,338.889,641.667,11.111,N
783,0.015,1.430,-0.175,130.556,77.778,302.778,636.111,5.556,N
784,-0.030,1.310,-0.190,130.556,88.889,316.667,622.222,13.889,N
785,0.000,1.475,-0.140,127.778,91.667,350.000,633.333,11.111,N
786,0.060,1.540,-0.080,122.222,86.111,347.222,627.778,5.556,N
787,0.100,1.565,-0.075,125.000,88.889,327.778,647.222,19.444,N
788,0.105,1.600,-0.040,119.444,86.111,313.889,658.333,11.111,N
789,0.135,1.635,-0.040,116.667,91.667,325.000,627.778,30.556,N
790,0.130,1.575,-0.025,113.889,83.333,319.444,622.222,5.556,N
791,0.135,1.525,-0.025,138.889,86.111,322.222,644.444,22.222,N
792,0.135,1.605,-0.035,130.556,91.667,316.667,669.444,25.000,N
793,0.155,1.620,0.005,130.556,86.111,325.000,647.222,22.222,N
794,0.165,1.580,-0.025,119.444,58.333,313.889,625.000,22.222,N
795,0.155,1.610,-0.060,122.222,86.111,316.667,630.556,5.556,N
796,0.105,1.585,-0.055,127.778,83.333,297.222,644.444,13.889,N
797,0.105,1.550,-0.070,133.333,80.556,330.556,638.889,5.556,N
798,0.070,1.475,-0.060,133.333,80.556,322.222,641.667,2.778,N
799,0.095,1.475,-0.050,122.222,88.889,316.667,636.111,5.556,N
800,0.085,1.490,-0.070,119.444,77.778,322.222,625.000,11.111,N
801,0.085,1.545,-0.120,122.222,88.889,313.889,616.667,8.333,N
802,0.035,1.420,-0.125,130.556,83.333,330.556,647.222,30.556,N
803,0.015,1.365,-0.165,122.222,91.667,344.444,652.778,5.556,N
804,0.020,1.415,-0.130,119.444,58.333,305.556,636.111,16.667,N
805,0.025,1.515,-0.130,130.556,80.556,316.667,619.444,16.667,N
806,0.020,1.530,-0.085,130.556,86.111,325.000,633.333,13.889,N
807,0.030,1.460,-0.130,125.000,86.111,341.667,636.111,2.778,N
808,0.060,1.530,-0.105,125.000,88.889,338.889,647.222,11.111,N
809,0.050,1.520,-0.080,119.444,91.667,316.667,658.333,11.111,N
810,0.050,1.535,-0.105,127.778,91.667,313.889,633.333,25.000,N
811,0.035,1.490,-0.080,116.667,88.889,316.667,633.333,0.000,N
812,0.090,1.520,-0.090,130.556,88.889,327.778,650.000,16.667,N
813,0.060,1.555,-0.070,130.556,88.889,330.556,669.444,19.444,N
814,0.090,1.615,-0.070,133.333,88.889,322.222,641.667,27.778,N
815,0.090,1.580,-0.055,119.444,83.333,322.222,630.556,11.111,N
816,0.075,1.465,-0.080,122.222,77.778,322.222,638.889,8.333,N
817,0.095,1.475,-0.080,122.222,55.556,308.333,641.667,2.778,N
818,0.080,1.580,-0.080,130.556,86.111,311.111,647.222,5.556,N
819,0.085,1.530,-0.045,136.111,86.111,322.222,647.222,0.000,N
820,0.105,1.455,-0.050,119.444,83.333,322.222,633.333,13.889,N
821,0.070,1.510,-0.065,113.889,86.111,316.667,633.333,0.000,N
822,0.085,1.545,-0.075,127.778,86.111,325.000,627.778,5.556,N
823,0.080,1.505,-0.100,130.556,88.889,341.667,652.778,25.000,N
824,0.035,1.460,-0.135,133.333,91.667,322.222,650.000,2.778,N
825,-0.005,1.350,-0.150,125.000,77.778,311.111,641.667,8.333,N
826,-0.015,1.365,-0.135,125.000,83.333,311.111,630.556,11.111,N
827,-0.010,1.415,-0.155,133.333,86.111,316.667,630.556,0.000,N
828,-0.005,1.505,-0.200,130.556,88.889,330.556,630.556,0.000,N
829,-0.040,1.490,-0.200,130.556,88.889,336.111,652.778,22.222,N
830,-0.040,1.440,-0.215,136.111,83.333,327.778,672.222,19.444,N
831,-0.045,1.350,-0.220,133.333,88.889,302.778,636.111,36.111,N
832,-0.010,1.445,-0.205,127.778,88.889,336.111,625.000,11.111,N
833,-0.055,1.470,-0.235,136.111,94.444,319.444,652.778,27.778,N
834,-0.085,1.330,-0.255,130.556,86.111,325.000,663.889,11.111,N
835,-0.120,1.345,-0.265,127.778,91.667,311.111,647.222,16.667,N
836,-0.130,1.345,-0.255,130.556,88.889,313.889,625.000,22.222,N
837,-0.060,1.390,-0.200,122.222,88.889,327.778,638.889,13.889,N
838,-0.030,1.590,-0.170,122.222,91.667,302.778,641.667,2.778,N
839,-0.015,1.485,-0.170,127.778,80.556,322.222,647.222,5.556,N
840,-0.015,1.485,-0.185,130.556,88.889,330.556,655.556,8.333,N
841,-0.010,1.405,-0.190,127.778,83.333,300.000,636.111,19.444,N
842,0.025,1.435,-0.130,125.000,55.556,305.556,627.778,8.333,N
843,0.050,1.600,-0.090,130.556,94.444,341.667,636.111,8.333,N
844,0.085,1.620,-0.115,136.111,94.444,338.889,661.111,25.000,N
845,0.070,1.560,-0.125,130.556,83.333,330.556,638.889,22.222,N
846,0.045,1.490,-0.120,125.000,86.111,305.556,630.556,8.333,N
847,0.070,1.545,-0.070,127.778,63.889,338.889,633.333,2.778,N
848,0.120,1.635,-0.080,136.111,86.111,319.444,650.000,16.667,N
849,0.100,1.590,-0.055,136.111,88.889,325.000,636.111,13.889,N
850,0.110,1.525,-0.060,127.778,88.889,333.333,644.444,8.333,N
851,0.095,1.450,-0.080,125.000,83.333,319.444,647.222,2.778,N
852,0.120,1.545,-0.040,130.556,86.111,302.778,633.333,13.889,N
853,0.115,1.510,-0.070,122.222,86.111,308.333,619.444,13.889,N
854,0.085,1.455,-0.090,130.556,80.556,330.556,644.444,25.000,N
855,0.050,1.385,-0.120,127.778,88.889,308.333,658.333,13.889,N
856,0.025,1.395,-0.165,127.778,86.111,311.111,633.333,25.000,N
857,-0.015,1.400,-0.175,130.556,80.556,316.667,616.667,16.667,N
858,-0.015,1.315,-0.200,127.778,86.111,366.667,625.000,8.333,N
859,-0.045,1.225,-0.235,122.222,86.111,333.333,630.556,5.556,N
860,-0.090,1.320,-0.230,125.000,83.333,327.778,638.889,8.333,N
861,-0.060,1.290,-0.225,138.889,91.667,322.222,647.222,8.333,N
862,-0.075,1.265,-0.225,127.778,77.778,319.444,630.556,16.667,N
863,-0.120,1.255,-0.265,122.222,80.556,322.222,627.778,2.778,N
864,-0.090,1.335,-0.265,127.778,86.111,333.333,625.000,2.778,N
865,-0.095,1.280,-0.225,116.667,88.889,325.000,652.778,27.778,N
866,-0.040,1.225,-0.240,130.556,77.778,325.000,652.778,0.000,N
867,-0.095,1.275,-0.210,122.222,80.556,316.667,644.444,8.333,N
868,-0.050,1.360,-0.210,136.111,86.111,291.667,627.778,16.667,N
869,-0.025,1.320,-0.190,138.889,86.111,325.000,633.333,5.556,N
870,-0.015,1.335,-0.255,133.333,105.556,347.222,630.556,2.778,N
871,-0.135,1.185,-0.270,133.333,86.111,322.222,641.667,11.111,N
872,-0.115,1.265,-0.260,125.000,88.889,311.111,652.778,11.111,N
873,-0.095,1.290,-0.230,113.889,88.889,330.556,622.222,30.556,N
874,-0.085,1.300,-0.190,130.556,88.889,308.333,625.000,2.778,N
875,-0.050,1.340,-0.180,130.556,86.111,316.667,638.889,13.889,N
876,0.015,1.455,-0.095,133.333,100.000,330.556,655.556,16.667,N
877,0.080,1.570,-0.120,133.333,94.444,327.778,633.333,22.222,N
878,0.055,1.570,-0.185,122.222,88.889,336.111,625.000,8.333,N
879,-0.040,1.395,-0.185,119.444,86.111,336.111,630.556,5.556,N
880,-0.065,1.340,-0.180,133.333,80.556,313.889,650.000,19.444,N
881,-0.005,1.375,-0.100,133.333,61.111,313.889,650.000,0.000,N
882,0.080,1.520,-0.035,125.000,61.111,311.111,663.889,13.889,N
883,0.150,1.540,-0.050,125.000,83.333,327.778,644.444,19.444,N
884,0.105,1.475,-0.080,122.222,91.667,313.889,652.778,8.333,N
885,0.070,1.430,-0.075,130.556,111.111,352.778,652.778,0.000,N
886,0.060,1.435,-0.100,138.889,88.889,347.222,677.778,25.000,N
887,0.060,1.535,-0.080,125.000,80.556,319.444,663.889,13.889,N
888,0.035,1.465,-0.110,127.778,83.333,297.222,658.333,5.556,N
889,0.025,1.390,-0.125,127.778,88.889,305.556,652.778,5.556,N
890,0.005,1.425,-0.115,119.444,61.111,325.000,661.111,8.333,N
891,0.040,1.495,-0.145,130.556,88.889,333.333,650.000,11.111,N
892,0.015,1.430,-0.130,136.111,88.889,325.000,669.444,19.444,N
893,0.015,1.410,-0.145,127.778,83.333,308.333,672.222,2.778,N
894,0.030,1.450,-0.095,133.333,91.667,305.556,652.778,19.444,N
895,0.070,1.555,-0.110,130.556,86.111,333.333,638.889,13.889,N
896,0.090,1.485,-0.110,130.556,80.556,325.000,666.667,27.778,N
897,0.035,1.385,-0.100,122.222,83.333,300.000,672.222,5.556,N
898,0.045,1.360,-0.145,130.556,80.556,302.778,663.889,8.333,N
899,-0.030,1.330,-0.150,136.111,91.667,316.667,647.222,16.667,N
900,-0.005,1.405,-0.180,133.333,86.111,322.222,658.333,11.111,N
901,-0.005,1.315,-0.185,127.778,91.667,316.667,652.778,5.556,N
902,-0.030,1.280,-0.165,127.778,88.889,336.111,666.667,13.889,N
903,-0.010,1.340,-0.145,136.111,88.889,300.000,683.333,16.667,N
904,0.030,1.485,-0.090,127.778,86.111,333.333,652.778,30.556,N
905,0.060,1.615,-0.110,127.778,80.556,330.556,638.889,13.889,N
906,0.035,1.520,-0.160,130.556,86.111,344.444,661.111,22.222,N
907,0.000,1.450,-0.145,133.333,83.333,322.222,680.556,19.444,N
908,0.010,1.415,-0.095,133.333,83.333,311.111,650.000,30.556,N
909,0.035,1.480,-0.100,130.556,88.889,311.111,633.333,16.667,N
910,0.005,1.405,-0.125,130.556,86.111,322.222,641.667,8.333,N
911,0.020,1.485,-0.105,122.222,58.333,311.111,655.556,13.889,N
912,0.035,1.555,-0.100,113.889,83.333,297.222,652.778,2.778,N
913,0.075,1.590,-0.080,127.778,91.667,305.556,655.556,2.778,N
914,0.080,1.590,-0.080,130.556,88.889,336.111,638.889,16.667,N
915,0.035,1.405,-0.145,122.222,88.889,308.333,650.000,11.111,N
916,0.020,1.395,-0.140,133.333,91.667,336.111,647.222,2.778,N
917,0.030,1.465,-0.120,144.444,91.667,325.000,683.333,36.111,N
918,0.070,1.460,-0.095,130.556,83.333,330.556,652.778,30.556,N
919,0.045,1.375,-0.110,122.222,86.111,302.778,652.778,0.000,N
920,0.000,1.420,-0.115,108.333,86.111,330.556,650.000,2.778,N
921,0.065,1.495,-0.120,133.333,77.778,319.444,672.222,22.222,N
922,0.035,1.455,-0.125,133.333,86.111,330.556,666.667,5.556,N
923,0.005,1.405,-0.165,138.889,94.444,322.222,677.778,11.111,N
924,-0.020,1.450,-0.180,133.333,91.667,322.222,658.333,19.444,N
925,-0.030,1.510,-0.180,127.778,88.889,305.556,658.333,0.000,N
926,-0.035,1.375,-0.170,116.667,88.889,319.444,652.778,5.556,N
927,-0.035,1.385,-0.170,136.111,91.667,336.111,683.333,30.556,N
928,-0.035,1.440,-0.215,130.556,88.889,336.111,661.111,22.222,N
929,-0.055,1.425,-0.225,127.778,80.556,308.333,669.444,8.333,N
930,-0.060,1.325,-0.210,127.778,86.111,316.667,644.444,25.000,N
931,-0.070,1.310,-0.215,119.444,83.333,313.889,663.889,19.444,N
932,-0.030,1.440,-0.200,133.333,97.222,316.667,650.000,13.889,N
933,-0.030,1.460,-0.155,130.556,91.667,344.444,672.222,22.222,N
934,-0.015,1.370,-0.165,122.222,91.667,313.889,661.111,11.111,N
935,-0.020,1.335,-0.185,122.222,88.889,308.333,658.333,2.778,N
936,-0.040,1.415,-0.160,127.778,91.667,325.000,641.667,16.667,N
937,-0.005,1.380,-0.170,136.111,102.778,344.444,677.778,36.111,N
938,0.000,1.330,-0.155,127.778,100.000,347.222,663.889,13.889,N
939,-0.010,1.270,-0.155,125.000,88.889,300.000,661.111,2.778,N
940,-0.020,1.420,-0.155,127.778,88.889,297.222,644.444,16.667,N
941,0.010,1.430,-0.155,136.111,88.889,311.111,661.111,16.667,N
942,0.005,1.340,-0.150,133.333,83.333,327.778,644.444,16.667,N
943,-0.010,1.340,-0.160,136.111,83.333,333.333,669.444,25.000,N
944,0.005,1.490,-0.100,122.222,80.556,319.444,663.889,5.556,N
945,0.045,1.520,-0.115,136.111,88.889,302.778,652.778,11.111,N
946,0.030,1.490,-0.135,130.556,86.111,327.778,636.111,16.667,N
947,0.040,1.415,-0.115,136.111,88.889,327.778,672.222,36.111,N
948,0.015,1.485,-0.125,130.556,108.333,344.444,672.222,0.000,N
949,0.055,1.515,-0.110,130.556,91.667,311.111,655.556,16.667,N
950,0.030,1.395,-0.150,133.333,86.111,302.778,636.111,19.444,N
951,-0.030,1.390,-0.170,136.111,91.667,319.444,652.778,16.667,N
952,0.000,1.405,-0.160,125.000,88.889,330.556,647.222,5.556,N
953,-0.010,1.515,-0.195,130.556,86.111,327.778,666.667,19.444,N
954,-0.025,1.470,-0.180,127.778,86.111,297.222,669.444,2.778,N
955,-0.030,1.355,-0.195,141.667,83.333,311.111,650.000,19.444,N
956,-0.065,1.335,-0.195,116.667,86.111,311.111,633.333,16.667,N
957,-0.050,1.410,-0.245,138.889,86.111,322.222,661.111,27.778,N
958,-0.075,1.335,-0.215,130.556,91.667,308.333,686.111,25.000,N
959,-0.090,1.340,-0.225,138.889,88.889,316.667,658.333,27.778,N
960,-0.050,1.445,-0.240,125.000,88.889,338.889,636.111,22.222,N
961,-0.080,1.385,-0.245,130.556,91.667,319.444,655.556,19.444,N
962,-0.060,1.340,-0.195,125.000,83.333,327.778,655.556,0.000,N
963,-0.025,1.405,-0.145,130.556,97.222,341.667,669.444,13.889,N
964,0.045,1.545,-0.130,133.333,86.111,322.222,669.444,0.000,N
965,0.020,1.490,-0.170,130.556,91.667,341.667,650.000,19.444,N
966,-0.045,1.420,-0.175,127.778,83.333,311.111,655.556,5.556,N
967,-0.035,1.400,-0.150,122.222,88.889,338.889,647.222,8.333,N
968,0.000,1.530,-0.150,133.333,83.333,319.444,680.556,33.333,N
969,0.020,1.495,-0.170,133.333,88.889,333.333,658.333,22.222,N
970,0.010,1.425,-0.140,116.667,86.111,316.667,644.444,13.889,N
971,0.040,1.500,-0.120,122.222,86.111,327.778,652.778,8.333,N
972,0.055,1.525,-0.110,116.667,88.889,313.889,658.333,5.556,N
973,0.025,1.425,-0.130,119.444,88.889,319.444,666.667,8.333,N
974,0.015,1.425,-0.095,122.222,88.889,316.667,669.444,2.778,N
975,0.035,1.500,-0.085,130.556,105.556,350.000,647.222,22.222,N
976,0.075,1.500,-0.090,122.222,83.333,305.556,655.556,8.333,N
977,0.020,1.435,-0.135,130.556,86.111,330.556,652.778,2.778,N
978,0.000,1.365,-0.165,130.556,94.444,313.889,680.556,27.778,N
979,-0.035,1.380,-0.190,133.333,83.333,319.444,652.778,27.778,N
980,-0.045,1.410,-0.155,125.000,55.556,305.556,650.000,2.778,N
981,0.015,1.440,-0.105,122.222,83.333,313.889,636.111,13.889,N
982,0.005,1.445,-0.155,122.222,88.889,297.222,652.778,16.667,N
983,-0.015,1.360,-0.150,122.222,91.667,319.444,638.889,13.889,N
984,-0.020,1.440,-0.160,144.444,88.889,325.000,661.111,22.222,N
985,-0.025,1.525,-0.190,127.778,86.111,316.667,638.889,22.222,N
986,-0.045,1.460,-0.230,127.778,91.667,311.111,638.889,0.000,N
987,-0.085,1.430,-0.250,116.667,88.889,316.667,625.000,13.889,N
988,-0.095,1.415,-0.250,130.556,88.889,325.000,661.111,36.111,N
989,-0.060,1.425,-0.195,127.778,86.111,311.111,652.778,8.333,N
990,-0.050,1.445,-0.205,130.556,83.333,302.778,647.222,5.556,N
991,-0.030,1.455,-0.120,133.333,80.556,325.000,627.778,19.444,N
992,0.020,1.590,-0.130,133.333,94.444,316.667,647.222,19.444,N
993,0.020,1.490,-0.105,125.000,86.111,344.444,636.111,11.111,N
994,0.035,1.475,-0.135,127.778,94.444,344.444,666.667,30.556,N
995,0.015,1.560,-0.120,127.778,58.333,316.667,669.444,2.778,N
996,0.085,1.625,-0.105,133.333,58.333,313.889,655.556,13.889,N
997,-0.005,1.470,-0.210,116.667,88.889,316.667,641.667,13.889,N
998,-0.145,1.320,-0.385,125.000,91.667,325.000,669.444,27.778,N
999,-0.215,1.295,-0.280,130.556,75.000,330.556,677.778,8.333,N
1000,-0.100,1.385,-0.150,133.333,63.889,313.889,652.778,25.000,N
1001,-0.020,1.570,-0.180,122.222,61.111,316.667,636.111,16.667,N
1002,-0.065,1.510,-0.220,136.111,86.111,330.556,655.556,19.444,N
1003,-0.085,1.450,-0.155,113.889,58.333,333.333,641.667,13.889,N
1004,0.055,1.745,-0.065,133.333,83.333,344.444,655.556,13.889,N
1005,0.060,1.655,-0.120,136.111,66.667,313.889,658.333,2.778,N
1006,-0.005,1.630,-0.195,136.111,100.000,336.111,641.667,16.667,N
1007,-0.035,1.510,-0.130,127.778,58.333,308.333,633.333,8.333,N
1008,0.070,1.660,-0.130,130.556,61.111,322.222,636.111,2.778,N
1009,-0.050,1.475,-0.220,144.444,91.667,316.667,675.000,38.889,N
1010,-0.080,1.495,-0.215,130.556,86.111,341.667,650.000,25.000,N
1011,-0.055,1.435,-0.180,113.889,50.000,322.222,638.889,11.111,N
1012,-0.035,1.465,-0.245,125.000,83.333,327.778,630.556,8.333,N
1013,-0.110,1.420,-0.250,130.556,88.889,308.333,661.111,30.556,N
1014,-0.095,1.410,-0.250,138.889,61.111,327.778,647.222,13.889,N
1015,-0.085,1.400,-0.245,130.556,61.111,338.889,658.333,11.111,N
1016,-0.075,1.435,-0.250,119.444,88.889,333.333,655.556,2.778,N
1017,-0.105,1.440,-0.245,113.889,83.333,297.222,652.778,2.778,N
1018,-0.065,1.420,-0.185,136.111,61.111,327.778,633.333,19.444,N
1019,-0.040,1.425,-0.255,122.222,61.111,322.222,672.222,38.889,N
1020,-0.100,1.430,-0.240,127.778,88.889,316.667,669.444,2.778,N
1021,-0.105,1.390,-0.215,111.111,86.111,297.222,661.111,8.333,N
1022,-0.040,1.485,-0.185,136.111,58.333,308.333,633.333,27.778,N
1023,-0.035,1.470,-0.170,133.333,88.889,311.111,641.667,8.333,N
1024,-0.025,1.410,-0.190,127.778,97.222,355.556,641.667,0.000,N
1025,-0.035,1.400,-0.130,119.444,58.333,316.667,658.333,16.667,N
1026,0.045,1.630,-0.090,119.444,55.556,311.111,661.111,2.778,N
1027,0.045,1.585,-0.120,133.333,94.444,319.444,644.444,16.667,N
1028,0.030,1.480,-0.135,127.778,91.667,308.333,633.333,11.111,N
1029,0.010,1.530,-0.090,136.111,58.333,322.222,658.333,25.000,N
1030,0.040,1.470,-0.135,116.667,61.111,316.667,666.667,8.333,N
1031,0.010,1.495,-0.160,130.556,86.111,330.556,652.778,13.889,N
1032,-0.025,1.515,-0.135,130.556,102.778,341.667,636.111,16.667,N
1033,0.025,1.550,-0.080,119.444,58.333,313.889,647.222,11.111,N
1034,0.045,1.560,-0.145,119.444,100.000,322.222,647.222,0.000,N
1035,0.025,1.450,-0.135,127.778,91.667,336.111,661.111,13.889,N
1036,-0.010,1.460,-0.095,127.778,88.889,347.222,655.556,5.556,N
1037,0.065,1.570,-0.110,133.333,94.444,333.333,652.778,2.778,N
1038,0.015,1.520,-0.205,111.111,88.889,322.222,641.667,11.111,N
1039,-0.105,1.390,-0.255,125.000,91.667,316.667,647.222,5.556,N
1040,-0.110,1.405,-0.200,144.444,61.111,319.444,658.333,11.111,N
1041,-0.055,1.445,-0.185,125.000,58.333,313.889,638.889,19.444,N
1042,-0.050,1.435,-0.175,125.000,86.111,308.333,636.111,2.778,N
1043,-0.010,1.500,-0.020,119.444,61.111,352.778,627.778,8.333,N
1044,0.205,1.670,0.225,133.333,66.667,311.111,633.333,5.556,N
1045,0.370,1.845,0.210,133.333,61.111,316.667,627.778,5.556,N
1046,0.275,1.770,0.015,125.000,97.222,338.889,652.778,25.000,N
1047,0.080,1.595,-0.165,130.556,91.667,313.889,661.111,8.333,N
1048,-0.050,1.365,-0.380,125.000,86.111,305.556,638.889,22.222,N
1049,-0.200,1.190,-0.375,125.000,94.444,319.444,630.556,8.333,N
1050,-0.210,1.215,-0.275,130.556,61.111,344.444,661.111,30.556,N
1051,-0.105,1.305,-0.265,130.556,83.333,330.556,677.778,16.667,N
1052,-0.130,1.360,-0.175,119.444,58.333,313.889,652.778,25.000,N
1053,-0.050,1.415,-0.080,127.778,61.111,319.444,625.000,27.778,N
1054,0.095,1.615,-0.010,130.556,91.667,344.444,647.222,22.222,N
1055,0.140,1.655,-0.060,127.778,91.667,333.333,647.222,0.000,N
1056,0.075,1.605,-0.115,130.556,86.111,302.778,661.111,13.889,N
1057,0.035,1.475,-0.095,133.333,94.444,316.667,658.333,2.778,N
1058,0.075,1.625,0.020,130.556,55.556,311.111,644.444,13.889,N
1059,0.185,1.670,0.035,127.778,102.778,322.222,636.111,8.333,N
1060,0.165,1.635,-0.005,122.222,88.889,313.889,647.222,11.111,N
1061,0.120,1.610,-0.015,138.889,88.889,311.111,675.000,27.778,N
1062,0.125,1.695,0.065,136.111,91.667,327.778,647.222,27.778,N
1063,0.230,1.775,0.005,111.111,55.556,313.889,636.111,11.111,N
1064,0.125,1.675,-0.085,130.556,94.444,316.667,655.556,19.444,N
1065,0.050,1.570,-0.095,127.778,86.111,308.333,663.889,8.333,N
1066,0.070,1.600,0.015,138.889,61.111,322.222,658.333,5.556,N
1067,0.215,1.785,0.040,136.111,88.889,325.000,658.333,0.000,N
1068,0.135,1.645,-0.120,130.556,83.333,327.778,663.889,5.556,N
1069,0.030,1.520,-0.125,127.778,83.333,333.333,661.111,2.778,N
1070,0.010,1.555,-0.035,111.111,88.889,344.444,650.000,11.111,N
1071,0.155,1.730,-0.065,138.889,91.667,341.667,677.778,27.778,N
1072,0.055,1.580,-0.150,130.556,86.111,327.778,672.222,5.556,N
1073,0.030,1.560,-0.105,127.778,91.667,313.889,655.556,16.667,N
1074,0.050,1.720,-0.040,125.000,55.556,325.000,650.000,5.556,N
1075,0.105,1.680,-0.120,136.111,86.111,305.556,661.111,11.111,N
1076,-0.005,1.560,-0.145,119.444,91.667,322.222,655.556,5.556,N
1077,-0.005,1.570,-0.120,133.333,63.889,319.444,663.889,8.333,N
1078,0.050,1.690,-0.020,113.889,55.556,319.444,658.333,5.556,N
1079,0.125,1.705,-0.145,127.778,91.667,305.556,650.000,8.333,N
1080,-0.015,1.570,-0.195,133.333,83.333,322.222,644.444,5.556,N
1081,-0.005,1.570,-0.085,133.333,86.111,325.000,663.889,19.444,N
1082,0.095,1.755,-0.065,113.889,88.889,325.000,675.000,11.111,N
1083,0.055,1.615,-0.130,130.556,83.333,302.778,658.333,16.667,N
1084,0.000,1.615,-0.125,136.111,86.111,319.444,638.889,19.444,N
1085,0.065,1.755,-0.010,136.111,63.889,311.111,650.000,11.111,N
1086,0.140,1.770,-0.065,133.333,91.667,330.556,647.222,2.778,N
1087,0.075,1.605,-0.130,138.889,88.889,316.667,677.778,30.556,N
1088,0.035,1.605,-0.055,127.778,91.667,311.111,675.000,2.778,N
1089,0.125,1.755,-0.130,133.333,83.333,297.222,644.444,30.556,N
1090,-0.025,1.505,-0.235,136.111,91.667,322.222,644.444,0.000,N
1091,-0.090,1.390,-0.255,138.889,83.333,327.778,663.889,19.444,N
1092,-0.055,1.495,-0.120,113.889,94.444,319.444,672.222,8.333,N
1093,0.065,1.625,-0.145,136.111,86.111,305.556,652.778,19.444,N
1094,0.015,1.540,-0.155,136.111,86.111,330.556,638.889,13.889,N
1095,-0.025,1.465,-0.105,138.889,91.667,322.222,644.444,5.556,N
1096,0.085,1.490,-0.025,127.778,88.889,308.333,638.889,5.556,N
1097,0.060,1.475,-0.125,130.556,88.889,319.444,658.333,19.444,N
1098,0.030,1.515,-0.145,138.889,86.111,319.444,666.667,8.333,N
1099,0.005,1.475,-0.160,133.333,88.889,313.889,633.333,33.333,N
1100,-0.035,1.440,-0.190,130.556,88.889,316.667,633.333,0.000,N
1101,-0.035,1.440,-0.205,133.333,86.111,338.889,650.000,16.667,N
1102,-0.030,1.505,-0.140,136.111,86.111,327.778,672.222,22.222,N
1103,0.000,1.495,-0.185,133.333,86.111,322.222,638.889,33.333,N
1104,-0.060,1.435,-0.250,122.222,86.111,322.222,636.111,2.778,N
1105,-0.105,1.340,-0.275,130.556,86.111,338.889,652.778,16.667,N
1106,-0.110,1.400,-0.195,125.000,55.556,311.111,655.556,2.778,N
1107,-0.035,1.530,-0.215,136.111,86.111,311.111,661.111,5.556,N
1108,-0.065,1.450,-0.225,141.667,88.889,319.444,666.667,5.556,N
1109,-0.085,1.370,-0.215,130.556,83.333,322.222,655.556,11.111,N
1110,-0.040,1.415,-0.120,122.222,58.333,313.889,652.778,2.778,N
1111,0.040,1.540,-0.170,136.111,83.333,325.000,650.000,2.778,N
1112,-0.050,1.395,-0.240,144.444,94.444,327.778,683.333,33.333,N
1113,-0.130,1.315,-0.265,130.556,88.889,327.778,658.333,25.000,N
1114,-0.095,1.375,-0.180,122.222,58.333,319.444,644.444,13.889,N
1115,-0.015,1.585,-0.130,127.778,55.556,308.333,644.444,0.000,N
1116,-0.035,1.485,-0.235,130.556,91.667,313.889,650.000,5.556,N
1117,-0.110,1.360,-0.270,133.333,88.889,341.667,650.000,0.000,N
1118,-0.100,1.380,-0.145,122.222,63.889,344.444,655.556,5.556,N
1119,0.025,1.520,-0.225,113.889,88.889,313.889,658.333,2.778,N
1120,-0.140,1.360,-0.350,127.778,86.111,302.778,650.000,8.333,N
1121,-0.215,1.275,-0.300,133.333,88.889,325.000,636.111,13.889,N
1122,-0.095,1.460,-0.195,116.667,63.889,347.222,661.111,25.000,N
1123,-0.045,1.440,-0.345,130.556,88.889,305.556,669.444,8.333,N
1124,-0.235,1.205,-0.435,125.000,88.889,313.889,652.778,16.667,N
1125,-0.285,1.235,-0.320,127.778,55.556,311.111,636.111,16.667,N
1126,-0.105,1.425,-0.295,138.889,88.889,311.111,638.889,2.778,N
1127,-0.125,1.355,-0.365,127.778,86.111,327.778,641.667,2.778,N
1128,-0.235,1.150,-0.410,127.778,91.667,341.667,652.778,11.111,N
1129,-0.240,1.295,-0.265,122.222,80.556,319.444,661.111,8.333,N
1130,-0.065,1.395,-0.235,116.667,61.111,319.444,636.111,25.000,N
1131,-0.125,1.345,-0.340,113.889,86.111,316.667,633.333,2.778,N
1132,-0.230,1.185,-0.385,127.778,86.111,336.111,650.000,16.667,N
1133,-0.210,1.255,-0.220,133.333,61.111,308.333,661.111,11.111,N
1134,0.005,1.510,-0.195,136.111,97.222,305.556,641.667,19.444,N
1135,-0.060,1.405,-0.275,133.333,88.889,302.778,627.778,13.889,N
1136,-0.140,1.250,-0.260,130.556,86.111,336.111,636.111,8.333,N
1137,-0.085,1.415,-0.125,122.222,80.556,322.222,644.444,8.333,N
1138,0.030,1.475,-0.205,130.556,88.889,325.000,661.111,16.667,N
1139,-0.040,1.385,-0.200,136.111,102.778,341.667,666.667,5.556,N
1140,-0.040,1.425,-0.135,130.556,86.111,319.444,638.889,27.778,N
1141,-0.005,1.445,-0.205,122.222,58.333,316.667,638.889,0.000,N
1142,-0.055,1.380,-0.220,127.778,91.667,330.556,650.000,11.111,N
1143,-0.060,1.440,-0.185,141.667,88.889,336.111,677.778,27.778,N
1144,-0.035,1.405,-0.260,119.444,88.889,319.444,644.444,33.333,N
1145,-0.110,1.390,-0.300,130.556,83.333,305.556,650.000,5.556,N
1146,-0.150,1.355,-0.240,113.889,55.556,319.444,641.667,8.333,N
1147,-0.040,1.535,-0.195,122.222,88.889,305.556,647.222,5.556,N
1148,-0.060,1.415,-0.280,130.556,88.889,330.556,644.444,2.778,N
1149,-0.150,1.350,-0.255,136.111,88.889,341.667,658.333,13.889,N
1150,-0.085,1.430,-0.215,125.000,55.556,319.444,652.778,5.556,N
1151,-0.075,1.445,-0.290,116.667,83.333,316.667,636.111,16.667,N
1152,-0.130,1.360,-0.305,130.556,86.111,322.222,625.000,11.111,N
1153,-0.135,1.425,-0.230,125.000,94.444,344.444,652.778,27.778,N
1154,-0.095,1.450,-0.300,127.778,80.556,316.667,655.556,2.778,N
1155,-0.185,1.315,-0.385,130.556,86.111,302.778,647.222,8.333,N
1156,-0.250,1.350,-0.405,136.111,94.444,316.667,630.556,16.667,N
1157,-0.245,1.305,-0.380,136.111,91.667,341.667,636.111,5.556,N
1158,-0.215,1.250,-0.365,130.556,88.889,336.111,636.111,0.000,N
1159,-0.205,1.345,-0.250,127.778,58.333,327.778,647.222,11.111,N
1160,-0.030,1.580,-0.235,116.667,91.667,308.333,672.222,25.000,N
1161,-0.160,1.410,-0.370,130.556,66.667,319.444,641.667,30.556,N
1162,-0.215,1.310,-0.375,127.778,91.667,338.889,636.111,5.556,N
1163,-0.210,1.455,-0.265,136.111,61.111,344.444,655.556,19.444,N
1164,-0.025,1.600,-0.175,125.000,91.667,325.000,683.333,27.778,N
1165,-0.070,1.480,-0.305,116.667,86.111,313.889,650.000,33.333,N
1166,-0.145,1.445,-0.325,122.222,88.889,311.111,641.667,8.333,N
1167,-0.135,1.425,-0.210,127.778,52.778,352.778,644.444,2.778,N
1168,0.005,1.655,-0.190,130.556,55.556,300.000,666.667,22.222,N
1169,-0.095,1.415,-0.285,125.000,91.667,319.444,658.333,8.333,N
1170,-0.145,1.360,-0.230,136.111,63.889,316.667,663.889,5.556,N
1171,-0.045,1.490,-0.140,130.556,69.444,338.889,647.222,16.667,N
1172,0.005,1.540,-0.210,125.000,91.667,311.111,652.778,5.556,N
1173,-0.085,1.495,-0.205,133.333,83.333,325.000,655.556,2.778,N
1174,-0.035,1.505,-0.130,138.889,91.667,341.667,686.111,30.556,N
1175,0.055,1.665,-0.170,125.000,97.222,341.667,663.889,22.222,N
1176,-0.045,1.455,-0.255,125.000,91.667,319.444,661.111,2.778,N
1177,-0.170,1.380,-0.270,127.778,80.556,322.222,652.778,8.333,N
1178,-0.105,1.480,-0.200,136.111,55.556,316.667,672.222,19.444,N
1179,-0.025,1.580,-0.250,136.111,91.667,322.222,661.111,11.111,N
1180,-0.110,1.395,-0.295,127.778,91.667,341.667,680.556,19.444,N
1181,-0.145,1.410,-0.265,116.667,91.667,319.444,666.667,13.889,N
1182,-0.105,1.470,-0.150,130.556,61.111,313.889,666.667,0.000,N
1183,0.015,1.590,-0.215,136.111,91.667,327.778,650.000,16.667,N
1184,-0.075,1.525,-0.280,141.667,91.667,322.222,677.778,27.778,N
1185,-0.135,1.380,-0.265,125.000,86.111,316.667,669.444,8.333,N
1186,-0.110,1.395,-0.235,127.778,55.556,297.222,666.667,2.778,N
1187,-0.020,1.480,-0.135,127.778,55.556,300.000,644.444,22.222,N
1188,0.025,1.520,-0.190,133.333,91.667,305.556,655.556,11.111,N
1189,-0.065,1.435,-0.265,136.111,88.889,333.333,652.778,2.778,N
1190,-0.125,1.390,-0.265,141.667,108.333,347.222,672.222,19.444,N
1191,-0.130,1.310,-0.240,136.111,88.889,319.444,669.444,2.778,N
1192,-0.120,1.335,-0.260,136.111,86.111,297.222,658.333,11.111,N
1193,-0.145,1.295,-0.245,130.556,86.111,319.444,638.889,19.444,N
1194,-0.100,1.370,-0.225,141.667,86.111,322.222,672.222,33.333,N
1195,-0.030,1.485,-0.130,127.778,58.333,322.222,669.444,2.778,N
1196,0.095,1.705,-0.130,136.111,83.333,302.778,661.111,8.333,N
1197,0.005,1.525,-0.240,116.667,94.444,313.889,647.222,13.889,N
1198,-0.105,1.395,-0.255,138.889,91.667,330.556,652.778,5.556,N
1199,-0.125,1.315,-0.240,130.556,86.111,341.667,647.222,5.556,N
1200,-0.075,1.415,-0.150,130.556,69.444,347.222,666.667,19.444,N
1201,0.035,1.565,-0.160,130.556,100.000,311.111,672.222,5.556,N
1202,-0.035,1.525,-0.220,138.889,91.667,322.222,650.000,22.222,N
1203,-0.060,1.425,-0.145,130.556,88.889,316.667,633.333,16.667,N
1204,0.100,1.600,0.050,136.111,86.111,330.556,661.111,27.778,N
1205,0.230,1.765,-0.015,127.778,88.889,316.667,675.000,13.889,N
1206,0.100,1.595,-0.120,133.333,86.111,308.333,644.444,30.556,N
1207,0.015,1.450,-0.090,127.778,102.778,350.000,636.111,8.333,N
1208,0.100,1.660,0.040,130.556,83.333,330.556,644.444,8.333,N
1209,0.185,1.640,-0.065,116.667,88.889,308.333,650.000,5.556,N
1210,0.050,1.475,-0.190,136.111,88.889,313.889,658.333,8.333,N
1211,-0.020,1.405,-0.190,138.889,88.889,308.333,666.667,8.333,N
1212,-0.025,1.420,-0.115,116.667,88.889,347.222,638.889,27.778,N
1213,0.015,1.565,-0.110,122.222,91.667,311.111,638.889,0.000,N
1214,0.010,1.450,-0.260,130.556,94.444,338.889,638.889,0.000,N
1215,-0.115,1.370,-0.320,141.667,91.667,325.000,677.778,38.889,N
1216,-0.205,1.220,-0.325,113.889,88.889,319.444,644.444,33.333,N
1217,-0.145,1.300,-0.255,125.000,55.556,308.333,647.222,2.778,N
1218,-0.050,1.495,-0.195,130.556,91.667,316.667,636.111,11.111,N
1219,-0.050,1.415,-0.280,119.444,86.111,311.111,652.778,16.667,N
1220,-0.170,1.340,-0.335,136.111,97.222,325.000,636.111,16.667,N
1221,-0.155,1.335,-0.290,133.333,91.667,333.333,652.778,16.667,N
1222,-0.145,1.325,-0.270,130.556,88.889,316.667,647.222,5.556,N
1223,-0.105,1.325,-0.240,127.778,86.111,297.222,638.889,8.333,N
1224,-0.095,1.425,-0.135,127.778,55.556,316.667,619.444,19.444,N
1225,0.070,1.685,-0.115,138.889,88.889,330.556,652.778,33.333,N
1226,0.005,1.540,-0.240,122.222,88.889,305.556,658.333,5.556,N
1227,-0.070,1.395,-0.235,133.333,86.111,297.222,647.222,11.111,N
1228,-0.095,1.400,-0.185,130.556,86.111,305.556,619.444,27.778,N
1229,0.025,1.625,-0.055,133.333,88.889,333.333,641.667,22.222,N
1230,0.075,1.570,-0.170,130.556,88.889,333.333,638.889,2.778,N
1231,-0.020,1.525,-0.150,133.333,91.667,341.667,661.111,22.222,N
1232,-0.015,1.470,-0.145,130.556,83.333,302.778,663.889,2.778,N
1233,0.040,1.575,-0.075,133.333,88.889,313.889,633.333,30.556,N
1234,0.105,1.610,-0.125,127.778,102.778,347.222,638.889,5.556,N
1235,0.015,1.530,-0.145,144.444,91.667,341.667,658.333,19.444,N
1236,0.035,1.520,-0.135,136.111,86.111,325.000,677.778,19.444,N
1237,0.055,1.655,-0.045,133.333,88.889,319.444,650.000,27.778,N
1238,0.175,1.715,-0.025,111.111,83.333,313.889,627.778,22.222,N
1239,0.070,1.635,-0.155,125.000,88.889,313.889,644.444,16.667,N
1240,-0.030,1.540,-0.195,108.333,77.778,319.444,650.000,5.556,N
1241,-0.025,1.440,-0.185,133.333,88.889,305.556,658.333,8.333,N
1242,-0.020,1.470,-0.145,141.667,86.111,330.556,661.111,2.778,N
1243,0.055,1.605,-0.140,127.778,86.111,338.889,633.333,27.778,N
1244,0.035,1.550,-0.145,130.556,91.667,311.111,638.889,5.556,N
1245,0.045,1.505,-0.135,136.111,86.111,327.778,638.889,0.000,N
1246,0.060,1.535,-0.055,138.889,108.333,350.000,669.444,30.556,N
1247,0.120,1.720,0.080,127.778,88.889,313.889,638.889,30.556,N
1248,0.360,1.930,0.645,125.000,80.556,402.778,647.222,8.333,N
1249,1.105,2.575,1.150,125.000,88.889,305.556,636.111,11.111,N
1250,1.180,2.455,0.760,136.111,83.333,88.889,650.000,13.889,N
1251,0.430,1.615,-0.130,144.444,88.889,88.889,641.667,8.333,N
1252,-0.230,0.995,-0.620,138.889,91.667,322.222,663.889,22.222,N
1253,-0.550,0.775,-0.790,125.000,83.333,327.778,655.556,8.333,N
1254,-0.690,0.735,-0.900,130.556,88.889,302.778,655.556,0.000,N
1255,-0.780,0.680,-0.845,133.333,88.889,341.667,633.333,22.222,N
1256,-0.640,0.840,-0.650,138.889,91.667,341.667,669.444,36.111,N
1257,-0.445,1.040,-0.470,130.556,61.111,319.444,661.111,8.333,N
1258,-0.275,1.230,-0.260,130.556,55.556,319.444,652.778,8.333,N
1259,-0.105,1.380,-0.210,122.222,91.667,311.111,644.444,8.333,N
1260,-0.065,1.430,-0.200,138.889,88.889,316.667,658.333,13.889,N
1261,-0.040,1.465,-0.105,130.556,88.889,341.667,638.889,19.444,N
1262,0.090,1.565,0.030,136.111,61.111,325.000,666.667,27.778,N
1263,0.220,1.650,0.050,122.222,58.333,313.889,669.444,2.778,N
1264,0.190,1.645,0.035,136.111,83.333,319.444,655.556,13.889,N
1265,0.160,1.615,0.010,133.333,77.778,316.667,638.889,16.667,N
1266,0.120,1.560,0.025,127.778,91.667,330.556,672.222,33.333,N
1267,0.180,1.645,0.040,133.333,80.556,347.222,686.111,13.889,N
1268,0.180,1.555,-0.015,136.111,83.333,300.000,669.444,16.667,N
1269,0.105,1.585,-0.050,133.333,86.111,308.333,644.444,25.000,N
1270,0.090,1.455,-0.025,138.889,88.889,341.667,666.667,22.222,N
1271,0.095,1.570,-0.060,113.889,58.333,322.222,663.889,2.778,N
1272,0.065,1.475,-0.125,130.556,86.111,325.000,683.333,19.444,N
1273,0.020,1.455,-0.135,130.556,88.889,313.889,683.333,0.000,N
1274,-0.005,1.460,-0.095,122.222,58.333,311.111,672.222,11.111,N
1275,0.075,1.555,-0.140,127.778,52.778,322.222,647.222,25.000,N
1276,-0.015,1.500,-0.155,138.889,88.889,350.000,686.111,38.889,N
1277,0.010,1.455,-0.120,125.000,86.111,325.000,680.556,5.556,N
1278,0.055,1.490,-0.120,136.111,108.333,316.667,672.222,8.333,N
1279,-0.015,1.385,-0.185,127.778,91.667,316.667,641.667,30.556,N
1280,-0.045,1.425,-0.130,136.111,86.111,327.778,658.333,16.667,N
1281,0.015,1.510,-0.040,130.556,58.333,341.667,650.000,8.333,N
1282,0.095,1.570,-0.120,125.000,94.444,341.667,669.444,19.444,N
1283,-0.020,1.435,-0.180,130.556,80.556,300.000,675.000,5.556,N
1284,-0.050,1.345,-0.140,133.333,88.889,313.889,655.556,19.444,N
1285,0.025,1.525,-0.110,130.556,97.222,333.333,644.444,11.111,N
1286,0.030,1.430,-0.200,136.111,86.111,330.556,666.667,22.222,N
1287,-0.075,1.355,-0.215,136.111,80.556,313.889,677.778,11.111,N
1288,-0.080,1.280,-0.170,144.444,61.111,319.444,669.444,8.333,N
1289,0.020,1.430,-0.100,125.000,97.222,333.333,644.444,25.000,N
1290,0.045,1.425,-0.095,138.889,86.111,316.667,655.556,11.111,N
1291,0.075,1.400,-0.100,130.556,83.333,327.778,655.556,0.000,N
1292,0.075,1.435,-0.110,133.333,83.333,319.444,675.000,19.444,N
1293,0.010,1.425,-0.215,141.667,94.444,308.333,677.778,2.778,N
1294,-0.205,1.365,-0.350,119.444,86.111,336.111,605.556,72.222,N
1295,-0.390,1.285,-0.455,183.333,83.333,311.111,586.111,19.444,J
1296,-0.435,1.050,-0.390,58.333,100.000,383.333,483.333,102.778,J
1297,-0.370,1.250,-0.270,55.556,91.667,369.444,536.111,52.778,J
1298,-0.265,1.265,-0.180,69.444,111.111,375.000,480.556,55.556,J
1299,-0.145,1.350,-0.080,44.444,88.889,355.556,461.111,19.444,J
1300,-0.085,1.545,0.010,155.556,83.333,305.556,547.222,86.111,J
1301,0.025,1.640,0.145,38.889,86.111,297.222,544.444,2.778,J
1302,0.170,1.815,0.155,180.556,91.667,319.444,586.111,41.667,J
1303,0.140,1.755,0.140,197.222,86.111,333.333,616.667,30.556,J
1304,0.105,1.720,0.105,155.556,88.889,341.667,588.889,27.778,J
1305,0.085,1.715,0.110,55.556,94.444,311.111,636.111,47.222,J
1306,0.050,1.710,-0.010,197.222,88.889,336.111,641.667,5.556,J
1307,-0.035,1.560,-0.075,122.222,88.889,308.333,552.778,88.889,J
1308,-0.110,1.460,-0.090,186.111,91.667,344.444,533.333,19.444,J
1309,-0.110,1.505,-0.090,163.889,97.222,338.889,613.889,80.556,J
1310,-0.115,1.415,-0.195,186.111,83.333,311.111,650.000,36.111,J
1311,-0.200,1.345,-0.190,152.778,91.667,311.111,672.222,22.222,J
1312,-0.245,1.360,-0.160,188.889,116.667,338.889,661.111,11.111,J
1313,-0.205,1.390,-0.175,194.444,91.667,338.889,647.222,13.889,J
1314,-0.195,1.465,-0.185,175.000,86.111,330.556,538.889,108.333,J
1315,-0.200,1.410,-0.165,144.444,86.111,366.667,566.667,27.778,J
1316,-0.160,1.575,-0.115,130.556,83.333,333.333,630.556,63.889,J
1317,-0.130,1.550,-0.190,58.333,86.111,333.333,527.778,102.778,J
1318,-0.195,1.510,-0.230,52.778,80.556,311.111,530.556,2.778,J
1319,-0.255,1.490,-0.280,188.889,86.111,372.222,569.444,38.889,J
1320,-0.270,1.420,-0.265,50.000,88.889,325.000,550.000,19.444,J
1321,-0.270,1.305,-0.250,136.111,111.111,394.444,525.000,25.000,J
1322,-0.235,1.305,-0.205,50.000,88.889,313.889,486.111,38.889,J
1323,-0.205,1.355,-0.180,52.778,100.000,311.111,450.000,36.111,J
1324,-0.180,1.260,-0.165,155.556,116.667,336.111,416.667,33.333,J
1325,-0.165,1.300,-0.200,152.778,91.667,311.111,430.556,13.889,J
1326,-0.195,1.310,-0.165,61.111,100.000,311.111,441.667,11.111,J
1327,-0.165,1.305,-0.085,188.889,88.889,363.889,463.889,22.222,J
1328,-0.050,1.600,-0.005,61.111,88.889,319.444,508.333,44.444,J
1329,0.060,1.740,-0.005,55.556,97.222,325.000,427.778,80.556,J
1330,-0.005,1.485,-0.125,180.556,88.889,311.111,458.333,30.556,J
1331,-0.125,1.430,-0.170,175.000,111.111,341.667,455.556,2.778,J
1332,-0.165,1.385,-0.205,55.556,100.000,316.667,450.000,5.556,J
1333,-0.205,1.245,-0.230,152.778,116.667,319.444,425.000,25.000,J
1334,-0.230,1.305,-0.190,155.556,108.333,322.222,419.444,5.556,J
1335,-0.190,1.250,-0.175,177.778,97.222,316.667,450.000,30.556,J
1336,-0.175,1.230,-0.155,158.333,105.556,316.667,438.889,11.111,J
1337,-0.145,1.295,-0.090,50.000,88.889,380.556,425.000,13.889,J
1338,-0.080,1.535,-0.075,61.111,97.222,322.222,411.111,13.889,J
1339,-0.075,1.565,-0.140,161.111,83.333,294.444,438.889,27.778,J
1340,-0.125,1.435,-0.120,58.333,102.778,386.111,458.333,19.444,J
1341,-0.120,1.450,-0.155,72.222,108.333,325.000,413.889,44.444,J
1342,-0.155,1.265,-0.205,147.222,97.222,286.111,416.667,2.778,J
1343,-0.205,1.385,-0.150,147.222,113.889,400.000,394.444,22.222,J
1344,-0.150,1.505,-0.085,66.667,102.778,322.222,411.111,16.667,J
1345,0.045,1.580,0.070,111.111,91.667,311.111,994.444,583.333,N
1346,0.005,1.580,-0.200,116.667,91.667,319.444,730.556,263.889,N
1347,-0.055,1.375,-0.215,138.889,58.333,322.222,691.667,38.889,N
1348,-0.070,1.445,-0.165,141.667,61.111,322.222,708.333,16.667,N
1349,0.020,1.565,-0.170,116.667,86.111,313.889,697.222,11.111,N
1350,-0.005,1.550,-0.180,127.778,80.556,300.000,686.111,11.111,N
1351,-0.035,1.480,-0.230,133.333,86.111,302.778,666.667,19.444,N
1352,-0.055,1.420,-0.140,130.556,55.556,313.889,677.778,11.111,N
1353,0.035,1.550,-0.185,144.444,58.333,327.778,683.333,5.556,N
1354,-0.070,1.420,-0.240,138.889,91.667,350.000,688.889,5.556,N
1355,-0.100,1.470,-0.220,130.556,83.333,330.556,683.333,5.556,N
1356,-0.060,1.425,-0.125,130.556,55.556,325.000,675.000,8.333,N
1357,0.060,1.565,-0.140,136.111,58.333,319.444,669.444,5.556,N
1358,-0.015,1.470,-0.205,138.889,88.889,322.222,697.222,27.778,N
1359,-0.090,1.390,-0.180,136.111,88.889,322.222,675.000,22.222,N
1360,-0.010,1.515,-0.125,125.000,58.333,316.667,666.667,8.333,N
1361,-0.010,1.470,-0.185,125.000,91.667,313.889,669.444,2.778,N
1362,-0.045,1.495,-0.190,130.556,83.333,297.222,677.778,8.333,N
1363,-0.050,1.485,-0.135,141.667,63.889,341.667,669.444,8.333,N
1364,0.030,1.525,-0.185,136.111,86.111,319.444,677.778,8.333,N
1365,-0.070,1.455,-0.215,130.556,91.667,316.667,672.222,5.556,N
1366,-0.105,1.380,-0.210,130.556,83.333,322.222,658.333,13.889,N
1367,-0.055,1.425,-0.215,136.111,58.333,325.000,669.444,11.111,N
1368,-0.115,1.340,-0.295,144.444,88.889,325.000,700.000,30.556,N
1369,-0.205,1.210,-0.385,130.556,86.111,319.444,669.444,30.556,N
1370,-0.270,1.260,-0.495,125.000,55.556,322.222,666.667,2.778,N
1371,-0.390,1.105,-0.445,130.556,61.111,316.667,669.444,2.778,N
1372,-0.240,1.245,-0.300,127.778,91.667,311.111,677.778,8.333,N
1373,-0.100,1.445,-0.170,133.333,63.889,341.667,672.222,5.556,N
1374,-0.005,1.465,-0.150,144.444,91.667,322.222,683.333,11.111,N
1375,-0.025,1.410,-0.140,127.778,88.889,313.889,666.667,16.667,N
1376,0.025,1.515,-0.095,130.556,52.778,308.333,655.556,11.111,N
1377,0.035,1.525,-0.185,127.778,91.667,333.333,658.333,2.778,N
1378,-0.060,1.330,-0.235,144.444,91.667,319.444,691.667,33.333,N
1379,-0.075,1.385,-0.125,125.000,94.444,347.222,669.444,22.222,N
1380,0.065,1.595,-0.010,125.000,55.556,291.667,650.000,19.444,N
1381,0.155,1.695,-0.010,125.000,88.889,313.889,641.667,8.333,N
1382,0.060,1.470,-0.190,133.333,83.333,308.333,663.889,22.222,N
1383,-0.085,1.280,-0.380,136.111,86.111,330.556,658.333,5.556,N
1384,-0.230,1.185,-0.375,136.111,86.111,336.111,666.667,8.333,N
1385,-0.210,1.190,-0.355,127.778,58.333,300.000,661.111,5.556,N
1386,-0.215,1.240,-0.335,116.667,55.556,322.222,647.222,13.889,N
1387,-0.200,1.280,-0.305,127.778,83.333,336.111,652.778,5.556,N
1388,-0.130,1.330,-0.260,136.111,88.889,325.000,677.778,25.000,N
1389,-0.085,1.375,-0.230,127.778,88.889,322.222,666.667,11.111,N
1390,-0.045,1.390,-0.205,130.556,58.333,305.556,652.778,13.889,N
1391,-0.040,1.355,-0.205,127.778,86.111,305.556,638.889,13.889,N
1392,-0.065,1.435,-0.145,133.333,91.667,311.111,655.556,16.667,N
1393,0.025,1.440,-0.125,136.111,86.111,327.778,647.222,8.333,N
1394,0.015,1.440,-0.160,125.000,88.889,308.333,655.556,8.333,N
1395,0.000,1.490,-0.060,122.222,58.333,319.444,658.333,2.778,N
1396,0.100,1.565,-0.090,125.000,52.778,297.222,647.222,11.111,N
1397,-0.015,1.405,-0.215,133.333,83.333,313.889,644.444,2.778,N
1398,-0.055,1.395,-0.210,133.333,88.889,313.889,666.667,22.222,N
1399,-0.040,1.465,-0.110,127.778,55.556,308.333,666.667,0.000,N
1400,0.075,1.635,-0.055,125.000,72.222,311.111,658.333,8.333,N
1401,0.080,1.545,-0.155,136.111,83.333,294.444,641.667,16.667,N
1402,-0.020,1.490,-0.165,133.333,91.667,313.889,652.778,11.111,N
1403,-0.015,1.515,-0.100,130.556,86.111,322.222,650.000,2.778,N
1404,0.065,1.645,-0.110,133.333,88.889,325.000,669.444,19.444,N
1405,0.000,1.515,-0.215,119.444,55.556,302.778,675.000,5.556,N
1406,-0.075,1.430,-0.210,136.111,88.889,291.667,650.000,25.000,N
1407,-0.020,1.545,-0.080,113.889,88.889,333.333,641.667,8.333,N
1408,0.120,1.600,-0.110,141.667,91.667,319.444,669.444,27.778,N
1409,0.015,1.445,-0.240,127.778,91.667,305.556,677.778,8.333,N
1410,-0.130,1.270,-0.275,119.444,94.444,316.667,661.111,16.667,N
1411,-0.075,1.440,-0.160,133.333,61.111,308.333,641.667,19.444,N
1412,0.015,1.525,-0.170,136.111,83.333,322.222,647.222,5.556,N
1413,-0.025,1.400,-0.225,122.222,58.333,338.889,647.222,0.000,N
1414,-0.090,1.330,-0.205,127.778,88.889,313.889,666.667,19.444,N
1415,-0.030,1.500,-0.105,127.778,58.333,300.000,677.778,11.111,N
1416,0.060,1.595,-0.095,133.333,80.556,327.778,641.667,36.111,N
1417,0.060,1.595,-0.105,111.111,83.333,322.222,636.111,5.556,N
1418,0.035,1.505,-0.155,136.111,91.667,313.889,658.333,22.222,N
1419,-0.005,1.385,-0.135,136.111,86.111,325.000,672.222,13.889,N
1420,0.025,1.585,-0.070,119.444,91.667,313.889,650.000,22.222,N
1421,0.060,1.560,-0.165,127.778,91.667,308.333,633.333,16.667,N
1422,-0.030,1.500,-0.220,136.111,86.111,322.222,652.778,19.444,N
1423,-0.040,1.410,-0.225,127.778,83.333,308.333,650.000,2.778,N
1424,-0.075,1.405,-0.150,119.444,58.333,313.889,658.333,8.333,N
1425,0.030,1.555,-0.130,141.667,88.889,319.444,666.667,8.333,N
1426,0.015,1.515,-0.175,138.889,86.111,327.778,652.778,13.889,N
1427,-0.040,1.450,-0.140,136.111,83.333,316.667,641.667,11.111,N
1428,0.035,1.565,-0.045,136.111,94.444,338.889,652.778,11.111,N
1429,0.160,1.675,0.075,138.889,61.111,308.333,675.000,22.222,N
1430,0.315,1.820,0.095,127.778,88.889,308.333,650.000,25.000,N
1431,0.225,1.740,-0.070,130.556,94.444,302.778,638.889,11.111,N
1432,0.030,1.565,-0.150,130.556,80.556,322.222,644.444,5.556,N
1433,-0.020,1.430,-0.180,127.778,80.556,302.778,661.111,16.667,N
1434,-0.040,1.430,-0.170,138.889,91.667,308.333,655.556,5.556,N
1435,-0.020,1.435,-0.165,136.111,88.889,327.778,652.778,2.778,N
1436,-0.020,1.415,-0.155,130.556,83.333,316.667,652.778,0.000,N
1437,-0.015,1.465,-0.105,127.778,83.333,302.778,641.667,11.111,N
1438,0.080,1.635,-0.010,133.333,61.111,322.222,641.667,0.000,N
1439,0.115,1.650,-0.110,141.667,94.444,316.667,672.222,30.556,N
1440,0.035,1.605,-0.115,122.222,88.889,347.222,669.444,2.778,N
1441,0.025,1.555,-0.135,130.556,80.556,300.000,655.556,13.889,N
1442,0.025,1.580,-0.040,130.556,58.333,305.556,650.000,5.556,N
1443,0.120,1.710,-0.075,136.111,94.444,325.000,658.333,8.333,N
1444,0.055,1.600,-0.120,141.667,86.111,313.889,658.333,0.000,N
1445,0.040,1.525,-0.105,141.667,88.889,322.222,675.000,16.667,N
1446,0.035,1.540,-0.045,122.222,55.556,377.778,672.222,2.778,N
1447,0.155,1.670,-0.060,136.111,91.667,316.667,661.111,11.111,N
1448,0.070,1.535,-0.110,130.556,113.889,352.778,650.000,11.111,N
1449,0.025,1.460,-0.110,133.333,100.000,377.778,672.222,22.222,N
1450,0.060,1.555,0.005,133.333,55.556,311.111,680.556,8.333,N
1451,0.165,1.645,-0.015,127.778,91.667,311.111,672.222,8.333,N
1452,0.085,1.545,-0.055,136.111,86.111,297.222,650.000,22.222,N
1453,0.045,1.405,-0.070,125.000,88.889,305.556,650.000,0.000,N
1454,0.120,1.550,0.085,133.333,61.111,327.778,650.000,0.000,N
1455,0.235,1.655,0.010,138.889,88.889,325.000,672.222,22.222,N
1456,0.110,1.585,-0.050,119.444,83.333,305.556,677.778,5.556,N
1457,0.110,1.530,-0.030,133.333,88.889,297.222,647.222,30.556,N
1458,0.135,1.620,0.055,127.778,61.111,319.444,647.222,0.000,N
1459,0.185,1.640,-0.030,130.556,88.889,316.667,677.778,30.556,N
1460,0.085,1.505,-0.045,130.556,83.333,302.778,688.889,11.111,N
1461,0.055,1.510,-0.075,141.667,88.889,316.667,661.111,27.778,N
1462,0.095,1.650,-0.040,119.444,91.667,305.556,650.000,11.111,N
1463,0.070,1.515,-0.150,133.333,91.667,313.889,658.333,8.333,N
1464,0.005,1.410,-0.155,133.333,88.889,319.444,658.333,0.000,N
1465,-0.010,1.445,-0.105,133.333,86.111,316.667,669.444,11.111,N
1466,0.055,1.585,-0.090,130.556,58.333,302.778,683.333,13.889,N
1467,0.045,1.480,-0.145,133.333,91.667,302.778,644.444,38.889,N
1468,-0.015,1.370,-0.155,127.778,88.889,322.222,644.444,0.000,N
1469,0.040,1.520,-0.040,138.889,91.667,325.000,666.667,22.222,N
1470,0.165,1.615,-0.050,136.111,88.889,302.778,683.333,16.667,N
1471,0.050,1.465,-0.150,119.444,91.667,308.333,652.778,30.556,N
1472,-0.070,1.425,-0.190,133.333,91.667,336.111,636.111,16.667,N
1473,-0.005,1.470,-0.150,130.556,55.556,325.000,647.222,11.111,N
1474,-0.020,1.385,-0.230,130.556,97.222,316.667,652.778,5.556,N
1475,-0.060,1.385,-0.175,138.889,88.889,313.889,658.333,5.556,N
1476,0.020,1.510,-0.120,144.444,91.667,313.889,672.222,13.889,N
1477,0.015,1.485,-0.175,133.333,86.111,311.111,647.222,25.000,N
1478,-0.045,1.450,-0.130,111.111,88.889,322.222,647.222,0.000,N
1479,0.025,1.465,-0.135,130.556,86.111,336.111,647.222,0.000,N
1480,0.065,1.470,-0.010,138.889,66.667,327.778,680.556,33.333,N
1481,0.185,1.705,0.175,125.000,55.556,341.667,652.778,27.778,N
1482,0.325,1.880,0.230,111.111,88.889,316.667,647.222,5.556,N
1483,0.305,1.755,0.050,127.778,58.333,313.889,650.000,2.778,N
1484,0.125,1.530,-0.145,133.333,63.889,308.333,666.667,16.667,N
1485,-0.040,1.280,-0.175,133.333,91.667,325.000,652.778,13.889,N
1486,-0.015,1.365,-0.135,136.111,83.333,338.889,663.889,11.111,N
1487,0.010,1.380,-0.170,130.556,88.889,302.778,666.667,2.778,N
1488,-0.015,1.385,-0.105,130.556,80.556,308.333,658.333,8.333,N
1489,0.060,1.515,0.030,130.556,83.333,322.222,644.444,13.889,N
1490,0.200,1.645,-0.010,144.444,91.667,341.667,675.000,30.556,N
1491,0.170,1.555,-0.065,113.889,86.111,319.444,666.667,8.333,N
1492,0.085,1.435,-0.130,133.333,61.111,375.000,661.111,5.556,N
1493,0.005,1.395,-0.140,130.556,66.667,319.444,644.444,16.667,N
1494,0.035,1.360,-0.095,133.333,91.667,313.889,669.444,25.000,N
1495,0.055,1.560,-0.070,141.667,102.778,319.444,666.667,2.778,N
1496,0.090,1.530,-0.150,141.667,88.889,327.778,675.000,8.333,N
1497,-0.005,1.430,-0.175,125.000,55.556,327.778,672.222,2.778,N
1498,-0.030,1.325,-0.185,133.333,83.333,311.111,677.778,5.556,N
1499,-0.040,1.400,-0.180,133.333,88.889,341.667,658.333,19.444,N
1500,0.025,1.525,-0.115,138.889,105.556,344.444,694.444,36.111,N
1501,0.020,1.510,-0.170,127.778,88.889,311.111,683.333,11.111,N
1502,-0.025,1.455,-0.310,127.778,83.333,300.000,677.778,5.556,N
1503,-0.115,1.325,-0.295,130.556,83.333,319.444,663.889,13.889,N
1504,-0.180,1.275,-0.285,133.333,86.111,325.000,680.556,16.667,N
1505,-0.125,1.420,-0.185,141.667,86.111,322.222,669.444,11.111,N
1506,-0.050,1.445,-0.165,138.889,91.667,338.889,683.333,13.889,N
1507,-0.010,1.490,-0.160,127.778,55.556,294.444,672.222,11.111,N
1508,-0.005,1.485,-0.150,127.778,86.111,302.778,666.667,5.556,N
1509,0.000,1.465,-0.115,136.111,58.333,322.222,652.778,13.889,N
1510,0.010,1.545,-0.130,147.222,86.111,330.556,680.556,27.778,N
1511,0.025,1.525,-0.055,130.556,63.889,344.444,661.111,19.444,N
1512,0.095,1.635,-0.045,127.778,83.333,300.000,666.667,5.556,N
1513,0.090,1.650,-0.145,113.889,88.889,258.333,652.778,13.889,N
1514,-0.005,1.430,-0.200,138.889,91.667,313.889,663.889,11.111,N
1515,-0.040,1.435,-0.185,136.111,88.889,336.111,652.778,11.111,N
1516,-0.045,1.425,-0.195,136.111,86.111,330.556,675.000,22.222,N
1517,-0.065,1.410,-0.170,136.111,77.778,305.556,672.222,2.778,N
1518,0.010,1.470,-0.055,133.333,86.111,355.556,661.111,11.111,N
1519,0.180,1.740,0.215,133.333,88.889,350.000,647.222,13.889,N
1520,0.325,1.735,-0.070,138.889,88.889,330.556,683.333,36.111,N
1521,-0.015,1.390,-0.285,136.111,80.556,313.889,677.778,5.556,N
1522,-0.165,1.205,-0.285,130.556,88.889,322.222,666.667,11.111,N
1523,-0.095,1.280,-0.125,130.556,88.889,305.556,650.000,16.667,N
1524,0.075,1.485,-0.105,130.556,91.667,313.889,663.889,13.889,N
1525,0.005,1.385,-0.210,133.333,86.111,330.556,652.778,11.111,N
1526,-0.050,1.345,-0.200,141.667,91.667,341.667,675.000,22.222,N
1527,-0.015,1.415,-0.120,119.444,55.556,311.111,663.889,11.111,N
1528,0.055,1.470,-0.175,133.333,80.556,297.222,650.000,13.889,N
1529,-0.035,1.395,-0.215,136.111,88.889,313.889,641.667,8.333,N
1530,-0.080,1.310,-0.230,136.111,91.667,338.889,680.556,38.889,N
1531,-0.040,1.300,-0.145,133.333,83.333,316.667,677.778,2.778,N
1532,0.030,1.480,-0.085,133.333,86.111,305.556,661.111,16.667,N
1533,0.105,1.530,-0.125,136.111,80.556,300.000,641.667,19.444,N
1534,0.015,1.365,-0.200,133.333,91.667,338.889,658.333,16.667,N
1535,-0.045,1.355,-0.170,136.111,91.667,347.222,652.778,5.556,N
1536,-0.010,1.445,-0.080,119.444,61.111,347.222,669.444,16.667,N
1537,0.085,1.575,-0.145,127.778,94.444,336.111,677.778,8.333,N
1538,0.000,1.460,-0.155,133.333,88.889,302.778,658.333,19.444,N
1539,-0.020,1.405,-0.145,127.778,80.556,325.000,644.444,13.889,N
1540,0.040,1.500,-0.055,138.889,86.111,330.556,675.000,30.556,N
1541,0.120,1.540,-0.095,127.778,91.667,305.556,686.111,11.111,N
1542,0.065,1.520,-0.100,136.111,88.889,305.556,672.222,13.889,N
1543,0.060,1.505,-0.070,136.111,88.889,308.333,644.444,27.778,N
1544,0.110,1.625,0.045,130.556,91.667,333.333,652.778,8.333,N
1545,0.215,1.700,0.010,116.667,91.667,319.444,652.778,0.000,N
1546,0.140,1.570,-0.030,130.556,86.111,313.889,669.444,16.667,N
1547,0.120,1.505,-0.025,127.778,91.667,313.889,677.778,8.333,N
1548,0.160,1.595,0.110,136.111,91.667,327.778,655.556,22.222,N
1549,0.250,1.720,0.020,127.778,86.111,336.111,647.222,8.333,N
1550,0.165,1.590,-0.035,130.556,88.889,327.778,669.444,22.222,N
1551,0.110,1.580,-0.035,136.111,80.556,313.889,680.556,11.111,N
1552,0.150,1.645,0.015,138.889,88.889,316.667,663.889,16.667,N
1553,0.125,1.590,-0.110,127.778,91.667,316.667,647.222,16.667,N
1554,0.020,1.420,-0.165,138.889,88.889,322.222,655.556,8.333,N
1555,-0.030,1.415,-0.205,130.556,80.556,325.000,658.333,2.778,N
1556,-0.045,1.365,-0.185,138.889,88.889,341.667,677.778,19.444,N
1557,-0.045,1.405,-0.170,127.778,105.556,319.444,686.111,8.333,N
1558,-0.035,1.420,-0.150,133.333,86.111,322.222,652.778,33.333,N
1559,0.040,1.545,-0.155,130.556,83.333,319.444,647.222,5.556,N
1560,0.005,1.485,-0.165,136.111,105.556,377.778,669.444,22.222,N
1561,-0.020,1.415,-0.195,130.556,88.889,313.889,680.556,11.111,N
1562,0.010,1.435,-0.155,136.111,86.111,327.778,650.000,30.556,N
1563,0.015,1.490,-0.140,130.556,83.333,325.000,636.111,13.889,N
1564,-0.025,1.365,-0.245,136.111,88.889,333.333,641.667,5.556,N
1565,-0.105,1.285,-0.290,127.778,83.333,308.333,647.222,5.556,N
1566,-0.130,1.340,-0.225,127.778,88.889,311.111,661.111,13.889,N
1567,-0.065,1.425,-0.155,136.111,88.889,311.111,672.222,11.111,N
1568,0.015,1.380,-0.135,136.111,102.778,347.222,641.667,30.556,N
1569,0.015,1.340,-0.145,133.333,80.556,322.222,641.667,0.000,N
1570,0.020,1.435,-0.100,136.111,91.667,338.889,652.778,11.111,N
1571,0.115,1.615,-0.005,141.667,86.111,344.444,686.111,33.333,N
1572,0.180,1.675,-0.055,138.889,91.667,311.111,647.222,38.889,N
1573,0.005,1.375,-0.215,108.333,88.889,327.778,644.444,2.778,N
1574,-0.095,1.270,-0.190,130.556,97.222,341.667,655.556,11.111,N
1575,-0.045,1.385,-0.040,122.222,91.667,319.444,658.333,2.778,N
1576,0.150,1.690,0.080,116.667,86.111,325.000,658.333,0.000,N
1577,0.280,1.805,0.045,136.111,94.444,319.444,672.222,13.889,N
1578,0.155,0.960,0.310,58.333,116.667,116.667,458.333,213.889,V
1579,0.010,1.470,-0.065,122.222,91.667,311.111,847.222,388.889,N
1580,-0.035,1.440,-0.170,133.333,86.111,325.000,650.000,197.222,N
1581,0.010,1.480,-0.075,138.889,86.111,319.444,677.778,27.778,N
1582,0.105,1.570,-0.025,127.778,91.667,369.444,644.444,33.333,N
1583,0.155,1.740,-0.015,105.556,86.111,322.222,644.444,0.000,N
1584,0.100,1.630,-0.130,113.889,77.778,319.444,638.889,5.556,N
1585,0.035,1.550,-0.185,133.333,80.556,294.444,661.111,22.222,N
1586,-0.040,1.325,-0.305,136.111,88.889,319.444,644.444,16.667,N
1587,-0.155,1.250,-0.285,138.889,91.667,322.222,663.889,19.444,N
1588,-0.105,1.390,-0.225,127.778,58.333,330.556,650.000,13.889,N
1589,-0.035,1.405,-0.175,119.444,58.333,308.333,655.556,5.556,N
1590,-0.030,1.460,-0.255,125.000,88.889,311.111,638.889,16.667,N
1591,-0.120,1.400,-0.300,133.333,88.889,330.556,677.778,38.889,N
1592,-0.185,1.365,-0.340,130.556,86.111,313.889,672.222,5.556,N
1593,-0.110,1.440,-0.195,133.333,80.556,297.222,661.111,11.111,N
1594,-0.015,1.520,-0.250,133.333,77.778,297.222,630.556,30.556,N
1595,-0.095,1.440,-0.300,144.444,91.667,311.111,652.778,22.222,N
1596,-0.140,1.390,-0.295,127.778,88.889,336.111,644.444,8.333,N
1597,-0.130,1.355,-0.235,138.889,91.667,327.778,661.111,16.667,N
1598,-0.045,1.505,-0.180,116.667,58.333,308.333,661.111,0.000,N
1599,-0.005,1.490,-0.220,133.333,88.889,308.333,641.667,19.444,N
1600,-0.075,1.410,-0.240,119.444,88.889,311.111,630.556,11.111,N
1601,-0.070,1.415,-0.225,138.889,91.667,350.000,655.556,25.000,N
1602,-0.085,1.325,-0.230,133.333,91.667,313.889,672.222,16.667,N
1603,-0.075,1.370,-0.230,136.111,91.667,327.778,652.778,19.444,N
1604,-0.085,1.345,-0.225,130.556,86.111,322.222,627.778,25.000,N
1605,-0.075,1.320,-0.220,136.111,88.889,330.556,641.667,13.889,N
1606,-0.085,1.360,-0.215,116.667,88.889,316.667,644.444,2.778,N
1607,-0.055,1.315,-0.190,133.333,88.889,319.444,661.111,16.667,N
1608,-0.005,1.445,-0.140,138.889,86.111,336.111,663.889,2.778,N
1609,-0.010,1.415,-0.150,125.000,86.111,319.444,638.889,25.000,N
1610,0.015,1.455,-0.145,125.000,88.889,305.556,641.667,2.778,N
1611,0.045,1.495,-0.035,130.556,86.111,327.778,644.444,2.778,N
1612,0.180,1.630,0.055,130.556,88.889,341.667,666.667,22.222,N
1613,0.240,1.710,0.040,130.556,86.111,336.111,636.111,30.556,N
1614,0.150,1.620,-0.065,108.333,77.778,322.222,644.444,8.333,N
1615,0.050,1.485,-0.115,127.778,88.889,313.889,636.111,8.333,N
1616,0.050,1.435,-0.240,130.556,83.333,311.111,647.222,11.111,N
1617,-0.130,1.295,-0.290,133.333,97.222,338.889,633.333,13.889,N
1618,-0.070,1.420,-0.135,127.778,66.667,333.333,652.778,19.444,N
1619,0.055,1.500,-0.170,127.778,66.667,316.667,644.444,8.333,N
1620,-0.090,1.355,-0.385,136.111,58.333,311.111,652.778,8.333,N
1621,-0.235,1.205,-0.475,116.667,86.111,327.778,630.556,22.222,N
1622,-0.380,0.975,-0.560,138.889,91.667,347.222,672.222,41.667,N
1623,-0.395,1.130,-0.405,111.111,86.111,377.778,661.111,11.111,N
1624,-0.155,1.375,-0.270,138.889,83.333,313.889,663.889,2.778,N
1625,-0.100,1.400,-0.270,133.333,88.889,308.333,644.444,19.444,N
1626,-0.140,1.245,-0.430,141.667,94.444,319.444,663.889,19.444,N
1627,-0.260,1.150,-0.320,133.333,83.333,327.778,655.556,8.333,N
1628,-0.095,1.335,-0.220,116.667,91.667,325.000,677.778,22.222,N
1629,-0.055,1.375,-0.210,130.556,94.444,336.111,686.111,8.333,N
1630,-0.025,1.330,-0.240,133.333,86.111,311.111,661.111,25.000,N
1631,-0.065,1.330,-0.230,130.556,80.556,327.778,638.889,22.222,N
1632,-0.065,1.355,-0.195,136.111,88.889,325.000,677.778,38.889,N
1633,0.005,1.555,-0.115,130.556,80.556,322.222,686.111,8.333,N
1634,0.085,1.540,-0.110,130.556,83.333,305.556,663.889,22.222,N
1635,0.075,1.440,-0.180,130.556,83.333,325.000,638.889,25.000,N
1636,-0.045,1.400,-0.215,116.667,91.667,344.444,658.333,19.444,N
1637,-0.050,1.330,-0.180,113.889,86.111,325.000,652.778,5.556,N
1638,0.005,1.430,-0.155,127.778,91.667,316.667,675.000,22.222,N
1639,0.065,1.555,-0.170,136.111,86.111,305.556,675.000,0.000,N
1640,-0.040,1.350,-0.220,119.444,88.889,311.111,661.111,13.889,N
1641,-0.095,1.245,-0.195,130.556,77.778,319.444,650.000,11.111,N
1642,-0.045,1.335,-0.135,133.333,91.667,333.333,677.778,27.778,N
1643,0.030,1.440,-0.100,130.556,86.111,322.222,688.889,11.111,N
1644,0.020,1.395,-0.185,127.778,88.889,316.667,672.222,16.667,N
1645,-0.010,1.350,-0.210,130.556,83.333,333.333,650.000,22.222,N
1646,-0.045,1.275,-0.185,133.333,86.111,330.556,675.000,25.000,N
1647,-0.015,1.425,-0.115,130.556,83.333,330.556,663.889,11.111,N
1648,0.030,1.530,-0.185,111.111,88.889,319.444,677.778,13.889,N
1649,-0.010,1.380,-0.200,127.778,86.111,297.222,686.111,8.333,N
1650,-0.040,1.315,-0.215,130.556,88.889,311.111,661.111,25.000,N
1651,-0.065,1.335,-0.175,116.667,86.111,316.667,652.778,8.333,N
1652,-0.005,1.510,-0.170,125.000,88.889,344.444,680.556,27.778,N
1653,-0.015,1.430,-0.225,111.111,86.111,325.000,680.556,0.000,N
1654,-0.075,1.255,-0.265,119.444,88.889,313.889,677.778,2.778,N
1655,-0.090,1.360,-0.215,130.556,108.333,355.556,650.000,27.778,N
1656,-0.015,1.485,-0.220,130.556,80.556,319.444,666.667,16.667,N
1657,-0.070,1.340,-0.295,127.778,97.222,344.444,663.889,2.778,N
1658,-0.155,1.195,-0.355,127.778,91.667,341.667,694.444,30.556,N
1659,-0.230,1.235,-0.350,113.889,91.667,294.444,688.889,5.556,N
1660,-0.155,1.330,-0.300,116.667,91.667,319.444,666.667,22.222,N
1661,-0.125,1.425,-0.245,133.333,83.333,330.556,655.556,11.111,N
1662,-0.110,1.290,-0.225,130.556,91.667,344.444,683.333,27.778,N
1663,-0.080,1.360,-0.210,133.333,80.556,325.000,691.667,8.333,N
1664,-0.045,1.465,-0.150,125.000,88.889,341.667,677.778,13.889,N
1665,0.040,1.615,-0.075,138.889,91.667,327.778,650.000,27.778,N
1666,0.125,1.685,-0.090,133.333,86.111,327.778,663.889,13.889,N
1667,0.105,1.575,-0.090,127.778,88.889,336.111,652.778,11.111,N
1668,0.090,1.475,-0.070,133.333,88.889,322.222,680.556,27.778,N
1669,0.070,1.440,-0.095,130.556,55.556,313.889,686.111,5.556,N
1670,0.050,1.495,-0.110,133.333,86.111,319.444,655.556,30.556,N
1671,0.065,1.525,-0.075,122.222,83.333,313.889,638.889,16.667,N
1672,0.105,1.530,-0.045,141.667,88.889,338.889,677.778,38.889,N
1673,0.120,1.560,-0.040,133.333,86.111,302.778,672.222,5.556,N
1674,0.135,1.610,-0.030,127.778,88.889,308.333,658.333,13.889,N
1675,0.130,1.585,-0.060,133.333,88.889,313.889,633.333,25.000,N
1676,0.105,1.515,-0.055,136.111,83.333,322.222,652.778,19.444,N
1677,0.085,1.540,0.010,125.000,91.667,347.222,641.667,11.111,N
1678,0.180,1.790,0.005,119.444,88.889,330.556,658.333,16.667,N
1679,0.135,1.655,-0.070,127.778,80.556,319.444,666.667,8.333,N
1680,0.075,1.545,-0.140,127.778,91.667,338.889,647.222,19.444,N
1681,0.050,1.485,-0.100,125.000,86.111,325.000,638.889,8.333,N
1682,0.040,1.355,-0.205,138.889,80.556,325.000,672.222,33.333,N
1683,-0.115,1.255,-0.225,133.333,83.333,319.444,691.667,19.444,N
1684,-0.070,1.400,-0.105,122.222,61.111,313.889,661.111,30.556,N
1685,0.110,1.595,0.085,125.000,61.111,333.333,636.111,25.000,N
1686,0.265,1.785,0.050,119.444,66.667,327.778,661.111,25.000,N
1687,0.135,1.610,-0.150,113.889,83.333,316.667,658.333,2.778,N
1688,-0.015,1.445,-0.260,130.556,58.333,311.111,675.000,16.667,N
1689,-0.125,1.380,-0.315,130.556,97.222,338.889,675.000,0.000,N
1690,-0.200,1.260,-0.325,136.111,91.667,330.556,655.556,19.444,N
1691,-0.155,1.340,-0.250,130.556,55.556,325.000,652.778,2.778,N
1692,-0.095,1.355,-0.260,130.556,91.667,336.111,663.889,11.111,N
1693,-0.090,1.470,-0.170,133.333,61.111,336.111,694.444,30.556,N
1694,0.000,1.510,-0.145,130.556,91.667,341.667,666.667,27.778,N
1695,0.015,1.565,-0.180,125.000,91.667,325.000,652.778,13.889,N
1696,-0.025,1.530,-0.195,138.889,83.333,325.000,663.889,11.111,N
1697,-0.035,1.455,-0.195,125.000,75.000,322.222,663.889,0.000,N
1698,-0.050,1.465,-0.165,127.778,58.333,341.667,683.333,19.444,N
1699,-0.020,1.450,-0.145,122.222,91.667,319.444,694.444,11.111,N
1700,-0.010,1.480,-0.140,138.889,61.111,319.444,663.889,30.556,N
1701,0.000,1.435,-0.090,125.000,77.778,338.889,658.333,5.556,N
1702,0.105,1.585,-0.005,138.889,61.111,313.889,677.778,19.444,N
1703,0.150,1.625,-0.075,133.333,88.889,316.667,691.667,13.889,N
1704,0.055,1.540,-0.110,138.889,91.667,311.111,677.778,13.889,N
1705,0.035,1.505,-0.105,133.333,97.222,333.333,647.222,30.556,N
1706,0.115,1.620,0.045,130.556,66.667,344.444,661.111,13.889,N
1707,0.295,1.835,0.070,119.444,88.889,325.000,658.333,2.778,N
1708,0.170,1.740,-0.070,130.556,111.111,375.000,686.111,27.778,N
1709,0.065,1.575,-0.115,133.333,97.222,316.667,680.556,5.556,N
1710,0.020,1.490,-0.055,136.111,91.667,325.000,661.111,19.444,N
1711,0.145,1.725,-0.005,127.778,75.000,352.778,647.222,13.889,N
1712,0.090,1.610,-0.165,136.111,88.889,325.000,677.778,30.556,N
1713,-0.055,1.385,-0.295,130.556,97.222,313.889,688.889,11.111,N
1714,-0.135,1.320,-0.210,136.111,94.444,383.333,661.111,27.778,N
1715,-0.005,1.515,-0.080,125.000,55.556,330.556,638.889,22.222,N
1716,0.090,1.530,-0.160,130.556,100.000,325.000,663.889,25.000,N
1717,-0.035,1.405,-0.270,119.444,91.667,313.889,658.333,5.556,N
1718,-0.120,1.285,-0.220,127.778,88.889,347.222,672.222,13.889,N
1719,-0.020,1.460,-0.155,138.889,58.333,322.222,680.556,8.333,N
1720,-0.020,1.335,-0.270,125.000,86.111,311.111,652.778,27.778,N
1721,-0.135,1.270,-0.295,130.556,86.111,305.556,647.222,5.556,N
1722,-0.100,1.330,-0.185,138.889,86.111,327.778,666.667,19.444,N
1723,-0.005,1.425,-0.230,122.222,86.111,308.333,683.333,16.667,N
1724,-0.120,1.295,-0.320,138.889,91.667,316.667,666.667,16.667,N
1725,-0.170,1.280,-0.275,127.778,91.667,336.111,647.222,19.444,N
1726,-0.070,1.350,-0.185,125.000,88.889,338.889,661.111,13.889,N
1727,-0.025,1.455,-0.250,125.000,83.333,322.222,661.111,0.000,N
1728,-0.120,1.375,-0.320,130.556,88.889,302.778,672.222,11.111,N
1729,-0.140,1.305,-0.235,136.111,86.111,325.000,677.778,5.556,N
1730,-0.060,1.470,-0.270,130.556,108.333,338.889,663.889,13.889,N
1731,-0.115,1.380,-0.350,127.778,86.111,308.333,652.778,11.111,N
1732,-0.210,1.235,-0.315,133.333,91.667,319.444,663.889,11.111,N
1733,-0.055,1.430,-0.115,136.111,61.111,325.000,688.889,25.000,N
1734,0.020,1.550,-0.175,141.667,88.889,347.222,675.000,13.889,N
1735,-0.020,1.545,-0.170,125.000,83.333,325.000,655.556,19.444,N
1736,0.015,1.505,-0.180,130.556,88.889,338.889,661.111,5.556,N
1737,-0.045,1.440,-0.155,125.000,102.778,347.222,672.222,11.111,N
1738,0.020,1.535,-0.060,138.889,58.333,322.222,677.778,5.556,N
1739,0.110,1.670,-0.140,130.556,88.889,344.444,677.778,0.000,N
1740,-0.005,1.530,-0.235,127.778,86.111,316.667,663.889,13.889,N
1741,-0.105,1.420,-0.260,116.667,83.333,305.556,658.333,5.556,N
1742,-0.100,1.385,-0.200,138.889,94.444,325.000,666.667,8.333,N
1743,0.010,1.530,-0.130,136.111,83.333,322.222,691.667,25.000,N
1744,-0.010,1.620,-0.220,138.889,83.333,313.889,672.222,19.444,N
1745,-0.055,1.455,-0.240,122.222,88.889,336.111,647.222,25.000,N
1746,-0.105,1.410,-0.225,136.111,88.889,322.222,655.556,8.333,N
1747,-0.060,1.470,-0.200,116.667,80.556,316.667,663.889,8.333,N
1748,-0.060,1.510,-0.240,122.222,94.444,316.667,677.778,13.889,N
1749,-0.085,1.470,-0.255,136.111,86.111,330.556,675.000,2.778,N
1750,-0.115,1.450,-0.220,130.556,91.667,316.667,652.778,22.222,N
1751,-0.080,1.445,-0.185,122.222,102.778,352.778,652.778,0.000,N
1752,-0.020,1.525,-0.200,138.889,86.111,327.778,666.667,13.889,N
1753,-0.085,1.445,-0.270,138.889,91.667,311.111,686.111,19.444,N
1754,-0.140,1.405,-0.265,125.000,88.889,336.111,666.667,19.444,N
1755,-0.100,1.385,-0.230,125.000,55.556,347.222,655.556,11.111,N
1756,-0.065,1.490,-0.230,127.778,77.778,322.222,655.556,0.000,N
1757,-0.065,1.450,-0.230,127.778,83.333,305.556,661.111,5.556,N
1758,-0.120,1.395,-0.235,138.889,94.444,308.333,663.889,2.778,N
1759,-0.070,1.445,-0.190,136.111,91.667,347.222,666.667,2.778,N
1760,-0.055,1.450,-0.165,127.778,83.333,316.667,661.111,5.556,N
1761,0.035,1.485,-0.075,130.556,52.778,297.222,650.000,11.111,N
1762,0.125,1.665,0.050,133.333,88.889,313.889,644.444,5.556,N
1763,0.200,1.695,-0.015,136.111,88.889,325.000,666.667,22.222,N
1764,0.040,1.490,-0.210,127.778,86.111,361.111,655.556,11.111,N
1765,-0.085,1.455,-0.210,127.778,91.667,313.889,655.556,0.000,N
1766,-0.030,1.500,-0.120,133.333,55.556,325.000,644.444,11.111,N
1767,0.040,1.595,-0.045,130.556,91.667,316.667,647.222,2.778,N
1768,0.125,1.685,-0.115,133.333,97.222,316.667,644.444,2.778,N
1769,0.040,1.550,-0.200,125.000,94.444,344.444,663.889,19.444,N
1770,-0.025,1.505,-0.145,133.333,80.556,302.778,675.000,11.111,N
1771,0.025,1.540,-0.050,138.889,58.333,319.444,652.778,22.222,N
1772,0.115,1.635,-0.030,113.889,88.889,350.000,633.333,19.444,N
1773,0.085,1.640,-0.110,125.000,91.667,347.222,675.000,41.667,N
1774,0.020,1.510,-0.155,130.556,91.667,341.667,669.444,5.556,N
1775,-0.005,1.505,-0.105,136.111,86.111,308.333,652.778,16.667,N
1776,0.090,1.640,-0.045,136.111,88.889,319.444,630.556,22.222,N
1777,0.145,1.740,-0.095,125.000,88.889,305.556,652.778,22.222,N
1778,0.060,1.590,-0.185,119.444,91.667,316.667,652.778,0.000,N
1779,-0.080,1.420,-0.290,130.556,80.556,313.889,661.111,8.333,N
1780,-0.090,1.335,-0.240,138.889,86.111,377.778,669.444,8.333,N
1781,-0.020,1.500,-0.175,127.778,91.667,380.556,644.444,25.000,N
1782,-0.005,1.635,-0.155,119.444,91.667,305.556,633.333,11.111,N
1783,0.070,1.650,-0.055,127.778,77.778,400.000,658.333,25.000,N
1784,0.165,1.550,-0.165,136.111,100.000,319.444,680.556,22.222,N
1785,-0.050,1.350,-0.350,127.778,66.667,80.556,663.889,16.667,N
1786,-0.230,1.195,-0.440,130.556,113.889,380.556,644.444,19.444,N
1787,-0.275,1.120,-0.430,133.333,61.111,336.111,666.667,22.222,N
1788,-0.255,1.120,-0.395,125.000,58.333,358.333,669.444,2.778,N
1789,-0.210,1.245,-0.315,130.556,88.889,336.111,686.111,16.667,N
1790,-0.115,1.295,-0.300,122.222,88.889,325.000,694.444,8.333,N
1791,-0.110,1.300,-0.305,122.222,91.667,319.444,669.444,25.000,N
1792,-0.160,1.265,-0.290,122.222,58.333,311.111,663.889,5.556,N
1793,-0.135,1.280,-0.275,130.556,91.667,333.333,669.444,5.556,N
1794,-0.130,1.310,-0.255,138.889,88.889,316.667,694.444,25.000,N
1795,-0.080,1.415,-0.160,141.667,97.222,344.444,675.000,19.444,N
1796,-0.020,1.415,-0.135,122.222,83.333,325.000,650.000,25.000,N
1797,-0.010,1.395,-0.160,119.444,86.111,322.222,663.889,13.889,N
1798,0.010,1.485,-0.155,133.333,86.111,330.556,663.889,0.000,N
1799,-0.025,1.390,-0.160,133.333,86.111,316.667,675.000,11.111,N
1800,-0.015,1.450,-0.160,138.889,91.667,311.111,686.111,11.111,N
1801,-0.035,1.380,-0.145,127.778,88.889,311.111,658.333,27.778,N
1802,-0.050,1.395,-0.180,119.444,83.333,316.667,655.556,2.778,N
1803,-0.045,1.360,-0.170,141.667,88.889,336.111,677.778,22.222,N
1804,-0.045,1.425,-0.145,141.667,91.667,330.556,694.444,16.667,N
1805,0.000,1.480,-0.120,133.333,88.889,311.111,677.778,16.667,N
1806,0.015,1.470,-0.130,136.111,91.667,319.444,655.556,22.222,N
1807,0.020,1.445,-0.160,133.333,88.889,330.556,663.889,8.333,N
1808,-0.030,1.465,-0.155,125.000,83.333,338.889,663.889,0.000,N
1809,0.020,1.565,-0.045,130.556,88.889,338.889,688.889,25.000,N
1810,0.080,1.640,-0.150,127.778,83.333,341.667,694.444,5.556,N
1811,-0.055,1.420,-0.270,138.889,102.778,319.444,658.333,36.111,N
1812,-0.145,1.340,-0.295,141.667,83.333,330.556,655.556,2.778,N
1813,-0.110,1.355,-0.195,141.667,91.667,325.000,680.556,25.000,N
1814,0.005,1.520,-0.080,133.333,72.222,322.222,691.667,11.111,N
1815,0.115,1.655,-0.060,136.111,88.889,286.111,666.667,25.000,N
1816,0.030,1.550,-0.170,133.333,94.444,333.333,650.000,16.667,N
1817,-0.100,1.430,-0.410,122.222,97.222,322.222,661.111,11.111,N
1818,-0.360,1.075,-0.455,113.889,83.333,338.889,658.333,2.778,N
1819,-0.205,1.290,-0.235,130.556,86.111,316.667,677.778,19.444,N
1820,-0.005,1.480,-0.210,136.111,88.889,300.000,686.111,8.333,N
1821,-0.080,1.410,-0.290,136.111,102.778,319.444,658.333,27.778,N
1822,-0.165,1.250,-0.425,122.222,83.333,344.444,647.222,11.111,N
1823,-0.245,1.200,-0.350,125.000,86.111,327.778,680.556,33.333,N
1824,-0.145,1.300,-0.270,113.889,58.333,297.222,683.333,2.778,N
1825,-0.075,1.390,-0.200,138.889,80.556,325.000,663.889,19.444,N
1826,-0.040,1.440,-0.075,122.222,63.889,319.444,644.444,19.444,N
1827,0.135,1.630,-0.040,141.667,91.667,319.444,658.333,13.889,N
1828,0.105,1.645,-0.155,130.556,91.667,313.889,652.778,5.556,N
1829,0.000,1.530,-0.205,127.778,97.222,322.222,663.889,11.111,N
1830,-0.075,1.425,-0.225,136.111,91.667,322.222,683.333,19.444,N
1831,-0.060,1.390,-0.190,136.111,77.778,302.778,661.111,22.222,N
1832,-0.025,1.435,-0.145,125.000,86.111,311.111,647.222,13.889,N
1833,-0.005,1.475,-0.130,122.222,91.667,344.444,669.444,22.222,N
1834,0.015,1.415,-0.120,136.111,88.889,313.889,691.667,22.222,N
1835,0.015,1.520,-0.125,136.111,88.889,319.444,663.889,27.778,N
1836,-0.030,1.425,-0.175,130.556,91.667,311.111,644.444,19.444,N
1837,0.020,1.525,0.005,127.778,61.111,325.000,658.333,13.889,N
1838,0.225,1.780,0.015,133.333,88.889,333.333,661.111,2.778,N
1839,0.140,1.675,-0.055,122.222,83.333,327.778,677.778,16.667,N
1840,0.130,1.705,-0.025,141.667,86.111,330.556,691.667,13.889,N
1841,0.125,1.525,-0.100,133.333,88.889,300.000,658.333,33.333,N
1842,-0.025,1.405,-0.175,122.222,83.333,311.111,652.778,5.556,N
1843,-0.030,1.475,-0.225,136.111,91.667,325.000,677.778,25.000,N
1844,-0.075,1.415,-0.255,130.556,91.667,336.111,697.222,19.444,N
1845,-0.085,1.380,-0.225,138.889,113.889,350.000,675.000,22.222,N
1846,-0.070,1.400,-0.195,138.889,86.111,316.667,644.444,30.556,N
1847,-0.025,1.485,-0.185,133.333,102.778,319.444,652.778,8.333,N
1848,-0.020,1.490,-0.140,130.556,91.667,372.222,658.333,5.556,N
1849,0.040,1.660,-0.105,125.000,91.667,338.889,672.222,13.889,N
1850,0.035,1.655,-0.170,138.889,97.222,300.000,683.333,11.111,N
1851,0.020,1.640,-0.215,130.556,88.889,300.000,655.556,27.778,N
1852,-0.040,1.410,-0.320,127.778,91.667,316.667,658.333,2.778,N
1853,-0.165,1.195,-0.305,138.889,88.889,313.889,686.111,27.778,N
1854,-0.180,1.205,-0.255,136.111,83.333,305.556,702.778,16.667,N
1855,-0.110,1.315,-0.210,136.111,86.111,300.000,686.111,16.667,N
1856,-0.050,1.345,-0.165,138.889,86.111,313.889,675.000,11.111,N
1857,0.015,1.420,-0.090,138.889,91.667,311.111,686.111,11.111,N
1858,0.065,1.485,-0.070,138.889,94.444,336.111,672.222,13.889,N
1859,0.055,1.430,-0.095,127.778,88.889,333.333,691.667,19.444,N
1860,0.055,1.440,-0.120,125.000,88.889,313.889,691.667,0.000,N
1861,0.065,1.565,-0.030,127.778,88.889,311.111,669.444,22.222,N
1862,0.195,1.760,0.010,122.222,86.111,336.111,666.667,2.778,N
1863,0.175,1.755,-0.055,138.889,88.889,319.444,691.667,25.000,N
1864,0.135,1.645,-0.135,133.333,86.111,319.444,688.889,2.778,N
1865,0.025,1.450,-0.140,125.000,86.111,300.000,675.000,13.889,N
1866,-0.005,1.365,-0.155,136.111,86.111,316.667,675.000,0.000,N
1867,-0.015,1.390,-0.105,130.556,88.889,313.889,677.778,2.778,N
1868,0.045,1.555,-0.050,136.111,94.444,338.889,669.444,8.333,N
1869,0.140,1.670,-0.065,141.667,80.556,322.222,683.333,13.889,N
1870,0.115,1.530,-0.120,125.000,91.667,313.889,677.778,5.556,N
1871,0.075,1.445,-0.165,127.778,88.889,305.556,663.889,13.889,N
1872,-0.025,1.310,-0.185,133.333,80.556,325.000,655.556,8.333,N
1873,-0.035,1.290,-0.180,127.778,94.444,341.667,683.333,27.778,N
1874,-0.060,1.405,-0.205,111.111,86.111,327.778,683.333,0.000,N
1875,-0.005,1.525,-0.205,119.444,83.333,291.667,672.222,11.111,N
1876,-0.015,1.385,-0.210,133.333,100.000,338.889,652.778,19.444,N
1877,-0.035,1.380,-0.190,136.111,91.667,311.111,666.667,13.889,N
1878,-0.015,1.480,-0.115,119.444,91.667,313.889,658.333,8.333,N
1879,0.100,1.625,-0.120,130.556,91.667,311.111,669.444,11.111,N
1880,0.065,1.570,-0.140,127.778,83.333,316.667,680.556,11.111,N
1881,0.025,1.500,-0.130,122.222,83.333,300.000,658.333,22.222,N
1882,-0.010,1.390,-0.185,127.778,83.333,322.222,644.444,13.889,N
1883,-0.045,1.395,-0.180,122.222,88.889,347.222,672.222,27.778,N
1884,-0.005,1.450,-0.210,130.556,88.889,325.000,683.333,11.111,N
1885,-0.030,1.375,-0.240,130.556,86.111,300.000,663.889,19.444,N
1886,-0.035,1.360,-0.215,136.111,83.333,305.556,644.444,19.444,N
1887,-0.015,1.390,-0.155,136.111,91.667,380.556,647.222,2.778,N
